Elapsed_Time,EMG1,EMG2,EMG3,BioRadio Event,Unnamed: 5
00:00:00,0.00069809,-0.000669479,0.002105713,0,
00:00.0,0.000692368,-0.000680923,0.002099991,0,
00:00.0,0.000692368,-0.000675201,0.002094269,0,
00:00.0,0.000692368,-0.000658035,0.002094269,0,
00:00.0,0.000686646,-0.000658035,0.002105713,0,
00:00.0,0.000680923,-0.000652313,0.002099991,0,
00:00.0,0.000680923,-0.000658035,0.002105713,0,
00:00.0,0.000680923,-0.000675201,0.002099991,0,
00:00.0,0.00069809,-0.000669479,0.002088547,0,
00:00.0,0.000692368,-0.000658035,0.002099991,0,
00:00.0,0.000669479,-0.000652313,0.002099991,0,
00:00.0,0.000675201,-0.000658035,0.002105713,0,
00:00.0,0.000686646,-0.000658035,0.002099991,0,
00:00.1,0.000692368,-0.000658035,0.002105713,0,
00:00.1,0.000692368,-0.000663757,0.002099991,0,
00:00.1,0.000686646,-0.000663757,0.002094269,0,
00:00.1,0.000680923,-0.000675201,0.002105713,0,
00:00.1,0.000680923,-0.000669479,0.002094269,0,
00:00.1,0.000680923,-0.000663757,0.002099991,0,
00:00.1,0.000686646,-0.000686646,0.002094269,0,
00:00.1,0.000686646,-0.000669479,0.002099991,0,
00:00.1,0.000686646,-0.000646591,0.002099991,0,
00:00.1,0.000686646,-0.000652313,0.002094269,0,
00:00.1,0.00069809,-0.000658035,0.002088547,0,
00:00.1,0.000692368,-0.000658035,0.002088547,0,
00:00.1,0.000692368,-0.000658035,0.002094269,0,
00:00.1,0.000686646,-0.000658035,0.002088547,0,
00:00.1,0.000686646,-0.000675201,0.002077103,0,
00:00.1,0.000686646,-0.000680923,0.002094269,0,
00:00.1,0.000692368,-0.000669479,0.002099991,0,
00:00.1,0.00069809,-0.000658035,0.002088547,0,
00:00.1,0.000692368,-0.000680923,0.002082825,0,
00:00.1,0.00069809,-0.000680923,0.002094269,0,
00:00.1,0.000692368,-0.000663757,0.002094269,0,
00:00.1,0.00069809,-0.000629425,0.002099991,0,
00:00.1,0.00069809,-0.000646591,0.002094269,0,
00:00.1,0.000686646,-0.000669479,0.002088547,0,
00:00.1,0.000680923,-0.000686646,0.002082825,0,
00:00.2,0.00069809,-0.000669479,0.002082825,0,
00:00.2,0.000703812,-0.000658035,0.002099991,0,
00:00.2,0.000686646,-0.000669479,0.002099991,0,
00:00.2,0.000692368,-0.000675201,0.002094269,0,
00:00.2,0.000703812,-0.000663757,0.002082825,0,
00:00.2,0.00069809,-0.000652313,0.002059937,0,
00:00.2,0.000692368,-0.000663757,0.002088547,0,
00:00.2,0.000692368,-0.000675201,0.002088547,0,
00:00.2,0.000692368,-0.000680923,0.002082825,0,
00:00.2,0.000680923,-0.000680923,0.002099991,0,
00:00.2,0.000680923,-0.000669479,0.002094269,0,
00:00.2,0.000686646,-0.000669479,0.002082825,0,
00:00.2,0.000686646,-0.000658035,0.002082825,0,
00:00.2,0.000692368,-0.000669479,0.002082825,0,
00:00.2,0.000692368,-0.00069809,0.002082825,0,
00:00.2,0.000680923,-0.0007267,0.002077103,0,
00:00.2,0.000680923,-0.000675201,0.002077103,0,
00:00.2,0.00069809,-0.000646591,0.002071381,0,
00:00.2,0.000709534,-0.000646591,0.002082825,0,
00:00.2,0.00069809,-0.000663757,0.002094269,0,
00:00.2,0.000692368,-0.000675201,0.002082825,0,
00:00.2,0.000686646,-0.000669479,0.002082825,0,
00:00.2,0.000680923,-0.000669479,0.002082825,0,
00:00.2,0.000692368,-0.000663757,0.002077103,0,
00:00.2,0.00069809,-0.000663757,0.002077103,0,
00:00.3,0.000680923,-0.000675201,0.002088547,0,
00:00.3,0.000675201,-0.000686646,0.002088547,0,
00:00.3,0.000692368,-0.000669479,0.002077103,0,
00:00.3,0.000692368,-0.000669479,0.002088547,0,
00:00.3,0.000680923,-0.000680923,0.002082825,0,
00:00.3,0.000686646,-0.000692368,0.002082825,0,
00:00.3,0.000692368,-0.000680923,0.002077103,0,
00:00.3,0.000692368,-0.000658035,0.002071381,0,
00:00.3,0.00069809,-0.000663757,0.002077103,0,
00:00.3,0.000703812,-0.000663757,0.002082825,0,
00:00.3,0.00069809,-0.000663757,0.002077103,0,
00:00.3,0.000686646,-0.000680923,0.002088547,0,
00:00.3,0.000680923,-0.00069809,0.002088547,0,
00:00.3,0.000686646,-0.000703812,0.002082825,0,
00:00.3,0.000686646,-0.000692368,0.002077103,0,
00:00.3,0.000692368,-0.000686646,0.002088547,0,
00:00.3,0.00069809,-0.000658035,0.002082825,0,
00:00.3,0.00069809,-0.000658035,0.002077103,0,
00:00.3,0.00069809,-0.000658035,0.002077103,0,
00:00.3,0.00069809,-0.000669479,0.002071381,0,
00:00.3,0.000692368,-0.000703812,0.002071381,0,
00:00.3,0.000686646,-0.000715256,0.002077103,0,
00:00.3,0.00069809,-0.000686646,0.002071381,0,
00:00.3,0.000692368,-0.000658035,0.002077103,0,
00:00.3,0.000692368,-0.000663757,0.002077103,0,
00:00.4,0.000680923,-0.000675201,0.002082825,0,
00:00.4,0.00069809,-0.000686646,0.002088547,0,
00:00.4,0.000686646,-0.000703812,0.002071381,0,
00:00.4,0.000692368,-0.000703812,0.002077103,0,
00:00.4,0.000686646,-0.000675201,0.002077103,0,
00:00.4,0.00069809,-0.000663757,0.002065659,0,
00:00.4,0.00069809,-0.000680923,0.002088547,0,
00:00.4,0.00069809,-0.000675201,0.002082825,0,
00:00.4,0.000703812,-0.000646591,0.002071381,0,
00:00.4,0.00069809,-0.000663757,0.002077103,0,
00:00.4,0.000686646,-0.000686646,0.002077103,0,
00:00.4,0.000675201,-0.000703812,0.002082825,0,
00:00.4,0.000675201,-0.00069809,0.002082825,0,
00:00.4,0.000686646,-0.000675201,0.002077103,0,
00:00.4,0.000692368,-0.000669479,0.002071381,0,
00:00.4,0.00069809,-0.000640869,0.002065659,0,
00:00.4,0.000675201,-0.000652313,0.002082825,0,
00:00.4,0.000686646,-0.000675201,0.002088547,0,
00:00.4,0.000686646,-0.000675201,0.002088547,0,
00:00.4,0.000686646,-0.000680923,0.002082825,0,
00:00.4,0.000675201,-0.000692368,0.002077103,0,
00:00.4,0.000658035,-0.000692368,0.002071381,0,
00:00.4,0.000680923,-0.000692368,0.002077103,0,
00:00.4,0.000680923,-0.000686646,0.002071381,0,
00:00.4,0.000680923,-0.000680923,0.002082825,0,
00:00.5,0.000686646,-0.000686646,0.002088547,0,
00:00.5,0.000686646,-0.000669479,0.002088547,0,
00:00.5,0.000680923,-0.000663757,0.002088547,0,
00:00.5,0.000675201,-0.000692368,0.002082825,0,
00:00.5,0.000680923,-0.000675201,0.002071381,0,
00:00.5,0.00069809,-0.000663757,0.002071381,0,
00:00.5,0.000692368,-0.000669479,0.002082825,0,
00:00.5,0.000675201,-0.000692368,0.002077103,0,
00:00.5,0.000680923,-0.000686646,0.002071381,0,
00:00.5,0.00069809,-0.000675201,0.002071381,0,
00:00.5,0.000686646,-0.000675201,0.002082825,0,
00:00.5,0.000686646,-0.000652313,0.002082825,0,
00:00.5,0.000686646,-0.000658035,0.002082825,0,
00:00.5,0.000680923,-0.000680923,0.002077103,0,
00:00.5,0.000686646,-0.000686646,0.002082825,0,
00:00.5,0.00069809,-0.000680923,0.002077103,0,
00:00.5,0.00069809,-0.000669479,0.002077103,0,
00:00.5,0.00069809,-0.000680923,0.002065659,0,
00:00.5,0.000686646,-0.00069809,0.002082825,0,
00:00.5,0.000686646,-0.00069809,0.002082825,0,
00:00.5,0.000686646,-0.000692368,0.002077103,0,
00:00.5,0.000675201,-0.00069809,0.002082825,0,
00:00.5,0.000658035,-0.000680923,0.002065659,0,
00:00.5,0.000675201,-0.000680923,0.002077103,0,
00:00.5,0.000686646,-0.000669479,0.002077103,0,
00:00.6,0.000692368,-0.000669479,0.002071381,0,
00:00.6,0.000680923,-0.000680923,0.002077103,0,
00:00.6,0.000680923,-0.000663757,0.002065659,0,
00:00.6,0.000686646,-0.000663757,0.002088547,0,
00:00.6,0.000669479,-0.000686646,0.002071381,0,
00:00.6,0.000663757,-0.000709534,0.002082825,0,
00:00.6,0.000663757,-0.000663757,0.002082825,0,
00:00.6,0.000680923,-0.000629425,0.002077103,0,
00:00.6,0.000692368,-0.000646591,0.002071381,0,
00:00.6,0.000686646,-0.000675201,0.002071381,0,
00:00.6,0.000663757,-0.000692368,0.002071381,0,
00:00.6,0.000652313,-0.000703812,0.002065659,0,
00:00.6,0.000669479,-0.00069809,0.002054214,0,
00:00.6,0.000680923,-0.000675201,0.002082825,0,
00:00.6,0.000692368,-0.000675201,0.002071381,0,
00:00.6,0.000686646,-0.000680923,0.002071381,0,
00:00.6,0.000692368,-0.000663757,0.002077103,0,
00:00.6,0.000680923,-0.000663757,0.002071381,0,
00:00.6,0.000675201,-0.000680923,0.002082825,0,
00:00.6,0.000669479,-0.000703812,0.002071381,0,
00:00.6,0.000669479,-0.000709534,0.002054214,0,
00:00.6,0.000669479,-0.000703812,0.002048492,0,
00:00.6,0.000663757,-0.000675201,0.002071381,0,
00:00.6,0.000669479,-0.000663757,0.002071381,0,
00:00.6,0.000669479,-0.000686646,0.002077103,0,
00:00.7,0.000669479,-0.000709534,0.002071381,0,
00:00.7,0.000669479,-0.000692368,0.002054214,0,
00:00.7,0.000669479,-0.000669479,0.002065659,0,
00:00.7,0.000669479,-0.000669479,0.002071381,0,
00:00.7,0.000675201,-0.000669479,0.002065659,0,
00:00.7,0.000680923,-0.000675201,0.002059937,0,
00:00.7,0.000680923,-0.000675201,0.002059937,0,
00:00.7,0.000675201,-0.000680923,0.002065659,0,
00:00.7,0.000658035,-0.00069809,0.002071381,0,
00:00.7,0.000663757,-0.000703812,0.002059937,0,
00:00.7,0.000663757,-0.000692368,0.002071381,0,
00:00.7,0.000658035,-0.000686646,0.002065659,0,
00:00.7,0.000658035,-0.000669479,0.002059937,0,
00:00.7,0.000663757,-0.000658035,0.002054214,0,
00:00.7,0.000675201,-0.000669479,0.002054214,0,
00:00.7,0.000669479,-0.000680923,0.002059937,0,
00:00.7,0.000652313,-0.000709534,0.002054214,0,
00:00.7,0.000646591,-0.000738144,0.002065659,0,
00:00.7,0.000669479,-0.000715256,0.002065659,0,
00:00.7,0.000675201,-0.000675201,0.002071381,0,
00:00.7,0.000675201,-0.000652313,0.002054214,0,
00:00.7,0.000675201,-0.000658035,0.002054214,0,
00:00.7,0.000663757,-0.000675201,0.002065659,0,
00:00.7,0.000669479,-0.000686646,0.002065659,0,
00:00.7,0.000669479,-0.000692368,0.002059937,0,
00:00.8,0.000669479,-0.000680923,0.002054214,0,
00:00.8,0.000675201,-0.000663757,0.002065659,0,
00:00.8,0.000669479,-0.000669479,0.002059937,0,
00:00.8,0.000669479,-0.000675201,0.002059937,0,
00:00.8,0.000663757,-0.000680923,0.002065659,0,
00:00.8,0.000669479,-0.00069809,0.002065659,0,
00:00.8,0.000658035,-0.000709534,0.002059937,0,
00:00.8,0.000652313,-0.000709534,0.002065659,0,
00:00.8,0.000669479,-0.000686646,0.002065659,0,
00:00.8,0.000680923,-0.000658035,0.002059937,0,
00:00.8,0.000675201,-0.000663757,0.002054214,0,
00:00.8,0.000658035,-0.000709534,0.002065659,0,
00:00.8,0.000640869,-0.000738144,0.002065659,0,
00:00.8,0.000646591,-0.000703812,0.002059937,0,
00:00.8,0.000669479,-0.000663757,0.002065659,0,
00:00.8,0.000680923,-0.000646591,0.002059937,0,
00:00.8,0.000669479,-0.000663757,0.002065659,0,
00:00.8,0.000669479,-0.000680923,0.002059937,0,
00:00.8,0.000669479,-0.00069809,0.002065659,0,
00:00.8,0.000669479,-0.000686646,0.002048492,0,
00:00.8,0.000669479,-0.000680923,0.002048492,0,
00:00.8,0.000658035,-0.000680923,0.002059937,0,
00:00.8,0.000675201,-0.000669479,0.002054214,0,
00:00.8,0.000680923,-0.000675201,0.002071381,0,
00:00.8,0.000669479,-0.000680923,0.002054214,0,
00:00.9,0.000663757,-0.000686646,0.002065659,0,
00:00.9,0.000663757,-0.000692368,0.002065659,0,
00:00.9,0.000658035,-0.000703812,0.002059937,0,
00:00.9,0.000658035,-0.000692368,0.002065659,0,
00:00.9,0.000658035,-0.000675201,0.002059937,0,
00:00.9,0.000658035,-0.000686646,0.002059937,0,
00:00.9,0.000652313,-0.000709534,0.002054214,0,
00:00.9,0.000635147,-0.000732422,0.002048492,0,
00:00.9,0.000652313,-0.000720978,0.002054214,0,
00:00.9,0.000663757,-0.000675201,0.002059937,0,
00:00.9,0.000663757,-0.000640869,0.002048492,0,
00:00.9,0.000658035,-0.000658035,0.002048492,0,
00:00.9,0.000652313,-0.000675201,0.00204277,0,
00:00.9,0.000658035,-0.000692368,0.002065659,0,
00:00.9,0.000658035,-0.00069809,0.002054214,0,
00:00.9,0.000646591,-0.000686646,0.002048492,0,
00:00.9,0.000658035,-0.000686646,0.002054214,0,
00:00.9,0.000663757,-0.000692368,0.002048492,0,
00:00.9,0.000652313,-0.000686646,0.002065659,0,
00:00.9,0.000635147,-0.000692368,0.002054214,0,
00:00.9,0.000652313,-0.000686646,0.00204277,0,
00:00.9,0.000663757,-0.000686646,0.002054214,0,
00:00.9,0.000675201,-0.000675201,0.002048492,0,
00:00.9,0.000669479,-0.000675201,0.002048492,0,
00:00.9,0.000663757,-0.000675201,0.002048492,0,
00:01.0,0.000652313,-0.000680923,0.002054214,0,
00:01.0,0.000640869,-0.00069809,0.002048492,0,
00:01.0,0.000652313,-0.000709534,0.002054214,0,
00:01.0,0.000669479,-0.000686646,0.002054214,0,
00:01.0,0.000652313,-0.000663757,0.002059937,0,
00:01.0,0.000652313,-0.000680923,0.002054214,0,
00:01.0,0.000663757,-0.000686646,0.002059937,0,
00:01.0,0.000658035,-0.000675201,0.00204277,0,
00:01.0,0.000658035,-0.000675201,0.002054214,0,
00:01.0,0.000663757,-0.000663757,0.002054214,0,
00:01.0,0.000663757,-0.000652313,0.00204277,0,
00:01.0,0.000652313,-0.000658035,0.002048492,0,
00:00:01,0.000658035,-0.000669479,0.002048492,0,
00:01.0,0.000658035,-0.000669479,0.002065659,0,
00:01.0,0.000652313,-0.000669479,0.002065659,0,
00:01.0,0.000640869,-0.000680923,0.002059937,0,
00:01.0,0.000635147,-0.000686646,0.002054214,0,
00:01.0,0.000652313,-0.000675201,0.002059937,0,
00:01.0,0.000652313,-0.000675201,0.002048492,0,
00:01.0,0.000646591,-0.000663757,0.002054214,0,
00:01.0,0.000646591,-0.000669479,0.002048492,0,
00:01.0,0.000652313,-0.000675201,0.002048492,0,
00:01.0,0.000669479,-0.000663757,0.002059937,0,
00:01.0,0.000658035,-0.000663757,0.002071381,0,
00:01.0,0.000640869,-0.000663757,0.002059937,0,
00:01.1,0.000652313,-0.000680923,0.002048492,0,
00:01.1,0.000658035,-0.000686646,0.002048492,0,
00:01.1,0.000658035,-0.000680923,0.002048492,0,
00:01.1,0.000663757,-0.000663757,0.002065659,0,
00:01.1,0.000658035,-0.000669479,0.002065659,0,
00:01.1,0.000646591,-0.000675201,0.002065659,0,
00:01.1,0.000646591,-0.000658035,0.002054214,0,
00:01.1,0.000663757,-0.000652313,0.00204277,0,
00:01.1,0.000658035,-0.000669479,0.002059937,0,
00:01.1,0.000658035,-0.000686646,0.002065659,0,
00:01.1,0.000652313,-0.000680923,0.002059937,0,
00:01.1,0.000646591,-0.000658035,0.002071381,0,
00:01.1,0.000640869,-0.000663757,0.002077103,0,
00:01.1,0.000646591,-0.00069809,0.002065659,0,
00:01.1,0.000652313,-0.000686646,0.002059937,0,
00:01.1,0.000658035,-0.000640869,0.002065659,0,
00:01.1,0.000658035,-0.000640869,0.002071381,0,
00:01.1,0.000652313,-0.000646591,0.002065659,0,
00:01.1,0.000658035,-0.000640869,0.002077103,0,
00:01.1,0.000663757,-0.000640869,0.002077103,0,
00:01.1,0.000669479,-0.000652313,0.002065659,0,
00:01.1,0.000663757,-0.000675201,0.002077103,0,
00:01.1,0.000663757,-0.00069809,0.002071381,0,
00:01.1,0.000669479,-0.000680923,0.002065659,0,
00:01.1,0.000675201,-0.000635147,0.002077103,0,
00:01.2,0.000675201,-0.000617981,0.002094269,0,
00:01.2,0.000658035,-0.000646591,0.002094269,0,
00:01.2,0.000646591,-0.000669479,0.002077103,0,
00:01.2,0.000658035,-0.000669479,0.002065659,0,
00:01.2,0.000675201,-0.000663757,0.002059937,0,
00:01.2,0.000663757,-0.000652313,0.002088547,0,
00:01.2,0.000652313,-0.000635147,0.002082825,0,
00:01.2,0.000652313,-0.000658035,0.002088547,0,
00:01.2,0.000646591,-0.000680923,0.002094269,0,
00:01.2,0.000652313,-0.000669479,0.002088547,0,
00:01.2,0.000658035,-0.000635147,0.002077103,0,
00:01.2,0.000663757,-0.000623703,0.002077103,0,
00:01.2,0.000658035,-0.000635147,0.002088547,0,
00:01.2,0.000669479,-0.000640869,0.002088547,0,
00:01.2,0.000663757,-0.000652313,0.002088547,0,
00:01.2,0.000658035,-0.000675201,0.002094269,0,
00:01.2,0.000658035,-0.000675201,0.002088547,0,
00:01.2,0.000652313,-0.000658035,0.002082825,0,
00:01.2,0.000658035,-0.000658035,0.002088547,0,
00:01.2,0.000663757,-0.000663757,0.002088547,0,
00:01.2,0.000663757,-0.000663757,0.002094269,0,
00:01.2,0.000646591,-0.000669479,0.002099991,0,
00:01.2,0.000652313,-0.000675201,0.002094269,0,
00:01.2,0.000658035,-0.000663757,0.002105713,0,
00:01.2,0.000663757,-0.000635147,0.002111435,0,
00:01.3,0.000669479,-0.000629425,0.002105713,0,
00:01.3,0.000663757,-0.000669479,0.002082825,0,
00:01.3,0.000658035,-0.000686646,0.002088547,0,
00:01.3,0.000675201,-0.000640869,0.002122879,0,
00:01.3,0.000675201,-0.000606537,0.002111435,0,
00:01.3,0.000663757,-0.000617981,0.002105713,0,
00:01.3,0.000669479,-0.000635147,0.002111435,0,
00:01.3,0.000669479,-0.000635147,0.002122879,0,
00:01.3,0.000663757,-0.000640869,0.002122879,0,
00:01.3,0.000658035,-0.000646591,0.002128601,0,
00:01.3,0.000658035,-0.000646591,0.002117157,0,
00:01.3,0.000669479,-0.000646591,0.002117157,0,
00:01.3,0.000669479,-0.000646591,0.002128601,0,
00:01.3,0.000658035,-0.000646591,0.002128601,0,
00:01.3,0.000646591,-0.000658035,0.002128601,0,
00:01.3,0.000658035,-0.000658035,0.002151489,0,
00:01.3,0.000692368,-0.000629425,0.002145767,0,
00:01.3,0.000692368,-0.000617981,0.002134323,0,
00:01.3,0.000675201,-0.000635147,0.002134323,0,
00:01.3,0.000663757,-0.000669479,0.002134323,0,
00:01.3,0.000652313,-0.000669479,0.002128601,0,
00:01.3,0.000675201,-0.000617981,0.002140045,0,
00:01.3,0.000692368,-0.000600815,0.002145767,0,
00:01.3,0.000680923,-0.000606537,0.002151489,0,
00:01.3,0.000686646,-0.000606537,0.002157211,0,
00:01.4,0.000675201,-0.000623703,0.002145767,0,
00:01.4,0.000663757,-0.000629425,0.002145767,0,
00:01.4,0.000669479,-0.000629425,0.002145767,0,
00:01.4,0.000680923,-0.000640869,0.002162933,0,
00:01.4,0.000675201,-0.000652313,0.002157211,0,
00:01.4,0.000675201,-0.000635147,0.002157211,0,
00:01.4,0.000675201,-0.000623703,0.002157211,0,
00:01.4,0.000680923,-0.000623703,0.002151489,0,
00:01.4,0.000680923,-0.000612259,0.002174377,0,
00:01.4,0.000680923,-0.000600815,0.002157211,0,
00:01.4,0.000675201,-0.000612259,0.002162933,0,
00:01.4,0.000669479,-0.000629425,0.002162933,0,
00:01.4,0.000663757,-0.000646591,0.002168655,0,
00:01.4,0.000675201,-0.000652313,0.002168655,0,
00:01.4,0.000675201,-0.000635147,0.002168655,0,
00:01.4,0.000675201,-0.000652313,0.002180099,0,
00:01.4,0.000686646,-0.000640869,0.002174377,0,
00:01.4,0.000680923,-0.000612259,0.002174377,0,
00:01.4,0.000658035,-0.000623703,0.002180099,0,
00:01.4,0.000686646,-0.000617981,0.002180099,0,
00:01.4,0.000692368,-0.000612259,0.002180099,0,
00:01.4,0.000692368,-0.000606537,0.002180099,0,
00:01.4,0.000692368,-0.000617981,0.002174377,0,
00:01.4,0.000686646,-0.000629425,0.002185822,0,
00:01.4,0.000675201,-0.000640869,0.002174377,0,
00:01.5,0.000680923,-0.000640869,0.002191544,0,
00:01.5,0.000692368,-0.000623703,0.002191544,0,
00:01.5,0.000692368,-0.000606537,0.002180099,0,
00:01.5,0.00069809,-0.000612259,0.002180099,0,
00:01.5,0.000692368,-0.000617981,0.002197266,0,
00:01.5,0.000686646,-0.000635147,0.00220871,0,
00:01.5,0.000686646,-0.000652313,0.002197266,0,
00:01.5,0.000686646,-0.000669479,0.002197266,0,
00:01.5,0.000675201,-0.000669479,0.002191544,0,
00:01.5,0.000675201,-0.000629425,0.002202988,0,
00:01.5,0.000692368,-0.000606537,0.00220871,0,
00:01.5,0.000692368,-0.000612259,0.002197266,0,
00:01.5,0.00069809,-0.000612259,0.002180099,0,
00:01.5,0.000703812,-0.000612259,0.002197266,0,
00:01.5,0.00069809,-0.000623703,0.002197266,0,
00:01.5,0.000686646,-0.000623703,0.002197266,0,
00:01.5,0.000703812,-0.000617981,0.002185822,0,
00:01.5,0.000709534,-0.000612259,0.002202988,0,
00:01.5,0.000720978,-0.000612259,0.002214432,0,
00:01.5,0.000709534,-0.000617981,0.002214432,0,
00:01.5,0.000686646,-0.000640869,0.002202988,0,
00:01.5,0.000709534,-0.000635147,0.002202988,0,
00:01.5,0.000715256,-0.000629425,0.002202988,0,
00:01.5,0.000709534,-0.000629425,0.002191544,0,
00:01.5,0.000709534,-0.000617981,0.002197266,0,
00:01.6,0.000703812,-0.000617981,0.002214432,0,
00:01.6,0.000703812,-0.000629425,0.00220871,0,
00:01.6,0.000680923,-0.000652313,0.002202988,0,
00:01.6,0.00069809,-0.000675201,0.002214432,0,
00:01.6,0.00069809,-0.000675201,0.002214432,0,
00:01.6,0.000703812,-0.000629425,0.002202988,0,
00:01.6,0.000720978,-0.000589371,0.002202988,0,
00:01.6,0.000720978,-0.000606537,0.002197266,0,
00:01.6,0.000720978,-0.000629425,0.002197266,0,
00:01.6,0.000715256,-0.000635147,0.002202988,0,
00:01.6,0.000715256,-0.000623703,0.002197266,0,
00:01.6,0.000703812,-0.000640869,0.002202988,0,
00:01.6,0.000720978,-0.000629425,0.002202988,0,
00:01.6,0.000738144,-0.000606537,0.00220871,0,
00:01.6,0.0007267,-0.000617981,0.002202988,0,
00:01.6,0.000715256,-0.000629425,0.002191544,0,
00:01.6,0.000720978,-0.000635147,0.002197266,0,
00:01.6,0.000720978,-0.000646591,0.002197266,0,
00:01.6,0.000720978,-0.000646591,0.002185822,0,
00:01.6,0.000720978,-0.000635147,0.002180099,0,
00:01.6,0.000709534,-0.000663757,0.002202988,0,
00:01.6,0.00069809,-0.000663757,0.002197266,0,
00:01.6,0.000709534,-0.000617981,0.002202988,0,
00:01.6,0.000715256,-0.000617981,0.002202988,0,
00:01.6,0.000709534,-0.000635147,0.002197266,0,
00:01.7,0.000703812,-0.000652313,0.002191544,0,
00:01.7,0.000703812,-0.000635147,0.002185822,0,
00:01.7,0.0007267,-0.000612259,0.002174377,0,
00:01.7,0.0007267,-0.000629425,0.002180099,0,
00:01.7,0.0007267,-0.000640869,0.002180099,0,
00:01.7,0.0007267,-0.000635147,0.002168655,0,
00:01.7,0.000720978,-0.000646591,0.002185822,0,
00:01.7,0.000720978,-0.000652313,0.002180099,0,
00:01.7,0.000715256,-0.000680923,0.002174377,0,
00:01.7,0.000715256,-0.000640869,0.002168655,0,
00:01.7,0.000720978,-0.000606537,0.002180099,0,
00:01.7,0.000732422,-0.000617981,0.002185822,0,
00:01.7,0.0007267,-0.000623703,0.002185822,0,
00:01.7,0.0007267,-0.000629425,0.002174377,0,
00:01.7,0.000709534,-0.000640869,0.002162933,0,
00:01.7,0.00069809,-0.000646591,0.002180099,0,
00:01.7,0.000720978,-0.000640869,0.002174377,0,
00:01.7,0.000738144,-0.000623703,0.002168655,0,
00:01.7,0.00075531,-0.000617981,0.002162933,0,
00:01.7,0.000738144,-0.000640869,0.002157211,0,
00:01.7,0.000738144,-0.000646591,0.002151489,0,
00:01.7,0.000732422,-0.000640869,0.002157211,0,
00:01.7,0.000720978,-0.000663757,0.002151489,0,
00:01.7,0.0007267,-0.000669479,0.002145767,0,
00:01.7,0.0007267,-0.000652313,0.002157211,0,
00:01.8,0.000703812,-0.000658035,0.002145767,0,
00:01.8,0.000715256,-0.000640869,0.002140045,0,
00:01.8,0.000738144,-0.000617981,0.002157211,0,
00:01.8,0.000732422,-0.000617981,0.002151489,0,
00:01.8,0.0007267,-0.000635147,0.002128601,0,
00:01.8,0.0007267,-0.000646591,0.002122879,0,
00:01.8,0.000732422,-0.000652313,0.002128601,0,
00:01.8,0.000738144,-0.000635147,0.002151489,0,
00:01.8,0.000743866,-0.000629425,0.002128601,0,
00:01.8,0.000709534,-0.000646591,0.002128601,0,
00:01.8,0.000709534,-0.000652313,0.002134323,0,
00:01.8,0.000732422,-0.000663757,0.002128601,0,
00:01.8,0.000732422,-0.000646591,0.002111435,0,
00:01.8,0.000743866,-0.000640869,0.002117157,0,
00:01.8,0.000732422,-0.000658035,0.002122879,0,
00:01.8,0.0007267,-0.000640869,0.002117157,0,
00:01.8,0.000715256,-0.000640869,0.002122879,0,
00:01.8,0.000720978,-0.000652313,0.002111435,0,
00:01.8,0.0007267,-0.000675201,0.002105713,0,
00:01.8,0.000720978,-0.000686646,0.002099991,0,
00:01.8,0.0007267,-0.000663757,0.002105713,0,
00:01.8,0.0007267,-0.000640869,0.002094269,0,
00:01.8,0.0007267,-0.000640869,0.002094269,0,
00:01.8,0.000738144,-0.000652313,0.002099991,0,
00:01.8,0.0007267,-0.000646591,0.002099991,0,
00:01.9,0.000732422,-0.000663757,0.002082825,0,
00:01.9,0.000720978,-0.000663757,0.002094269,0,
00:01.9,0.0007267,-0.000652313,0.002094269,0,
00:01.9,0.000732422,-0.000646591,0.002082825,0,
00:01.9,0.000743866,-0.000646591,0.002059937,0,
00:01.9,0.000743866,-0.000669479,0.002077103,0,
00:01.9,0.000715256,-0.000686646,0.002088547,0,
00:01.9,0.0007267,-0.000680923,0.002082825,0,
00:01.9,0.000738144,-0.000658035,0.002077103,0,
00:01.9,0.000732422,-0.000646591,0.002065659,0,
00:01.9,0.000715256,-0.000663757,0.002065659,0,
00:01.9,0.000715256,-0.000675201,0.002054214,0,
00:01.9,0.000732422,-0.000675201,0.002054214,0,
00:01.9,0.0007267,-0.000686646,0.002059937,0,
00:01.9,0.000715256,-0.00069809,0.002065659,0,
00:01.9,0.000703812,-0.000715256,0.00204277,0,
00:01.9,0.000703812,-0.000675201,0.00204277,0,
00:01.9,0.000761032,-0.000629425,0.00204277,0,
00:01.9,0.000766754,-0.000646591,0.002019882,0,
00:01.9,0.000749588,-0.000663757,0.002037048,0,
00:01.9,0.000738144,-0.000663757,0.002048492,0,
00:01.9,0.000738144,-0.000669479,0.002037048,0,
00:01.9,0.000743866,-0.000686646,0.002031326,0,
00:01.9,0.000738144,-0.00069809,0.002025604,0,
00:01.9,0.000738144,-0.000663757,0.002025604,0,
00:02.0,0.000732422,-0.000669479,0.002008438,0,
00:02.0,0.000732422,-0.000669479,0.002019882,0,
00:02.0,0.000749588,-0.000658035,0.002002716,0,
00:02.0,0.000732422,-0.000652313,0.00198555,0,
00:02.0,0.000720978,-0.000680923,0.002008438,0,
00:02.0,0.000720978,-0.000715256,0.00201416,0,
00:02.0,0.000709534,-0.0007267,0.002008438,0,
00:02.0,0.000738144,-0.000703812,0.002008438,0,
00:02.0,0.000749588,-0.000658035,0.001996994,0,
00:02.0,0.000743866,-0.000629425,0.001996994,0,
00:02.0,0.000743866,-0.000646591,0.001991272,0,
00:02.0,0.00075531,-0.000669479,0.001991272,0,
00:00:02,0.000738144,-0.000692368,0.001991272,0,
00:02.0,0.000732422,-0.00069809,0.001996994,0,
00:02.0,0.000720978,-0.000686646,0.00198555,0,
00:02.0,0.000720978,-0.000709534,0.001962662,0,
00:02.0,0.0007267,-0.000709534,0.001962662,0,
00:02.0,0.000738144,-0.000663757,0.001968384,0,
00:02.0,0.000749588,-0.000646591,0.001968384,0,
00:02.0,0.000715256,-0.000658035,0.001968384,0,
00:02.0,0.0007267,-0.000680923,0.001951218,0,
00:02.0,0.000743866,-0.000680923,0.001939774,0,
00:02.0,0.000738144,-0.000680923,0.001934052,0,
00:02.0,0.000720978,-0.00069809,0.001939774,0,
00:02.0,0.000703812,-0.000715256,0.001945496,0,
00:02.1,0.000732422,-0.00069809,0.001928329,0,
00:02.1,0.000738144,-0.000692368,0.001922607,0,
00:02.1,0.000738144,-0.000658035,0.001928329,0,
00:02.1,0.000732422,-0.000652313,0.001916885,0,
00:02.1,0.0007267,-0.000680923,0.001911163,0,
00:02.1,0.0007267,-0.000686646,0.001922607,0,
00:02.1,0.000720978,-0.000686646,0.001916885,0,
00:02.1,0.000720978,-0.000703812,0.001911163,0,
00:02.1,0.0007267,-0.000709534,0.001905441,0,
00:02.1,0.000709534,-0.000686646,0.001899719,0,
00:02.1,0.000715256,-0.000680923,0.001888275,0,
00:02.1,0.000738144,-0.000686646,0.001888275,0,
00:02.1,0.0007267,-0.000692368,0.001893997,0,
00:02.1,0.0007267,-0.000692368,0.001893997,0,
00:02.1,0.0007267,-0.000692368,0.001876831,0,
00:02.1,0.000709534,-0.000709534,0.001876831,0,
00:02.1,0.0007267,-0.000709534,0.001876831,0,
00:02.1,0.000738144,-0.000720978,0.001882553,0,
00:02.1,0.000738144,-0.000709534,0.001876831,0,
00:02.1,0.000738144,-0.00069809,0.001859665,0,
00:02.1,0.000738144,-0.000686646,0.001859665,0,
00:02.1,0.000743866,-0.000680923,0.001865387,0,
00:02.1,0.0007267,-0.000703812,0.001865387,0,
00:02.1,0.000715256,-0.000720978,0.001859665,0,
00:02.1,0.000709534,-0.000732422,0.001853943,0,
00:02.2,0.000709534,-0.000692368,0.001853943,0,
00:02.2,0.000715256,-0.000686646,0.001848221,0,
00:02.2,0.000715256,-0.000703812,0.001842499,0,
00:02.2,0.000738144,-0.000709534,0.001808167,0,
00:02.2,0.000738144,-0.000703812,0.001808167,0,
00:02.2,0.000732422,-0.000703812,0.001819611,0,
00:02.2,0.0007267,-0.00069809,0.001836777,0,
00:02.2,0.000720978,-0.00069809,0.001831055,0,
00:02.2,0.000720978,-0.000709534,0.001836777,0,
00:02.2,0.000715256,-0.0007267,0.001819611,0,
00:02.2,0.000720978,-0.000732422,0.001819611,0,
00:02.2,0.000720978,-0.000732422,0.001796722,0,
00:02.2,0.0007267,-0.0007267,0.001813889,0,
00:02.2,0.000715256,-0.000720978,0.001808167,0,
00:02.2,0.000715256,-0.0007267,0.001796722,0,
00:02.2,0.000703812,-0.000761032,0.001802444,0,
00:02.2,0.000715256,-0.000766754,0.001785278,0,
00:02.2,0.000738144,-0.000686646,0.001791,0,
00:02.2,0.000743866,-0.000663757,0.001785278,0,
00:02.2,0.0007267,-0.000692368,0.001785278,0,
00:02.2,0.000709534,-0.000720978,0.001773834,0,
00:02.2,0.00069809,-0.000743866,0.00176239,0,
00:02.2,0.000692368,-0.00075531,0.00176239,0,
00:02.2,0.000709534,-0.000738144,0.001756668,0,
00:02.2,0.000732422,-0.0007267,0.00176239,0,
00:02.3,0.000738144,-0.000703812,0.001756668,0,
00:02.3,0.000738144,-0.000715256,0.001756668,0,
00:02.3,0.000743866,-0.000715256,0.001750946,0,
00:02.3,0.000738144,-0.00069809,0.001756668,0,
00:02.3,0.000732422,-0.000709534,0.00173378,0,
00:02.3,0.000738144,-0.000732422,0.001728058,0,
00:02.3,0.000720978,-0.000743866,0.001756668,0,
00:02.3,0.000709534,-0.000749588,0.001745224,0,
00:02.3,0.000709534,-0.000772476,0.001728058,0,
00:02.3,0.000720978,-0.000738144,0.001722336,0,
00:02.3,0.0007267,-0.000703812,0.001722336,0,
00:02.3,0.0007267,-0.000720978,0.001716614,0,
00:02.3,0.000732422,-0.000709534,0.00170517,0,
00:02.3,0.000720978,-0.000709534,0.001722336,0,
00:02.3,0.000692368,-0.000732422,0.001728058,0,
00:02.3,0.000715256,-0.00075531,0.001710892,0,
00:02.3,0.000715256,-0.000761032,0.00170517,0,
00:02.3,0.0007267,-0.000738144,0.001693726,0,
00:02.3,0.000732422,-0.000720978,0.001699448,0,
00:02.3,0.000720978,-0.0007267,0.001688004,0,
00:02.3,0.000715256,-0.000743866,0.001699448,0,
00:02.3,0.000715256,-0.000743866,0.001693726,0,
00:02.3,0.000720978,-0.000749588,0.001699448,0,
00:02.3,0.000732422,-0.000761032,0.001682281,0,
00:02.3,0.0007267,-0.000749588,0.001676559,0,
00:02.4,0.000720978,-0.000738144,0.001682281,0,
00:02.4,0.000715256,-0.000761032,0.001688004,0,
00:02.4,0.000703812,-0.000778198,0.001682281,0,
00:02.4,0.000709534,-0.000778198,0.001670837,0,
00:02.4,0.000709534,-0.0007267,0.001676559,0,
00:02.4,0.000720978,-0.000715256,0.001682281,0,
00:02.4,0.000720978,-0.000743866,0.001670837,0,
00:02.4,0.000703812,-0.000749588,0.001665115,0,
00:02.4,0.000715256,-0.000743866,0.001670837,0,
00:02.4,0.000720978,-0.000749588,0.001665115,0,
00:02.4,0.000703812,-0.000772476,0.001647949,0,
00:02.4,0.000703812,-0.000772476,0.001647949,0,
00:02.4,0.000709534,-0.000749588,0.001659393,0,
00:02.4,0.000720978,-0.000738144,0.001642227,0,
00:02.4,0.000715256,-0.00075531,0.001642227,0,
00:02.4,0.000715256,-0.000789642,0.001630783,0,
00:02.4,0.000715256,-0.000789642,0.001642227,0,
00:02.4,0.000715256,-0.00075531,0.001642227,0,
00:02.4,0.000715256,-0.000749588,0.001630783,0,
00:02.4,0.000703812,-0.000761032,0.001625061,0,
00:02.4,0.000709534,-0.000766754,0.001613617,0,
00:02.4,0.000680923,-0.000761032,0.001619339,0,
00:02.4,0.000680923,-0.000801086,0.001613617,0,
00:02.4,0.000715256,-0.000795364,0.001630783,0,
00:02.4,0.000720978,-0.000738144,0.001613617,0,
00:02.5,0.000720978,-0.000720978,0.001619339,0,
00:02.5,0.000720978,-0.000738144,0.001619339,0,
00:02.5,0.000715256,-0.00075531,0.001613617,0,
00:02.5,0.000709534,-0.000766754,0.001613617,0,
00:02.5,0.00069809,-0.000772476,0.001602173,0,
00:02.5,0.000709534,-0.000772476,0.001607895,0,
00:02.5,0.000703812,-0.000772476,0.001590729,0,
00:02.5,0.000709534,-0.00075531,0.001596451,0,
00:02.5,0.000703812,-0.000766754,0.001585007,0,
00:02.5,0.000703812,-0.000806808,0.001602173,0,
00:02.5,0.00069809,-0.000801086,0.001596451,0,
00:02.5,0.000703812,-0.000743866,0.001590729,0,
00:02.5,0.00069809,-0.000749588,0.001590729,0,
00:02.5,0.000680923,-0.00078392,0.001579285,0,
00:02.5,0.000680923,-0.00078392,0.001573563,0,
00:02.5,0.00069809,-0.000778198,0.001579285,0,
00:02.5,0.00069809,-0.000789642,0.001567841,0,
00:02.5,0.000709534,-0.00078392,0.001556396,0,
00:02.5,0.000720978,-0.000743866,0.001567841,0,
00:02.5,0.000709534,-0.000738144,0.001567841,0,
00:02.5,0.000703812,-0.00075531,0.001567841,0,
00:02.5,0.000692368,-0.000772476,0.001556396,0,
00:02.5,0.000680923,-0.000789642,0.001562119,0,
00:02.5,0.000692368,-0.00078392,0.001556396,0,
00:02.5,0.000703812,-0.000789642,0.001556396,0,
00:02.6,0.00069809,-0.000789642,0.00153923,0,
00:02.6,0.00069809,-0.000789642,0.001533508,0,
00:02.6,0.000686646,-0.000801086,0.00153923,0,
00:02.6,0.000680923,-0.000806808,0.001550674,0,
00:02.6,0.000692368,-0.000778198,0.001544952,0,
00:02.6,0.000703812,-0.000761032,0.001544952,0,
00:02.6,0.000709534,-0.000795364,0.001516342,0,
00:02.6,0.000692368,-0.000789642,0.001533508,0,
00:02.6,0.000680923,-0.000795364,0.00153923,0,
00:02.6,0.000703812,-0.000789642,0.001533508,0,
00:02.6,0.000703812,-0.000766754,0.001522064,0,
00:02.6,0.00069809,-0.000778198,0.001527786,0,
00:02.6,0.000692368,-0.000801086,0.001516342,0,
00:02.6,0.00069809,-0.000812531,0.001516342,0,
00:02.6,0.000703812,-0.000789642,0.001522064,0,
00:02.6,0.000703812,-0.000778198,0.001516342,0,
00:02.6,0.000686646,-0.00078392,0.001499176,0,
00:02.6,0.000686646,-0.000795364,0.00151062,0,
00:02.6,0.000703812,-0.000789642,0.001493454,0,
00:02.6,0.00069809,-0.00078392,0.001522064,0,
00:02.6,0.000686646,-0.000795364,0.00151062,0,
00:02.6,0.000692368,-0.000818253,0.001504898,0,
00:02.6,0.000686646,-0.000829697,0.001493454,0,
00:02.6,0.000686646,-0.000789642,0.00151062,0,
00:02.6,0.00069809,-0.000766754,0.001504898,0,
00:02.7,0.000692368,-0.00078392,0.001493454,0,
00:02.7,0.00069809,-0.000806808,0.001493454,0,
00:02.7,0.000703812,-0.000795364,0.001487732,0,
00:02.7,0.000686646,-0.00078392,0.00148201,0,
00:02.7,0.000692368,-0.000795364,0.001487732,0,
00:02.7,0.00069809,-0.000823975,0.001487732,0,
00:02.7,0.000692368,-0.000812531,0.00148201,0,
00:02.7,0.000692368,-0.000789642,0.001487732,0,
00:02.7,0.000692368,-0.000789642,0.001476288,0,
00:02.7,0.000686646,-0.000795364,0.00148201,0,
00:02.7,0.000692368,-0.000795364,0.001464844,0,
00:02.7,0.000692368,-0.000795364,0.001447678,0,
00:02.7,0.000692368,-0.000795364,0.001476288,0,
00:02.7,0.000669479,-0.000823975,0.001459122,0,
00:02.7,0.000680923,-0.000835419,0.001476288,0,
00:02.7,0.000692368,-0.000812531,0.001470566,0,
00:02.7,0.000692368,-0.000789642,0.001464844,0,
00:02.7,0.000692368,-0.000795364,0.001447678,0,
00:02.7,0.000680923,-0.000812531,0.0014534,0,
00:02.7,0.000692368,-0.000801086,0.0014534,0,
00:02.7,0.000680923,-0.000801086,0.0014534,0,
00:02.7,0.000703812,-0.000812531,0.001459122,0,
00:02.7,0.00069809,-0.000818253,0.001447678,0,
00:02.7,0.000675201,-0.000823975,0.001459122,0,
00:02.7,0.000669479,-0.000835419,0.001447678,0,
00:02.8,0.00069809,-0.000823975,0.001436234,0,
00:02.8,0.000692368,-0.000801086,0.001441956,0,
00:02.8,0.000686646,-0.000801086,0.001441956,0,
00:02.8,0.000692368,-0.000806808,0.001447678,0,
00:02.8,0.000686646,-0.000818253,0.001436234,0,
00:02.8,0.000680923,-0.000812531,0.001424789,0,
00:02.8,0.000686646,-0.000801086,0.001441956,0,
00:02.8,0.000675201,-0.000801086,0.001447678,0,
00:02.8,0.000669479,-0.000812531,0.001436234,0,
00:02.8,0.000692368,-0.000812531,0.001419067,0,
00:02.8,0.000686646,-0.000801086,0.001430511,0,
00:02.8,0.000692368,-0.000818253,0.001441956,0,
00:02.8,0.000675201,-0.000823975,0.001436234,0,
00:02.8,0.000680923,-0.000806808,0.001430511,0,
00:02.8,0.000675201,-0.000812531,0.001413345,0,
00:02.8,0.000686646,-0.000818253,0.001424789,0,
00:02.8,0.00069809,-0.000806808,0.001419067,0,
00:02.8,0.000686646,-0.000823975,0.001407623,0,
00:02.8,0.000663757,-0.000858307,0.001419067,0,
00:02.8,0.000675201,-0.000852585,0.001419067,0,
00:02.8,0.000686646,-0.000795364,0.001419067,0,
00:02.8,0.00069809,-0.000795364,0.001413345,0,
00:02.8,0.000703812,-0.000801086,0.001413345,0,
00:02.8,0.000680923,-0.000812531,0.001419067,0,
00:02.8,0.000675201,-0.000841141,0.001407623,0,
00:02.9,0.000669479,-0.000835419,0.001384735,0,
00:02.9,0.000680923,-0.000806808,0.001407623,0,
00:02.9,0.000680923,-0.000801086,0.001413345,0,
00:02.9,0.000680923,-0.000823975,0.001401901,0,
00:02.9,0.000669479,-0.000829697,0.001407623,0,
00:02.9,0.000675201,-0.000812531,0.001396179,0,
00:02.9,0.000680923,-0.000812531,0.001390457,0,
00:02.9,0.000675201,-0.000841141,0.001390457,0,
00:02.9,0.000669479,-0.000846863,0.001390457,0,
00:02.9,0.000658035,-0.000835419,0.001401901,0,
00:02.9,0.000652313,-0.000846863,0.001396179,0,
00:02.9,0.000663757,-0.000829697,0.001390457,0,
00:02.9,0.000686646,-0.000818253,0.001384735,0,
00:02.9,0.000675201,-0.000835419,0.001379013,0,
00:02.9,0.000669479,-0.000852585,0.001384735,0,
00:02.9,0.000669479,-0.000852585,0.001379013,0,
00:02.9,0.000675201,-0.000835419,0.001379013,0,
00:02.9,0.000680923,-0.000812531,0.001373291,0,
00:02.9,0.000669479,-0.000806808,0.001367569,0,
00:02.9,0.000675201,-0.000812531,0.001367569,0,
00:02.9,0.000675201,-0.000812531,0.001373291,0,
00:02.9,0.000669479,-0.000823975,0.001379013,0,
00:02.9,0.000663757,-0.000829697,0.001384735,0,
00:02.9,0.000675201,-0.000823975,0.001367569,0,
00:02.9,0.000663757,-0.000823975,0.001379013,0,
00:03.0,0.000663757,-0.000835419,0.001384735,0,
00:03.0,0.000669479,-0.000846863,0.001379013,0,
00:03.0,0.000658035,-0.000846863,0.001367569,0,
00:03.0,0.000652313,-0.000812531,0.001361847,0,
00:03.0,0.000663757,-0.000829697,0.001367569,0,
00:03.0,0.000669479,-0.000846863,0.001361847,0,
00:03.0,0.000658035,-0.000852585,0.001367569,0,
00:03.0,0.000663757,-0.000835419,0.001361847,0,
00:03.0,0.000675201,-0.000823975,0.001356125,0,
00:03.0,0.000669479,-0.000835419,0.001356125,0,
00:03.0,0.000669479,-0.000858307,0.001350403,0,
00:03.0,0.000663757,-0.000852585,0.001344681,0,
00:00:03,0.000663757,-0.000812531,0.001367569,0,
00:03.0,0.000669479,-0.000789642,0.001373291,0,
00:03.0,0.000658035,-0.000818253,0.001356125,0,
00:03.0,0.000652313,-0.000829697,0.001327515,0,
00:03.0,0.000652313,-0.000829697,0.001338959,0,
00:03.0,0.000663757,-0.000829697,0.001367569,0,
00:03.0,0.000680923,-0.000829697,0.001361847,0,
00:03.0,0.000675201,-0.000841141,0.001361847,0,
00:03.0,0.000658035,-0.000852585,0.001361847,0,
00:03.0,0.000652313,-0.000829697,0.001361847,0,
00:03.0,0.000635147,-0.000818253,0.001356125,0,
00:03.0,0.000640869,-0.000835419,0.001350403,0,
00:03.0,0.000663757,-0.000846863,0.001344681,0,
00:03.1,0.000675201,-0.000841141,0.001344681,0,
00:03.1,0.000669479,-0.000835419,0.001344681,0,
00:03.1,0.000669479,-0.000835419,0.001350403,0,
00:03.1,0.000669479,-0.000835419,0.001350403,0,
00:03.1,0.000663757,-0.000858307,0.001350403,0,
00:03.1,0.000663757,-0.000846863,0.001356125,0,
00:03.1,0.000680923,-0.000812531,0.001350403,0,
00:03.1,0.000686646,-0.000806808,0.001344681,0,
00:03.1,0.000669479,-0.000818253,0.001333237,0,
00:03.1,0.000658035,-0.000835419,0.001350403,0,
00:03.1,0.000652313,-0.000846863,0.001344681,0,
00:03.1,0.000663757,-0.000823975,0.001338959,0,
00:03.1,0.000669479,-0.000841141,0.001350403,0,
00:03.1,0.000663757,-0.000846863,0.001344681,0,
00:03.1,0.000669479,-0.000818253,0.001344681,0,
00:03.1,0.000658035,-0.000829697,0.001338959,0,
00:03.1,0.000652313,-0.000835419,0.001327515,0,
00:03.1,0.000663757,-0.000835419,0.001316071,0,
00:03.1,0.000669479,-0.000846863,0.001333237,0,
00:03.1,0.000658035,-0.000835419,0.001350403,0,
00:03.1,0.000658035,-0.000835419,0.001327515,0,
00:03.1,0.000658035,-0.000852585,0.001344681,0,
00:03.1,0.000658035,-0.000835419,0.001338959,0,
00:03.1,0.000663757,-0.000835419,0.001333237,0,
00:03.1,0.000658035,-0.000852585,0.001338959,0,
00:03.2,0.000658035,-0.000835419,0.001333237,0,
00:03.2,0.000658035,-0.000823975,0.001327515,0,
00:03.2,0.000646591,-0.000835419,0.001333237,0,
00:03.2,0.000646591,-0.000846863,0.001327515,0,
00:03.2,0.000652313,-0.000841141,0.001333237,0,
00:03.2,0.000652313,-0.000835419,0.001333237,0,
00:03.2,0.000669479,-0.000823975,0.001338959,0,
00:03.2,0.000669479,-0.000829697,0.001333237,0,
00:03.2,0.000652313,-0.000846863,0.001338959,0,
00:03.2,0.000652313,-0.000835419,0.001327515,0,
00:03.2,0.000658035,-0.000841141,0.001333237,0,
00:03.2,0.000635147,-0.000852585,0.001350403,0,
00:03.2,0.000658035,-0.000858307,0.001338959,0,
00:03.2,0.000675201,-0.000841141,0.001338959,0,
00:03.2,0.000652313,-0.000841141,0.001350403,0,
00:03.2,0.000646591,-0.000841141,0.001338959,0,
00:03.2,0.000658035,-0.000823975,0.001333237,0,
00:03.2,0.000646591,-0.000852585,0.001338959,0,
00:03.2,0.000646591,-0.000846863,0.001338959,0,
00:03.2,0.000675201,-0.000818253,0.001350403,0,
00:03.2,0.000669479,-0.000829697,0.001338959,0,
00:03.2,0.000663757,-0.000846863,0.001350403,0,
00:03.2,0.000652313,-0.000858307,0.001344681,0,
00:03.2,0.000658035,-0.000869751,0.001356125,0,
00:03.2,0.000640869,-0.000881195,0.001361847,0,
00:03.3,0.000640869,-0.000858307,0.001350403,0,
00:03.3,0.000652313,-0.000835419,0.001344681,0,
00:03.3,0.000703812,-0.000818253,0.001356125,0,
00:03.3,0.000663757,-0.000841141,0.001350403,0,
00:03.3,0.000652313,-0.000881195,0.001338959,0,
00:03.3,0.000669479,-0.000875473,0.001350403,0,
00:03.3,0.000675201,-0.000835419,0.001361847,0,
00:03.3,0.000663757,-0.000841141,0.001361847,0,
00:03.3,0.000652313,-0.000858307,0.001356125,0,
00:03.3,0.000675201,-0.000875473,0.001361847,0,
00:03.3,0.000669479,-0.000881195,0.001356125,0,
00:03.3,0.000675201,-0.000858307,0.001356125,0,
00:03.3,0.000663757,-0.000829697,0.001356125,0,
00:03.3,0.000646591,-0.000841141,0.001356125,0,
00:03.3,0.000629425,-0.000858307,0.001356125,0,
00:03.3,0.000652313,-0.000875473,0.001350403,0,
00:03.3,0.000669479,-0.000898361,0.001361847,0,
00:03.3,0.000669479,-0.000869751,0.001373291,0,
00:03.3,0.000669479,-0.000823975,0.001373291,0,
00:03.3,0.000658035,-0.000846863,0.001367569,0,
00:03.3,0.000658035,-0.000869751,0.001350403,0,
00:03.3,0.000663757,-0.000886917,0.001373291,0,
00:03.3,0.000652313,-0.000881195,0.001384735,0,
00:03.3,0.000658035,-0.000846863,0.001373291,0,
00:03.3,0.000663757,-0.000846863,0.001373291,0,
00:03.4,0.000658035,-0.000846863,0.001367569,0,
00:03.4,0.000669479,-0.000858307,0.001367569,0,
00:03.4,0.000669479,-0.000869751,0.001367569,0,
00:03.4,0.000635147,-0.000869751,0.001379013,0,
00:03.4,0.000658035,-0.000852585,0.001367569,0,
00:03.4,0.000646591,-0.000852585,0.001379013,0,
00:03.4,0.000663757,-0.000858307,0.001384735,0,
00:03.4,0.000680923,-0.000841141,0.001379013,0,
00:03.4,0.000669479,-0.000823975,0.001379013,0,
00:03.4,0.000658035,-0.000858307,0.001373291,0,
00:03.4,0.000652313,-0.000881195,0.001367569,0,
00:03.4,0.000658035,-0.000875473,0.001373291,0,
00:03.4,0.000669479,-0.000852585,0.001390457,0,
00:03.4,0.000675201,-0.000835419,0.001379013,0,
00:03.4,0.000675201,-0.000846863,0.001373291,0,
00:03.4,0.000669479,-0.000852585,0.001367569,0,
00:03.4,0.000675201,-0.000852585,0.001379013,0,
00:03.4,0.000675201,-0.000869751,0.001390457,0,
00:03.4,0.000663757,-0.000886917,0.001379013,0,
00:03.4,0.000658035,-0.000892639,0.001384735,0,
00:03.4,0.000669479,-0.000875473,0.001390457,0,
00:03.4,0.000663757,-0.000841141,0.001384735,0,
00:03.4,0.000669479,-0.000846863,0.001390457,0,
00:03.4,0.000675201,-0.000875473,0.001384735,0,
00:03.4,0.000663757,-0.000892639,0.001384735,0,
00:03.5,0.000663757,-0.000881195,0.001373291,0,
00:03.5,0.000692368,-0.000841141,0.001390457,0,
00:03.5,0.000675201,-0.000852585,0.001390457,0,
00:03.5,0.000663757,-0.000886917,0.001390457,0,
00:03.5,0.000663757,-0.000898361,0.001379013,0,
00:03.5,0.000675201,-0.000881195,0.001379013,0,
00:03.5,0.000686646,-0.000864029,0.001396179,0,
00:03.5,0.000692368,-0.000846863,0.001384735,0,
00:03.5,0.000680923,-0.000841141,0.001379013,0,
00:03.5,0.000675201,-0.000858307,0.001367569,0,
00:03.5,0.000663757,-0.000886917,0.001401901,0,
00:03.5,0.000669479,-0.000886917,0.001390457,0,
00:03.5,0.000663757,-0.000892639,0.001384735,0,
00:03.5,0.000675201,-0.000881195,0.001373291,0,
00:03.5,0.000669479,-0.000869751,0.001379013,0,
00:03.5,0.000675201,-0.000852585,0.001390457,0,
00:03.5,0.000669479,-0.000864029,0.001373291,0,
00:03.5,0.000635147,-0.000886917,0.001361847,0,
00:03.5,0.000658035,-0.000909805,0.001384735,0,
00:03.5,0.000680923,-0.000898361,0.001390457,0,
00:03.5,0.000669479,-0.000881195,0.001379013,0,
00:03.5,0.000663757,-0.000892639,0.001379013,0,
00:03.5,0.000669479,-0.000892639,0.001379013,0,
00:03.5,0.000669479,-0.000898361,0.001356125,0,
00:03.5,0.000663757,-0.000921249,0.001361847,0,
00:03.6,0.000652313,-0.000932693,0.001390457,0,
00:03.6,0.000675201,-0.000898361,0.001384735,0,
00:03.6,0.000669479,-0.000875473,0.001373291,0,
00:03.6,0.000680923,-0.000864029,0.001373291,0,
00:03.6,0.000692368,-0.000881195,0.001373291,0,
00:03.6,0.000686646,-0.000909805,0.001373291,0,
00:03.6,0.000680923,-0.000932693,0.001367569,0,
00:03.6,0.000658035,-0.000938416,0.001361847,0,
00:03.6,0.000640869,-0.000921249,0.001350403,0,
00:03.6,0.000669479,-0.000898361,0.001356125,0,
00:03.6,0.000669479,-0.000904083,0.001367569,0,
00:03.6,0.000675201,-0.000892639,0.001350403,0,
00:03.6,0.000663757,-0.000909805,0.001344681,0,
00:03.6,0.000663757,-0.000915527,0.001344681,0,
00:03.6,0.000663757,-0.000926971,0.001333237,0,
00:03.6,0.000663757,-0.000932693,0.001321793,0,
00:03.6,0.000680923,-0.000904083,0.001338959,0,
00:03.6,0.000675201,-0.000921249,0.001350403,0,
00:03.6,0.000663757,-0.000944138,0.001333237,0,
00:03.6,0.000669479,-0.000944138,0.001321793,0,
00:03.6,0.000669479,-0.000915527,0.001321793,0,
00:03.6,0.000663757,-0.000921249,0.001327515,0,
00:03.6,0.000663757,-0.000921249,0.001321793,0,
00:03.6,0.000669479,-0.000932693,0.001304626,0,
00:03.6,0.000669479,-0.000938416,0.001304626,0,
00:03.7,0.000652313,-0.000955582,0.001293182,0,
00:03.7,0.000646591,-0.000961304,0.001293182,0,
00:03.7,0.000669479,-0.000932693,0.001293182,0,
00:03.7,0.000680923,-0.000921249,0.001276016,0,
00:03.7,0.000669479,-0.000926971,0.00128746,0,
00:03.7,0.000658035,-0.000944138,0.001281738,0,
00:03.7,0.000663757,-0.000961304,0.001264572,0,
00:03.7,0.000652313,-0.000961304,0.00125885,0,
00:03.7,0.000640869,-0.000961304,0.001253128,0,
00:03.7,0.000658035,-0.000955582,0.00125885,0,
00:03.7,0.000675201,-0.000932693,0.00125885,0,
00:03.7,0.000680923,-0.000938416,0.00125885,0,
00:03.7,0.000680923,-0.000967026,0.001241684,0,
00:03.7,0.000669479,-0.000989914,0.001224518,0,
00:03.7,0.000658035,-0.000984192,0.001218796,0,
00:03.7,0.000663757,-0.00094986,0.001218796,0,
00:03.7,0.000663757,-0.000967026,0.001224518,0,
00:03.7,0.000658035,-0.000972748,0.00120163,0,
00:03.7,0.000663757,-0.000961304,0.00120163,0,
00:03.7,0.000669479,-0.000972748,0.001207352,0,
00:03.7,0.000646591,-0.000995636,0.00120163,0,
00:03.7,0.000652313,-0.001001358,0.001184464,0,
00:03.7,0.000658035,-0.001012802,0.001173019,0,
00:03.7,0.000646591,-0.001001358,0.001161575,0,
00:03.7,0.000658035,-0.000967026,0.001161575,0,
00:03.8,0.000663757,-0.000972748,0.001161575,0,
00:03.8,0.000675201,-0.000995636,0.001138687,0,
00:03.8,0.000663757,-0.000995636,0.001138687,0,
00:03.8,0.000669479,-0.000984192,0.001132965,0,
00:03.8,0.000669479,-0.000989914,0.001121521,0,
00:03.8,0.000663757,-0.000984192,0.001110077,0,
00:03.8,0.000663757,-0.000995636,0.001104355,0,
00:03.8,0.000663757,-0.001018524,0.001104355,0,
00:03.8,0.000669479,-0.001001358,0.001092911,0,
00:03.8,0.000658035,-0.001012802,0.001087189,0,
00:03.8,0.000640869,-0.001024246,0.001064301,0,
00:03.8,0.000675201,-0.001001358,0.001064301,0,
00:03.8,0.000680923,-0.000995636,0.001052856,0,
00:03.8,0.000675201,-0.001001358,0.001052856,0,
00:03.8,0.000663757,-0.001041412,0.001041412,0,
00:03.8,0.000663757,-0.001058578,0.001024246,0,
00:03.8,0.000663757,-0.00103569,0.001001358,0,
00:03.8,0.000669479,-0.00100708,0.001001358,0,
00:03.8,0.000658035,-0.001001358,0.00100708,0,
00:03.8,0.000646591,-0.001018524,0.000984192,0,
00:03.8,0.000658035,-0.001058578,0.000955582,0,
00:03.8,0.000686646,-0.001064301,0.000972748,0,
00:03.8,0.000686646,-0.001018524,0.000955582,0,
00:03.8,0.000686646,-0.001012802,0.000938416,0,
00:03.8,0.000675201,-0.001018524,0.000926971,0,
00:03.9,0.000680923,-0.001012802,0.000921249,0,
00:03.9,0.000669479,-0.001024246,0.000915527,0,
00:03.9,0.000658035,-0.001041412,0.000892639,0,
00:03.9,0.000680923,-0.001041412,0.000886917,0,
00:03.9,0.000680923,-0.001029968,0.000875473,0,
00:03.9,0.000686646,-0.001041412,0.000869751,0,
00:03.9,0.000680923,-0.001064301,0.000852585,0,
00:03.9,0.000675201,-0.001070023,0.000835419,0,
00:03.9,0.000675201,-0.001047134,0.000823975,0,
00:03.9,0.000675201,-0.001047134,0.000823975,0,
00:03.9,0.000675201,-0.001064301,0.000795364,0,
00:03.9,0.000658035,-0.001075745,0.000795364,0,
00:03.9,0.000635147,-0.001075745,0.00078392,0,
00:03.9,0.000658035,-0.001064301,0.000761032,0,
00:03.9,0.000675201,-0.001070023,0.000766754,0,
00:03.9,0.000669479,-0.001092911,0.000761032,0,
00:03.9,0.000663757,-0.001098633,0.000738144,0,
00:03.9,0.000669479,-0.001098633,0.000715256,0,
00:03.9,0.000686646,-0.001064301,0.000715256,0,
00:03.9,0.000675201,-0.001041412,0.000709534,0,
00:03.9,0.000686646,-0.001058578,0.000692368,0,
00:03.9,0.000692368,-0.001058578,0.000686646,0,
00:03.9,0.000675201,-0.001058578,0.000669479,0,
00:03.9,0.000669479,-0.001070023,0.000652313,0,
00:03.9,0.000669479,-0.001087189,0.000640869,0,
00:04.0,0.000663757,-0.001104355,0.000612259,0,
00:04.0,0.000675201,-0.001104355,0.000617981,0,
00:04.0,0.000669479,-0.001098633,0.000600815,0,
00:04.0,0.000658035,-0.001087189,0.000595093,0,
00:04.0,0.000658035,-0.001087189,0.000583649,0,
00:04.0,0.000680923,-0.001092911,0.000555038,0,
00:04.0,0.000675201,-0.001092911,0.000549316,0,
00:04.0,0.000658035,-0.001104355,0.000537872,0,
00:04.0,0.000646591,-0.001144409,0.00053215,0,
00:04.0,0.000646591,-0.001167297,0.000509262,0,
00:04.0,0.000663757,-0.001110077,0.000492096,0,
00:04.0,0.000669479,-0.001070023,0.000497818,0,
00:00:04,0.000669479,-0.001081467,0.000486374,0,
00:04.0,0.000663757,-0.001081467,0.000469208,0,
00:04.0,0.000658035,-0.001092911,0.000452042,0,
00:04.0,0.000663757,-0.001104355,0.000434875,0,
00:04.0,0.000663757,-0.001115799,0.000411987,0,
00:04.0,0.000652313,-0.001115799,0.000411987,0,
00:04.0,0.000646591,-0.001121521,0.000389099,0,
00:04.0,0.000640869,-0.001127243,0.000377655,0,
00:04.0,0.000640869,-0.001127243,0.000371933,0,
00:04.0,0.000646591,-0.001132965,0.000366211,0,
00:04.0,0.000663757,-0.001121521,0.000343323,0,
00:04.0,0.000669479,-0.001115799,0.000326157,0,
00:04.0,0.000658035,-0.001121521,0.000326157,0,
00:04.1,0.000658035,-0.001144409,0.000297546,0,
00:04.1,0.000646591,-0.001155853,0.000274658,0,
00:04.1,0.000652313,-0.001155853,0.000263214,0,
00:04.1,0.000646591,-0.001138687,0.000257492,0,
00:04.1,0.000635147,-0.001127243,0.000234604,0,
00:04.1,0.000635147,-0.001121521,0.00022316,0,
00:04.1,0.000658035,-0.001098633,0.000217438,0,
00:04.1,0.000663757,-0.001104355,0.000205994,0,
00:04.1,0.000646591,-0.001132965,0.000183105,0,
00:04.1,0.000629425,-0.001155853,0.000160217,0,
00:04.1,0.000635147,-0.001144409,0.000160217,0,
00:04.1,0.000652313,-0.001132965,0.000143051,0,
00:04.1,0.000652313,-0.001144409,0.000131607,0,
00:04.1,0.000652313,-0.001138687,0.000120163,0,
00:04.1,0.000646591,-0.001132965,0.000108719,0,
00:04.1,0.000646591,-0.001144409,9.16E-05,0,
00:04.1,0.000646591,-0.001155853,7.44E-05,0,
00:04.1,0.000640869,-0.001167297,5.72E-05,0,
00:04.1,0.000652313,-0.001161575,3.43E-05,0,
00:04.1,0.000646591,-0.001167297,2.86E-05,0,
00:04.1,0.000646591,-0.001167297,1.14E-05,0,
00:04.1,0.000646591,-0.001161575,-5.72E-06,0,
00:04.1,0.000640869,-0.001138687,-1.72E-05,0,
00:04.1,0.000635147,-0.001161575,-2.29E-05,0,
00:04.1,0.000640869,-0.001173019,-6.29E-05,0,
00:04.2,0.000640869,-0.001144409,-9.16E-05,0,
00:04.2,0.000635147,-0.001138687,-5.72E-05,0,
00:04.2,0.000629425,-0.001161575,-7.44E-05,0,
00:04.2,0.000640869,-0.001184464,-8.01E-05,0,
00:04.2,0.000640869,-0.001178741,-9.73E-05,0,
00:04.2,0.000635147,-0.001167297,-0.000125885,0,
00:04.2,0.000652313,-0.001155853,-0.000137329,0,
00:04.2,0.000640869,-0.001155853,-0.000148773,0,
00:04.2,0.000635147,-0.001178741,-0.000160217,0,
00:04.2,0.000629425,-0.001184464,-0.000183105,0,
00:04.2,0.000623703,-0.001190186,-0.000188828,0,
00:04.2,0.000635147,-0.001195908,-0.000200272,0,
00:04.2,0.000623703,-0.001213074,-0.000217438,0,
00:04.2,0.000629425,-0.001184464,-0.000234604,0,
00:04.2,0.000652313,-0.001155853,-0.000240326,0,
00:04.2,0.000646591,-0.001184464,-0.000263214,0,
00:04.2,0.000623703,-0.001207352,-0.000268936,0,
00:04.2,0.000623703,-0.001184464,-0.00028038,0,
00:04.2,0.000623703,-0.001173019,-0.000297546,0,
00:04.2,0.000612259,-0.001173019,-0.000314713,0,
00:04.2,0.000612259,-0.001190186,-0.000320435,0,
00:04.2,0.000600815,-0.001218796,-0.000331879,0,
00:04.2,0.000595093,-0.001224518,-0.000354767,0,
00:04.2,0.000617981,-0.001218796,-0.000377655,0,
00:04.2,0.000617981,-0.001213074,-0.000371933,0,
00:04.3,0.000623703,-0.001190186,-0.000400543,0,
00:04.3,0.000623703,-0.001173019,-0.000394821,0,
00:04.3,0.000606537,-0.001178741,-0.000406265,0,
00:04.3,0.000617981,-0.001184464,-0.000429153,0,
00:04.3,0.000623703,-0.001190186,-0.00044632,0,
00:04.3,0.000612259,-0.001207352,-0.000463486,0,
00:04.3,0.000600815,-0.001218796,-0.000469208,0,
00:04.3,0.000600815,-0.001241684,-0.000492096,0,
00:04.3,0.000595093,-0.001247406,-0.000514984,0,
00:04.3,0.000606537,-0.001184464,-0.000509262,0,
00:04.3,0.000612259,-0.001155853,-0.000514984,0,
00:04.3,0.000600815,-0.001184464,-0.000526428,0,
00:04.3,0.000595093,-0.001218796,-0.000543594,0,
00:04.3,0.000583649,-0.00123024,-0.00056076,0,
00:04.3,0.000583649,-0.001213074,-0.000555038,0,
00:04.3,0.000595093,-0.001213074,-0.000577927,0,
00:04.3,0.000606537,-0.001224518,-0.000589371,0,
00:04.3,0.000600815,-0.001224518,-0.000600815,0,
00:04.3,0.000595093,-0.001224518,-0.000606537,0,
00:04.3,0.000583649,-0.001235962,-0.000606537,0,
00:04.3,0.000589371,-0.00123024,-0.000629425,0,
00:04.3,0.000595093,-0.00123024,-0.000652313,0,
00:04.3,0.000589371,-0.001218796,-0.000658035,0,
00:04.3,0.000572205,-0.001213074,-0.000663757,0,
00:04.3,0.000595093,-0.001218796,-0.000686646,0,
00:04.4,0.000600815,-0.001218796,-0.000692368,0,
00:04.4,0.000589371,-0.001224518,-0.00069809,0,
00:04.4,0.000572205,-0.001247406,-0.000692368,0,
00:04.4,0.000583649,-0.001270294,-0.000720978,0,
00:04.4,0.000595093,-0.001218796,-0.000732422,0,
00:04.4,0.000595093,-0.001195908,-0.000743866,0,
00:04.4,0.000583649,-0.001224518,-0.00075531,0,
00:04.4,0.000577927,-0.001235962,-0.000761032,0,
00:04.4,0.000566483,-0.001241684,-0.000778198,0,
00:04.4,0.000589371,-0.001235962,-0.000795364,0,
00:04.4,0.000595093,-0.001213074,-0.000795364,0,
00:04.4,0.000583649,-0.001224518,-0.000795364,0,
00:04.4,0.000589371,-0.001235962,-0.000812531,0,
00:04.4,0.000589371,-0.001235962,-0.000835419,0,
00:04.4,0.000572205,-0.001241684,-0.000823975,0,
00:04.4,0.000549316,-0.001264572,-0.000835419,0,
00:04.4,0.00056076,-0.001264572,-0.000846863,0,
00:04.4,0.000577927,-0.001235962,-0.000875473,0,
00:04.4,0.000572205,-0.001224518,-0.000881195,0,
00:04.4,0.000555038,-0.001224518,-0.000881195,0,
00:04.4,0.000566483,-0.00123024,-0.000892639,0,
00:04.4,0.000572205,-0.001241684,-0.000898361,0,
00:04.4,0.00056076,-0.001264572,-0.000909805,0,
00:04.4,0.000555038,-0.001310349,-0.000921249,0,
00:04.4,0.000566483,-0.001270294,-0.000926971,0,
00:04.5,0.000577927,-0.001190186,-0.000938416,0,
00:04.5,0.000577927,-0.00120163,-0.00094986,0,
00:04.5,0.00056076,-0.00123024,-0.000972748,0,
00:04.5,0.000572205,-0.001253128,-0.000972748,0,
00:04.5,0.000566483,-0.001241684,-0.000972748,0,
00:04.5,0.000566483,-0.001241684,-0.000984192,0,
00:04.5,0.000555038,-0.001276016,-0.001001358,0,
00:04.5,0.000549316,-0.00125885,-0.000995636,0,
00:04.5,0.000549316,-0.001235962,-0.001012802,0,
00:04.5,0.000549316,-0.001247406,-0.00103569,0,
00:04.5,0.000549316,-0.001270294,-0.001018524,0,
00:04.5,0.000543594,-0.001276016,-0.001024246,0,
00:04.5,0.000537872,-0.001264572,-0.001029968,0,
00:04.5,0.000543594,-0.001247406,-0.001047134,0,
00:04.5,0.000566483,-0.001241684,-0.001058578,0,
00:04.5,0.000549316,-0.001270294,-0.001064301,0,
00:04.5,0.000526428,-0.001310349,-0.001081467,0,
00:04.5,0.000537872,-0.001270294,-0.001081467,0,
00:04.5,0.000543594,-0.001213074,-0.001098633,0,
00:04.5,0.00053215,-0.001224518,-0.001098633,0,
00:04.5,0.000549316,-0.00123024,-0.001110077,0,
00:04.5,0.000549316,-0.001235962,-0.001115799,0,
00:04.5,0.000549316,-0.001247406,-0.001127243,0,
00:04.5,0.000549316,-0.00125885,-0.001121521,0,
00:04.5,0.000543594,-0.001270294,-0.001127243,0,
00:04.6,0.000549316,-0.001264572,-0.001138687,0,
00:04.6,0.000537872,-0.001253128,-0.001155853,0,
00:04.6,0.000526428,-0.001241684,-0.001138687,0,
00:04.6,0.00053215,-0.001253128,-0.001155853,0,
00:04.6,0.00053215,-0.001270294,-0.001161575,0,
00:04.6,0.000520706,-0.001293182,-0.001161575,0,
00:04.6,0.000520706,-0.00128746,-0.001173019,0,
00:04.6,0.00053215,-0.001264572,-0.001178741,0,
00:04.6,0.000537872,-0.001264572,-0.001173019,0,
00:04.6,0.000526428,-0.00128746,-0.001184464,0,
00:04.6,0.000526428,-0.001310349,-0.001195908,0,
00:04.6,0.000526428,-0.001270294,-0.001195908,0,
00:04.6,0.000520706,-0.001235962,-0.001195908,0,
00:04.6,0.000520706,-0.001253128,-0.001207352,0,
00:04.6,0.000509262,-0.001264572,-0.001224518,0,
00:04.6,0.000514984,-0.001281738,-0.001224518,0,
00:04.6,0.000526428,-0.001276016,-0.00123024,0,
00:04.6,0.000526428,-0.001253128,-0.00123024,0,
00:04.6,0.000509262,-0.00125885,-0.001235962,0,
00:04.6,0.000509262,-0.001281738,-0.001253128,0,
00:04.6,0.000514984,-0.001293182,-0.00125885,0,
00:04.6,0.000509262,-0.001304626,-0.00125885,0,
00:04.6,0.000514984,-0.001276016,-0.00125885,0,
00:04.6,0.000514984,-0.00125885,-0.001270294,0,
00:04.6,0.000514984,-0.00128746,-0.001276016,0,
00:04.7,0.00050354,-0.001316071,-0.001276016,0,
00:04.7,0.00050354,-0.001333237,-0.00128746,0,
00:04.7,0.000509262,-0.001316071,-0.00128746,0,
00:04.7,0.000509262,-0.00125885,-0.00128746,0,
00:04.7,0.000509262,-0.001241684,-0.00128746,0,
00:04.7,0.000509262,-0.001276016,-0.001304626,0,
00:04.7,0.000514984,-0.001298904,-0.001316071,0,
00:04.7,0.000497818,-0.001281738,-0.001316071,0,
00:04.7,0.000480652,-0.00128746,-0.001298904,0,
00:04.7,0.00050354,-0.001293182,-0.001316071,0,
00:04.7,0.000514984,-0.001276016,-0.001321793,0,
00:04.7,0.00050354,-0.001276016,-0.001321793,0,
00:04.7,0.000497818,-0.00128746,-0.001338959,0,
00:04.7,0.000486374,-0.001298904,-0.001333237,0,
00:04.7,0.000486374,-0.001298904,-0.001338959,0,
00:04.7,0.000509262,-0.001281738,-0.001338959,0,
00:04.7,0.000509262,-0.001276016,-0.001333237,0,
00:04.7,0.000486374,-0.001310349,-0.001350403,0,
00:04.7,0.000486374,-0.001350403,-0.001350403,0,
00:04.7,0.000480652,-0.001350403,-0.001344681,0,
00:04.7,0.000497818,-0.001253128,-0.001350403,0,
00:04.7,0.000509262,-0.00123024,-0.001356125,0,
00:04.7,0.000497818,-0.001276016,-0.001367569,0,
00:04.7,0.000492096,-0.001298904,-0.001379013,0,
00:04.7,0.000480652,-0.001310349,-0.001350403,0,
00:04.8,0.000469208,-0.001310349,-0.001350403,0,
00:04.8,0.00047493,-0.001310349,-0.001373291,0,
00:04.8,0.000480652,-0.00128746,-0.001373291,0,
00:04.8,0.000469208,-0.001281738,-0.001379013,0,
00:04.8,0.000486374,-0.001298904,-0.001384735,0,
00:04.8,0.000480652,-0.001310349,-0.001373291,0,
00:04.8,0.000497818,-0.001298904,-0.001390457,0,
00:04.8,0.000486374,-0.00128746,-0.001384735,0,
00:04.8,0.000463486,-0.001304626,-0.001384735,0,
00:04.8,0.000463486,-0.001321793,-0.001384735,0,
00:04.8,0.00047493,-0.001338959,-0.001384735,0,
00:04.8,0.00047493,-0.001333237,-0.001379013,0,
00:04.8,0.000480652,-0.001276016,-0.001396179,0,
00:04.8,0.000492096,-0.001276016,-0.001396179,0,
00:04.8,0.000480652,-0.001304626,-0.001390457,0,
00:04.8,0.000469208,-0.001321793,-0.001401901,0,
00:04.8,0.000457764,-0.001338959,-0.001390457,0,
00:04.8,0.00047493,-0.001327515,-0.001396179,0,
00:04.8,0.000480652,-0.001298904,-0.001401901,0,
00:04.8,0.000480652,-0.001304626,-0.001401901,0,
00:04.8,0.000463486,-0.001321793,-0.001413345,0,
00:04.8,0.000457764,-0.001316071,-0.001401901,0,
00:04.8,0.00047493,-0.001293182,-0.001401901,0,
00:04.8,0.000469208,-0.001298904,-0.001407623,0,
00:04.8,0.000463486,-0.001304626,-0.001407623,0,
00:04.9,0.000463486,-0.001310349,-0.001396179,0,
00:04.9,0.000469208,-0.001321793,-0.001413345,0,
00:04.9,0.00044632,-0.001338959,-0.001419067,0,
00:04.9,0.00044632,-0.001333237,-0.001436234,0,
00:04.9,0.000457764,-0.001321793,-0.001401901,0,
00:04.9,0.000452042,-0.001316071,-0.001401901,0,
00:04.9,0.000457764,-0.001310349,-0.001413345,0,
00:04.9,0.000440598,-0.001310349,-0.001430511,0,
00:04.9,0.00044632,-0.001321793,-0.001413345,0,
00:04.9,0.00044632,-0.001333237,-0.001413345,0,
00:04.9,0.00044632,-0.001327515,-0.001430511,0,
00:04.9,0.00044632,-0.001321793,-0.001413345,0,
00:04.9,0.00044632,-0.001304626,-0.001413345,0,
00:04.9,0.000440598,-0.001298904,-0.001413345,0,
00:04.9,0.000434875,-0.001310349,-0.001419067,0,
00:04.9,0.00044632,-0.001304626,-0.001407623,0,
00:04.9,0.00044632,-0.001321793,-0.001407623,0,
00:04.9,0.000423431,-0.001344681,-0.001419067,0,
00:04.9,0.000417709,-0.001367569,-0.001419067,0,
00:04.9,0.000429153,-0.001350403,-0.001419067,0,
00:04.9,0.000440598,-0.001298904,-0.001424789,0,
00:04.9,0.000452042,-0.001281738,-0.001419067,0,
00:04.9,0.000440598,-0.001316071,-0.001419067,0,
00:04.9,0.000429153,-0.001321793,-0.001407623,0,
00:04.9,0.000417709,-0.001333237,-0.001407623,0,
00:05.0,0.000423431,-0.001327515,-0.001407623,0,
00:05.0,0.000429153,-0.001333237,-0.001407623,0,
00:05.0,0.000434875,-0.001338959,-0.001407623,0,
00:05.0,0.000423431,-0.001350403,-0.001413345,0,
00:05.0,0.000429153,-0.001321793,-0.001407623,0,
00:05.0,0.000434875,-0.001316071,-0.001401901,0,
00:05.0,0.000423431,-0.001327515,-0.001401901,0,
00:05.0,0.000429153,-0.001310349,-0.001413345,0,
00:05.0,0.000423431,-0.001298904,-0.001407623,0,
00:05.0,0.000417709,-0.001316071,-0.001401901,0,
00:05.0,0.000417709,-0.001321793,-0.001401901,0,
00:05.0,0.000423431,-0.001321793,-0.001396179,0,
00:00:05,0.000411987,-0.001327515,-0.001396179,0,
00:05.0,0.000406265,-0.001344681,-0.001396179,0,
00:05.0,0.000406265,-0.001367569,-0.001401901,0,
00:05.0,0.000417709,-0.001310349,-0.001396179,0,
00:05.0,0.000423431,-0.00128746,-0.001390457,0,
00:05.0,0.000423431,-0.001304626,-0.001390457,0,
00:05.0,0.000411987,-0.001321793,-0.001379013,0,
00:05.0,0.000417709,-0.001327515,-0.001390457,0,
00:05.0,0.000417709,-0.001327515,-0.001373291,0,
00:05.0,0.000417709,-0.001344681,-0.001384735,0,
00:05.0,0.000400543,-0.001361847,-0.001379013,0,
00:05.0,0.000406265,-0.001356125,-0.001367569,0,
00:05.0,0.000417709,-0.001333237,-0.001367569,0,
00:05.1,0.000423431,-0.001316071,-0.001373291,0,
00:05.1,0.000417709,-0.001310349,-0.001373291,0,
00:05.1,0.000411987,-0.001327515,-0.001356125,0,
00:05.1,0.000406265,-0.001344681,-0.001361847,0,
00:05.1,0.000400543,-0.001344681,-0.001367569,0,
00:05.1,0.000406265,-0.001327515,-0.001356125,0,
00:05.1,0.000406265,-0.001350403,-0.001361847,0,
00:05.1,0.000400543,-0.001344681,-0.001350403,0,
00:05.1,0.000400543,-0.001310349,-0.001350403,0,
00:05.1,0.000406265,-0.001310349,-0.001350403,0,
00:05.1,0.000406265,-0.001327515,-0.001356125,0,
00:05.1,0.000389099,-0.001327515,-0.001344681,0,
00:05.1,0.000406265,-0.001327515,-0.001356125,0,
00:05.1,0.000394821,-0.001338959,-0.001344681,0,
00:05.1,0.000383377,-0.001356125,-0.001333237,0,
00:05.1,0.000400543,-0.001367569,-0.001316071,0,
00:05.1,0.000400543,-0.001338959,-0.001321793,0,
00:05.1,0.000394821,-0.001316071,-0.001321793,0,
00:05.1,0.000394821,-0.001310349,-0.001321793,0,
00:05.1,0.000394821,-0.001316071,-0.001321793,0,
00:05.1,0.000389099,-0.001321793,-0.001304626,0,
00:05.1,0.000371933,-0.001350403,-0.001310349,0,
00:05.1,0.000371933,-0.001344681,-0.001316071,0,
00:05.1,0.000383377,-0.001338959,-0.001310349,0,
00:05.1,0.000394821,-0.001333237,-0.001298904,0,
00:05.2,0.000400543,-0.001321793,-0.00128746,0,
00:05.2,0.000400543,-0.001327515,-0.001293182,0,
00:05.2,0.000389099,-0.001327515,-0.001293182,0,
00:05.2,0.000366211,-0.001338959,-0.001281738,0,
00:05.2,0.000371933,-0.001344681,-0.001276016,0,
00:05.2,0.000377655,-0.001344681,-0.001270294,0,
00:05.2,0.000383377,-0.001338959,-0.001276016,0,
00:05.2,0.000383377,-0.001338959,-0.00125885,0,
00:05.2,0.000377655,-0.001350403,-0.001253128,0,
00:05.2,0.000366211,-0.001356125,-0.001253128,0,
00:05.2,0.000360489,-0.001361847,-0.001253128,0,
00:05.2,0.000354767,-0.001367569,-0.001241684,0,
00:05.2,0.000377655,-0.001356125,-0.001235962,0,
00:05.2,0.000377655,-0.001344681,-0.001235962,0,
00:05.2,0.000377655,-0.001338959,-0.001235962,0,
00:05.2,0.000371933,-0.001310349,-0.001224518,0,
00:05.2,0.000371933,-0.001350403,-0.001224518,0,
00:05.2,0.000377655,-0.001373291,-0.001218796,0,
00:05.2,0.000371933,-0.001350403,-0.001213074,0,
00:05.2,0.000377655,-0.001333237,-0.001213074,0,
00:05.2,0.000377655,-0.001327515,-0.001207352,0,
00:05.2,0.000366211,-0.001333237,-0.00120163,0,
00:05.2,0.000383377,-0.001333237,-0.001190186,0,
00:05.2,0.000394821,-0.001338959,-0.001195908,0,
00:05.2,0.000377655,-0.001356125,-0.001190186,0,
00:05.3,0.000377655,-0.001356125,-0.001167297,0,
00:05.3,0.000383377,-0.001344681,-0.001167297,0,
00:05.3,0.000371933,-0.001350403,-0.001167297,0,
00:05.3,0.000377655,-0.001356125,-0.001161575,0,
00:05.3,0.000377655,-0.001350403,-0.001161575,0,
00:05.3,0.000389099,-0.001327515,-0.001138687,0,
00:05.3,0.000377655,-0.001333237,-0.001144409,0,
00:05.3,0.000354767,-0.001356125,-0.001150131,0,
00:05.3,0.000343323,-0.001390457,-0.001144409,0,
00:05.3,0.000383377,-0.001390457,-0.001121521,0,
00:05.3,0.000400543,-0.001310349,-0.001127243,0,
00:05.3,0.000383377,-0.001293182,-0.001121521,0,
00:05.3,0.000377655,-0.001316071,-0.001121521,0,
00:05.3,0.000371933,-0.001327515,-0.001127243,0,
00:05.3,0.000383377,-0.001327515,-0.001087189,0,
00:05.3,0.000383377,-0.001310349,-0.001081467,0,
00:05.3,0.000366211,-0.001316071,-0.001087189,0,
00:05.3,0.000383377,-0.001321793,-0.001087189,0,
00:05.3,0.000383377,-0.001327515,-0.001075745,0,
00:05.3,0.000371933,-0.001333237,-0.001087189,0,
00:05.3,0.000360489,-0.001338959,-0.001087189,0,
00:05.3,0.000360489,-0.001350403,-0.001070023,0,
00:05.3,0.000366211,-0.001350403,-0.001070023,0,
00:05.3,0.000377655,-0.001344681,-0.001064301,0,
00:05.3,0.000383377,-0.001310349,-0.001047134,0,
00:05.4,0.000377655,-0.001310349,-0.001041412,0,
00:05.4,0.000371933,-0.001327515,-0.001052856,0,
00:05.4,0.000366211,-0.001344681,-0.001047134,0,
00:05.4,0.000354767,-0.001361847,-0.001029968,0,
00:05.4,0.000366211,-0.001361847,-0.001041412,0,
00:05.4,0.000377655,-0.001327515,-0.001029968,0,
00:05.4,0.000389099,-0.001293182,-0.001018524,0,
00:05.4,0.000383377,-0.001298904,-0.00100708,0,
00:05.4,0.000383377,-0.001316071,-0.001001358,0,
00:05.4,0.000394821,-0.001304626,-0.000995636,0,
00:05.4,0.000400543,-0.001310349,-0.000995636,0,
00:05.4,0.000383377,-0.001327515,-0.000995636,0,
00:05.4,0.000377655,-0.001333237,-0.000984192,0,
00:05.4,0.000377655,-0.001338959,-0.00097847,0,
00:05.4,0.000366211,-0.001344681,-0.00097847,0,
00:05.4,0.000360489,-0.001333237,-0.000989914,0,
00:05.4,0.000377655,-0.001316071,-0.000961304,0,
00:05.4,0.000377655,-0.001321793,-0.000955582,0,
00:05.4,0.000366211,-0.001338959,-0.000955582,0,
00:05.4,0.000371933,-0.001333237,-0.000961304,0,
00:05.4,0.000377655,-0.001316071,-0.00094986,0,
00:05.4,0.000377655,-0.001327515,-0.000932693,0,
00:05.4,0.000349045,-0.001338959,-0.000926971,0,
00:05.4,0.000331879,-0.001356125,-0.000921249,0,
00:05.4,0.000366211,-0.001367569,-0.000921249,0,
00:05.5,0.000383377,-0.001333237,-0.000926971,0,
00:05.5,0.000383377,-0.001304626,-0.000915527,0,
00:05.5,0.000383377,-0.001310349,-0.000921249,0,
00:05.5,0.000377655,-0.001293182,-0.000898361,0,
00:05.5,0.000383377,-0.001298904,-0.000898361,0,
00:05.5,0.000389099,-0.001310349,-0.000886917,0,
00:05.5,0.000377655,-0.001321793,-0.000886917,0,
00:05.5,0.000366211,-0.001327515,-0.000881195,0,
00:05.5,0.000377655,-0.001333237,-0.000886917,0,
00:05.5,0.000377655,-0.001316071,-0.000869751,0,
00:05.5,0.000389099,-0.001316071,-0.000869751,0,
00:05.5,0.000377655,-0.001333237,-0.000846863,0,
00:05.5,0.000371933,-0.001327515,-0.000846863,0,
00:05.5,0.000377655,-0.001316071,-0.000835419,0,
00:05.5,0.000377655,-0.001338959,-0.000829697,0,
00:05.5,0.000371933,-0.001373291,-0.000835419,0,
00:05.5,0.000377655,-0.001338959,-0.000829697,0,
00:05.5,0.000383377,-0.001281738,-0.000823975,0,
00:05.5,0.000371933,-0.001281738,-0.000812531,0,
00:05.5,0.000377655,-0.001304626,-0.000806808,0,
00:05.5,0.000377655,-0.001327515,-0.000795364,0,
00:05.5,0.000377655,-0.001321793,-0.000801086,0,
00:05.5,0.000383377,-0.001310349,-0.000795364,0,
00:05.5,0.000377655,-0.001327515,-0.000789642,0,
00:05.5,0.000371933,-0.001338959,-0.00078392,0,
00:05.6,0.000371933,-0.001316071,-0.000778198,0,
00:05.6,0.000371933,-0.001316071,-0.000766754,0,
00:05.6,0.000383377,-0.001316071,-0.000772476,0,
00:05.6,0.000389099,-0.001316071,-0.000766754,0,
00:05.6,0.000377655,-0.001310349,-0.000761032,0,
00:05.6,0.000360489,-0.001321793,-0.00075531,0,
00:05.6,0.000377655,-0.001321793,-0.000749588,0,
00:05.6,0.000389099,-0.001304626,-0.000743866,0,
00:05.6,0.000383377,-0.001298904,-0.000738144,0,
00:05.6,0.000377655,-0.001316071,-0.000732422,0,
00:05.6,0.000371933,-0.001356125,-0.0007267,0,
00:05.6,0.000371933,-0.001379013,-0.000720978,0,
00:05.6,0.000383377,-0.001321793,-0.000703812,0,
00:05.6,0.000394821,-0.001264572,-0.000709534,0,
00:05.6,0.000389099,-0.001281738,-0.000703812,0,
00:05.6,0.000383377,-0.001316071,-0.000709534,0,
00:05.6,0.000371933,-0.001327515,-0.00069809,0,
00:05.6,0.000366211,-0.001316071,-0.000692368,0,
00:05.6,0.000383377,-0.001310349,-0.000686646,0,
00:05.6,0.000389099,-0.001327515,-0.000686646,0,
00:05.6,0.000383377,-0.001333237,-0.000669479,0,
00:05.6,0.000377655,-0.00128746,-0.000675201,0,
00:05.6,0.000377655,-0.00128746,-0.000663757,0,
00:05.6,0.000371933,-0.001304626,-0.000646591,0,
00:05.6,0.000377655,-0.001293182,-0.000652313,0,
00:05.7,0.000400543,-0.001276016,-0.000652313,0,
00:05.7,0.000383377,-0.00128746,-0.000646591,0,
00:05.7,0.000371933,-0.001293182,-0.000623703,0,
00:05.7,0.000371933,-0.001316071,-0.000635147,0,
00:05.7,0.000371933,-0.001350403,-0.000635147,0,
00:05.7,0.000371933,-0.001338959,-0.000629425,0,
00:05.7,0.000377655,-0.00128746,-0.000635147,0,
00:05.7,0.000377655,-0.001281738,-0.000623703,0,
00:05.7,0.000383377,-0.00128746,-0.000595093,0,
00:05.7,0.000383377,-0.001293182,-0.000595093,0,
00:05.7,0.000377655,-0.001293182,-0.000595093,0,
00:05.7,0.000377655,-0.00128746,-0.000577927,0,
00:05.7,0.000371933,-0.001304626,-0.000577927,0,
00:05.7,0.000343323,-0.001321793,-0.000589371,0,
00:05.7,0.000360489,-0.001310349,-0.000572205,0,
00:05.7,0.000371933,-0.001281738,-0.00056076,0,
00:05.7,0.000377655,-0.001276016,-0.00056076,0,
00:05.7,0.000366211,-0.001293182,-0.000555038,0,
00:05.7,0.000366211,-0.001304626,-0.000555038,0,
00:05.7,0.000371933,-0.001304626,-0.000537872,0,
00:05.7,0.000383377,-0.00128746,-0.000543594,0,
00:05.7,0.000377655,-0.001281738,-0.000549316,0,
00:05.7,0.000354767,-0.001316071,-0.000537872,0,
00:05.7,0.000354767,-0.001344681,-0.000543594,0,
00:05.7,0.000371933,-0.001304626,-0.000526428,0,
00:05.8,0.000383377,-0.00128746,-0.000514984,0,
00:05.8,0.000371933,-0.001293182,-0.000526428,0,
00:05.8,0.000360489,-0.001298904,-0.000526428,0,
00:05.8,0.000354767,-0.001310349,-0.000514984,0,
00:05.8,0.000360489,-0.001304626,-0.00050354,0,
00:05.8,0.000366211,-0.001264572,-0.000497818,0,
00:05.8,0.000377655,-0.001253128,-0.000497818,0,
00:05.8,0.000360489,-0.001293182,-0.00050354,0,
00:05.8,0.000354767,-0.001298904,-0.000480652,0,
00:05.8,0.000354767,-0.001304626,-0.000486374,0,
00:05.8,0.000360489,-0.001310349,-0.000463486,0,
00:05.8,0.000371933,-0.001276016,-0.00047493,0,
00:05.8,0.000371933,-0.001270294,-0.00047493,0,
00:05.8,0.000349045,-0.001304626,-0.000452042,0,
00:05.8,0.000354767,-0.001293182,-0.000457764,0,
00:05.8,0.000366211,-0.001276016,-0.000457764,0,
00:05.8,0.000354767,-0.001293182,-0.000452042,0,
00:05.8,0.000343323,-0.001304626,-0.000452042,0,
00:05.8,0.000331879,-0.001304626,-0.000452042,0,
00:05.8,0.000349045,-0.001298904,-0.00044632,0,
00:05.8,0.000366211,-0.001281738,-0.000440598,0,
00:05.8,0.000360489,-0.001276016,-0.000440598,0,
00:05.8,0.000360489,-0.001276016,-0.000434875,0,
00:05.8,0.000360489,-0.001293182,-0.00044632,0,
00:05.8,0.000354767,-0.001310349,-0.000440598,0,
00:05.9,0.000337601,-0.001321793,-0.000434875,0,
00:05.9,0.000354767,-0.001304626,-0.000411987,0,
00:05.9,0.000371933,-0.001276016,-0.000411987,0,
00:05.9,0.000354767,-0.001270294,-0.000429153,0,
00:05.9,0.000366211,-0.001276016,-0.000411987,0,
00:05.9,0.000366211,-0.00128746,-0.000394821,0,
00:05.9,0.000354767,-0.001298904,-0.000411987,0,
00:05.9,0.000349045,-0.001298904,-0.000411987,0,
00:05.9,0.000349045,-0.001298904,-0.000411987,0,
00:05.9,0.000337601,-0.001298904,-0.000400543,0,
00:05.9,0.000360489,-0.00128746,-0.000400543,0,
00:05.9,0.000349045,-0.001281738,-0.000394821,0,
00:05.9,0.000349045,-0.001293182,-0.000394821,0,
00:05.9,0.000377655,-0.001304626,-0.000389099,0,
00:05.9,0.000366211,-0.001298904,-0.000394821,0,
00:05.9,0.000366211,-0.001293182,-0.000383377,0,
00:05.9,0.000366211,-0.001304626,-0.000383377,0,
00:05.9,0.000360489,-0.001310349,-0.000383377,0,
00:05.9,0.000360489,-0.00128746,-0.000371933,0,
00:05.9,0.000371933,-0.001270294,-0.000371933,0,
00:05.9,0.000360489,-0.001270294,-0.000383377,0,
00:05.9,0.000366211,-0.00128746,-0.000389099,0,
00:05.9,0.000354767,-0.001293182,-0.000383377,0,
00:05.9,0.000343323,-0.001310349,-0.000371933,0,
00:05.9,0.000360489,-0.001304626,-0.000360489,0,
00:06.0,0.000371933,-0.001298904,-0.000366211,0,
00:06.0,0.000354767,-0.001304626,-0.000366211,0,
00:06.0,0.000337601,-0.001298904,-0.000371933,0,
00:06.0,0.000354767,-0.001298904,-0.000371933,0,
00:06.0,0.000366211,-0.001293182,-0.000377655,0,
00:06.0,0.000360489,-0.001281738,-0.000354767,0,
00:06.0,0.000354767,-0.001298904,-0.000366211,0,
00:06.0,0.000349045,-0.001298904,-0.000371933,0,
00:06.0,0.000360489,-0.001270294,-0.000366211,0,
00:06.0,0.000366211,-0.001270294,-0.000360489,0,
00:06.0,0.000360489,-0.00128746,-0.000354767,0,
00:06.0,0.000354767,-0.001281738,-0.000371933,0,
00:00:06,0.000343323,-0.001276016,-0.000371933,0,
00:06.0,0.000343323,-0.00128746,-0.000360489,0,
00:06.0,0.000349045,-0.00128746,-0.000366211,0,
00:06.0,0.000349045,-0.001293182,-0.000371933,0,
00:06.0,0.000343323,-0.00128746,-0.000371933,0,
00:06.0,0.000366211,-0.00125885,-0.000383377,0,
00:06.0,0.000360489,-0.001264572,-0.000377655,0,
00:06.0,0.000354767,-0.001281738,-0.000371933,0,
00:06.0,0.000366211,-0.001270294,-0.000377655,0,
00:06.0,0.000371933,-0.001253128,-0.000377655,0,
00:06.0,0.000354767,-0.00125885,-0.000394821,0,
00:06.0,0.000337601,-0.001276016,-0.000389099,0,
00:06.0,0.000337601,-0.001281738,-0.000377655,0,
00:06.1,0.000366211,-0.001276016,-0.000371933,0,
00:06.1,0.000377655,-0.00125885,-0.000389099,0,
00:06.1,0.000366211,-0.001264572,-0.000417709,0,
00:06.1,0.000343323,-0.001270294,-0.000383377,0,
00:06.1,0.000354767,-0.001276016,-0.000377655,0,
00:06.1,0.000360489,-0.00128746,-0.000394821,0,
00:06.1,0.000354767,-0.001310349,-0.000394821,0,
00:06.1,0.000349045,-0.001310349,-0.000394821,0,
00:06.1,0.000343323,-0.001316071,-0.000394821,0,
00:06.1,0.000354767,-0.001270294,-0.000400543,0,
00:06.1,0.000366211,-0.001241684,-0.000394821,0,
00:06.1,0.000366211,-0.001235962,-0.000406265,0,
00:06.1,0.000360489,-0.001253128,-0.000411987,0,
00:06.1,0.000354767,-0.001270294,-0.000411987,0,
00:06.1,0.000360489,-0.001253128,-0.000429153,0,
00:06.1,0.000354767,-0.001247406,-0.000406265,0,
00:06.1,0.000354767,-0.00125885,-0.000406265,0,
00:06.1,0.000349045,-0.001276016,-0.000417709,0,
00:06.1,0.000337601,-0.001281738,-0.000429153,0,
00:06.1,0.000349045,-0.001264572,-0.000440598,0,
00:06.1,0.000360489,-0.001253128,-0.000440598,0,
00:06.1,0.000354767,-0.001264572,-0.000411987,0,
00:06.1,0.000343323,-0.001276016,-0.000434875,0,
00:06.1,0.000343323,-0.00128746,-0.000440598,0,
00:06.1,0.000360489,-0.001281738,-0.00044632,0,
00:06.2,0.000337601,-0.00128746,-0.000434875,0,
00:06.2,0.000326157,-0.00125885,-0.000452042,0,
00:06.2,0.000360489,-0.001253128,-0.000463486,0,
00:06.2,0.000366211,-0.001253128,-0.000463486,0,
00:06.2,0.000349045,-0.001264572,-0.000463486,0,
00:06.2,0.000331879,-0.001293182,-0.000480652,0,
00:06.2,0.000343323,-0.001293182,-0.000492096,0,
00:06.2,0.000360489,-0.00125885,-0.000492096,0,
00:06.2,0.000349045,-0.001241684,-0.000497818,0,
00:06.2,0.000343323,-0.00123024,-0.00050354,0,
00:06.2,0.000349045,-0.001253128,-0.000497818,0,
00:06.2,0.000366211,-0.00125885,-0.00050354,0,
00:06.2,0.000354767,-0.001253128,-0.00050354,0,
00:06.2,0.000360489,-0.001241684,-0.00050354,0,
00:06.2,0.000354767,-0.001247406,-0.000509262,0,
00:06.2,0.000326157,-0.001264572,-0.000537872,0,
00:06.2,0.000349045,-0.001281738,-0.000520706,0,
00:06.2,0.000354767,-0.001281738,-0.000509262,0,
00:06.2,0.000337601,-0.001235962,-0.000526428,0,
00:06.2,0.000337601,-0.001224518,-0.00053215,0,
00:06.2,0.000354767,-0.001235962,-0.000543594,0,
00:06.2,0.000331879,-0.001247406,-0.00056076,0,
00:06.2,0.000320435,-0.00125885,-0.00056076,0,
00:06.2,0.000314713,-0.00128746,-0.000566483,0,
00:06.2,0.000337601,-0.001270294,-0.000595093,0,
00:06.3,0.000349045,-0.00123024,-0.000577927,0,
00:06.3,0.000354767,-0.001213074,-0.000577927,0,
00:06.3,0.000349045,-0.001224518,-0.000572205,0,
00:06.3,0.000331879,-0.001253128,-0.000577927,0,
00:06.3,0.000314713,-0.001253128,-0.000589371,0,
00:06.3,0.000326157,-0.001241684,-0.000589371,0,
00:06.3,0.000354767,-0.001247406,-0.000617981,0,
00:06.3,0.000331879,-0.001264572,-0.000617981,0,
00:06.3,0.000314713,-0.00125885,-0.000606537,0,
00:06.3,0.000326157,-0.001253128,-0.000617981,0,
00:06.3,0.000320435,-0.00123024,-0.000629425,0,
00:06.3,0.000343323,-0.001224518,-0.000646591,0,
00:06.3,0.000337601,-0.001235962,-0.000658035,0,
00:06.3,0.000320435,-0.001235962,-0.000646591,0,
00:06.3,0.000314713,-0.001241684,-0.000669479,0,
00:06.3,0.00030899,-0.001264572,-0.000652313,0,
00:06.3,0.000303268,-0.001264572,-0.000675201,0,
00:06.3,0.00030899,-0.001224518,-0.000675201,0,
00:06.3,0.000320435,-0.001207352,-0.000675201,0,
00:06.3,0.000331879,-0.001207352,-0.000686646,0,
00:06.3,0.000326157,-0.001235962,-0.000692368,0,
00:06.3,0.000320435,-0.001247406,-0.00069809,0,
00:06.3,0.00030899,-0.001235962,-0.000709534,0,
00:06.3,0.00030899,-0.00123024,-0.000715256,0,
00:06.3,0.000303268,-0.001247406,-0.000709534,0,
00:06.4,0.000286102,-0.001270294,-0.000720978,0,
00:06.4,0.000297546,-0.00125885,-0.000738144,0,
00:06.4,0.000320435,-0.001207352,-0.000743866,0,
00:06.4,0.000314713,-0.00120163,-0.000738144,0,
00:06.4,0.000303268,-0.00123024,-0.00075531,0,
00:06.4,0.00030899,-0.001247406,-0.00075531,0,
00:06.4,0.000303268,-0.001224518,-0.000766754,0,
00:06.4,0.00030899,-0.001213074,-0.000772476,0,
00:06.4,0.000320435,-0.001218796,-0.000766754,0,
00:06.4,0.000314713,-0.001224518,-0.000789642,0,
00:06.4,0.000314713,-0.001224518,-0.000801086,0,
00:06.4,0.00030899,-0.00123024,-0.00078392,0,
00:06.4,0.000291824,-0.00123024,-0.00078392,0,
00:06.4,0.000291824,-0.001213074,-0.000801086,0,
00:06.4,0.000297546,-0.001213074,-0.000818253,0,
00:06.4,0.000297546,-0.001224518,-0.000823975,0,
00:06.4,0.000291824,-0.001253128,-0.000812531,0,
00:06.4,0.00028038,-0.001241684,-0.000829697,0,
00:06.4,0.000297546,-0.00120163,-0.000841141,0,
00:06.4,0.000303268,-0.001207352,-0.000841141,0,
00:06.4,0.00028038,-0.001247406,-0.000841141,0,
00:06.4,0.000286102,-0.00123024,-0.000835419,0,
00:06.4,0.000291824,-0.00120163,-0.000846863,0,
00:06.4,0.000297546,-0.001195908,-0.000858307,0,
00:06.4,0.000291824,-0.001195908,-0.000858307,0,
00:06.5,0.000291824,-0.00120163,-0.000881195,0,
00:06.5,0.000286102,-0.001218796,-0.000886917,0,
00:06.5,0.000291824,-0.001213074,-0.000892639,0,
00:06.5,0.000286102,-0.001207352,-0.000881195,0,
00:06.5,0.00028038,-0.001195908,-0.000886917,0,
00:06.5,0.000274658,-0.00120163,-0.000898361,0,
00:06.5,0.000274658,-0.001235962,-0.000915527,0,
00:06.5,0.00028038,-0.001224518,-0.000915527,0,
00:06.5,0.000286102,-0.001178741,-0.000926971,0,
00:06.5,0.00028038,-0.001190186,-0.000921249,0,
00:06.5,0.000263214,-0.001213074,-0.000938416,0,
00:06.5,0.000246048,-0.001235962,-0.000955582,0,
00:06.5,0.00025177,-0.001247406,-0.00094986,0,
00:06.5,0.000263214,-0.001241684,-0.000961304,0,
00:06.5,0.000268936,-0.001213074,-0.000944138,0,
00:06.5,0.000274658,-0.001184464,-0.000967026,0,
00:06.5,0.000263214,-0.001184464,-0.000955582,0,
00:06.5,0.000240326,-0.001195908,-0.000967026,0,
00:06.5,0.000257492,-0.001213074,-0.000989914,0,
00:06.5,0.000263214,-0.001207352,-0.001001358,0,
00:06.5,0.000257492,-0.001195908,-0.000989914,0,
00:06.5,0.000257492,-0.00120163,-0.001001358,0,
00:06.5,0.00025177,-0.001207352,-0.001012802,0,
00:06.5,0.000240326,-0.001213074,-0.001018524,0,
00:06.5,0.00025177,-0.001213074,-0.001018524,0,
00:06.6,0.00025177,-0.001241684,-0.00103569,0,
00:06.6,0.000257492,-0.00120163,-0.001041412,0,
00:06.6,0.000246048,-0.001167297,-0.001047134,0,
00:06.6,0.000246048,-0.001195908,-0.001047134,0,
00:06.6,0.000263214,-0.001224518,-0.001041412,0,
00:06.6,0.000257492,-0.00120163,-0.001058578,0,
00:06.6,0.000246048,-0.001184464,-0.001052856,0,
00:06.6,0.000234604,-0.001213074,-0.001058578,0,
00:06.6,0.000234604,-0.001235962,-0.001081467,0,
00:06.6,0.000234604,-0.001213074,-0.001064301,0,
00:06.6,0.000228882,-0.001178741,-0.001075745,0,
00:06.6,0.000240326,-0.001178741,-0.001064301,0,
00:06.6,0.00025177,-0.001195908,-0.001081467,0,
00:06.6,0.000257492,-0.001207352,-0.001081467,0,
00:06.6,0.00025177,-0.001195908,-0.001087189,0,
00:06.6,0.000246048,-0.001190186,-0.001098633,0,
00:06.6,0.000240326,-0.001190186,-0.001110077,0,
00:06.6,0.000246048,-0.001207352,-0.001098633,0,
00:06.6,0.000240326,-0.001218796,-0.001127243,0,
00:06.6,0.000234604,-0.001235962,-0.001121521,0,
00:06.6,0.000234604,-0.001253128,-0.001121521,0,
00:06.6,0.000234604,-0.001235962,-0.001121521,0,
00:06.6,0.000228882,-0.001213074,-0.001127243,0,
00:06.6,0.000240326,-0.001184464,-0.001144409,0,
00:06.6,0.000234604,-0.001184464,-0.001138687,0,
00:06.7,0.000234604,-0.001195908,-0.001138687,0,
00:06.7,0.000228882,-0.001207352,-0.001144409,0,
00:06.7,0.000211716,-0.001235962,-0.001161575,0,
00:06.7,0.000211716,-0.001241684,-0.001155853,0,
00:06.7,0.000228882,-0.001207352,-0.001167297,0,
00:06.7,0.000240326,-0.001173019,-0.001178741,0,
00:06.7,0.000240326,-0.001184464,-0.001178741,0,
00:06.7,0.000240326,-0.00120163,-0.001178741,0,
00:06.7,0.000228882,-0.001190186,-0.001190186,0,
00:06.7,0.000234604,-0.001190186,-0.001195908,0,
00:06.7,0.000234604,-0.001207352,-0.00120163,0,
00:06.7,0.00022316,-0.001213074,-0.001190186,0,
00:06.7,0.000228882,-0.00120163,-0.001190186,0,
00:06.7,0.000234604,-0.001190186,-0.001190186,0,
00:06.7,0.00022316,-0.001195908,-0.001195908,0,
00:06.7,0.000205994,-0.00123024,-0.001207352,0,
00:06.7,0.000200272,-0.001264572,-0.001213074,0,
00:06.7,0.000217438,-0.001247406,-0.00123024,0,
00:06.7,0.00022316,-0.001184464,-0.001235962,0,
00:06.7,0.00022316,-0.001178741,-0.001213074,0,
00:06.7,0.000211716,-0.00120163,-0.001218796,0,
00:06.7,0.000211716,-0.001213074,-0.001224518,0,
00:06.7,0.000217438,-0.001213074,-0.001224518,0,
00:06.7,0.000228882,-0.001190186,-0.00123024,0,
00:06.7,0.000228882,-0.001195908,-0.001247406,0,
00:06.8,0.00022316,-0.001195908,-0.001241684,0,
00:06.8,0.000217438,-0.001184464,-0.001235962,0,
00:06.8,0.000211716,-0.001195908,-0.001264572,0,
00:06.8,0.000205994,-0.001207352,-0.00125885,0,
00:06.8,0.000200272,-0.001213074,-0.00125885,0,
00:06.8,0.000188828,-0.001224518,-0.00125885,0,
00:06.8,0.000205994,-0.001218796,-0.001264572,0,
00:06.8,0.000228882,-0.001190186,-0.00125885,0,
00:06.8,0.000205994,-0.001213074,-0.001264572,0,
00:06.8,0.000200272,-0.001224518,-0.001264572,0,
00:06.8,0.000200272,-0.001218796,-0.001270294,0,
00:06.8,0.000205994,-0.001241684,-0.001281738,0,
00:06.8,0.000205994,-0.001224518,-0.001270294,0,
00:06.8,0.000205994,-0.001184464,-0.001276016,0,
00:06.8,0.000205994,-0.001167297,-0.001270294,0,
00:06.8,0.000200272,-0.001178741,-0.001281738,0,
00:06.8,0.00019455,-0.001207352,-0.001281738,0,
00:06.8,0.000183105,-0.00123024,-0.001281738,0,
00:06.8,0.000188828,-0.001235962,-0.001293182,0,
00:06.8,0.000188828,-0.001218796,-0.00128746,0,
00:06.8,0.00019455,-0.001184464,-0.001298904,0,
00:06.8,0.000188828,-0.001173019,-0.001304626,0,
00:06.8,0.000188828,-0.001190186,-0.001304626,0,
00:06.8,0.00019455,-0.001184464,-0.001298904,0,
00:06.8,0.000188828,-0.001184464,-0.001298904,0,
00:06.9,0.000177383,-0.001195908,-0.001298904,0,
00:06.9,0.000183105,-0.001213074,-0.001298904,0,
00:06.9,0.000177383,-0.001213074,-0.001304626,0,
00:06.9,0.000160217,-0.001213074,-0.001304626,0,
00:06.9,0.000171661,-0.001247406,-0.001304626,0,
00:06.9,0.000160217,-0.00123024,-0.00128746,0,
00:06.9,0.000188828,-0.001173019,-0.001298904,0,
00:06.9,0.000200272,-0.001167297,-0.001304626,0,
00:06.9,0.00019455,-0.001184464,-0.001304626,0,
00:06.9,0.00019455,-0.001190186,-0.001316071,0,
00:06.9,0.000183105,-0.001207352,-0.001310349,0,
00:06.9,0.000165939,-0.00123024,-0.001310349,0,
00:06.9,0.00019455,-0.001213074,-0.001310349,0,
00:06.9,0.00019455,-0.001184464,-0.001321793,0,
00:06.9,0.000200272,-0.001173019,-0.001316071,0,
00:06.9,0.000200272,-0.001167297,-0.001298904,0,
00:06.9,0.000188828,-0.001184464,-0.001293182,0,
00:06.9,0.000183105,-0.00120163,-0.001316071,0,
00:06.9,0.000183105,-0.001213074,-0.001321793,0,
00:06.9,0.000205994,-0.001195908,-0.001304626,0,
00:06.9,0.000188828,-0.001173019,-0.001316071,0,
00:06.9,0.000183105,-0.001184464,-0.001304626,0,
00:06.9,0.000188828,-0.001195908,-0.001327515,0,
00:06.9,0.000200272,-0.001207352,-0.001327515,0,
00:06.9,0.000171661,-0.001224518,-0.001304626,0,
00:07.0,0.000177383,-0.001224518,-0.001316071,0,
00:07.0,0.000183105,-0.001224518,-0.001310349,0,
00:07.0,0.00019455,-0.001173019,-0.001304626,0,
00:07.0,0.00019455,-0.001132965,-0.001316071,0,
00:07.0,0.000200272,-0.001161575,-0.001316071,0,
00:07.0,0.000205994,-0.001184464,-0.001310349,0,
00:07.0,0.00019455,-0.001207352,-0.001310349,0,
00:07.0,0.000188828,-0.001218796,-0.001321793,0,
00:07.0,0.000183105,-0.001218796,-0.001338959,0,
00:07.0,0.000183105,-0.001178741,-0.001316071,0,
00:07.0,0.000188828,-0.001173019,-0.001298904,0,
00:07.0,0.000200272,-0.001190186,-0.001304626,0,
00:00:07,0.000177383,-0.001213074,-0.001304626,0,
00:07.0,0.000183105,-0.001213074,-0.001321793,0,
00:07.0,0.000188828,-0.00120163,-0.001310349,0,
00:07.0,0.000183105,-0.001207352,-0.001310349,0,
00:07.0,0.000183105,-0.001190186,-0.001316071,0,
00:07.0,0.000183105,-0.001167297,-0.001304626,0,
00:07.0,0.000183105,-0.001184464,-0.001304626,0,
00:07.0,0.000171661,-0.001207352,-0.001316071,0,
00:07.0,0.000183105,-0.001190186,-0.001310349,0,
00:07.0,0.000183105,-0.001167297,-0.001304626,0,
00:07.0,0.000200272,-0.001173019,-0.001304626,0,
00:07.0,0.000200272,-0.001178741,-0.001310349,0,
00:07.0,0.00019455,-0.001184464,-0.001310349,0,
00:07.1,0.000200272,-0.001190186,-0.001310349,0,
00:07.1,0.000200272,-0.001207352,-0.001298904,0,
00:07.1,0.000188828,-0.001207352,-0.001293182,0,
00:07.1,0.000188828,-0.001184464,-0.00128746,0,
00:07.1,0.000183105,-0.001178741,-0.001293182,0,
00:07.1,0.000177383,-0.001207352,-0.001298904,0,
00:07.1,0.000171661,-0.00123024,-0.001293182,0,
00:07.1,0.000183105,-0.001213074,-0.001293182,0,
00:07.1,0.000183105,-0.001195908,-0.00128746,0,
00:07.1,0.000183105,-0.00120163,-0.00128746,0,
00:07.1,0.00019455,-0.001213074,-0.001281738,0,
00:07.1,0.000183105,-0.00120163,-0.001276016,0,
00:07.1,0.000188828,-0.001184464,-0.001281738,0,
00:07.1,0.000183105,-0.00120163,-0.001281738,0,
00:07.1,0.000177383,-0.001218796,-0.00128746,0,
00:07.1,0.000160217,-0.00123024,-0.00128746,0,
00:07.1,0.000188828,-0.00120163,-0.001281738,0,
00:07.1,0.000211716,-0.001184464,-0.001293182,0,
00:07.1,0.000188828,-0.001190186,-0.001276016,0,
00:07.1,0.000177383,-0.00120163,-0.001281738,0,
00:07.1,0.000183105,-0.00120163,-0.001264572,0,
00:07.1,0.000177383,-0.001207352,-0.001253128,0,
00:07.1,0.000183105,-0.001218796,-0.001253128,0,
00:07.1,0.000188828,-0.001224518,-0.001270294,0,
00:07.1,0.00019455,-0.001207352,-0.001270294,0,
00:07.2,0.000188828,-0.001178741,-0.00125885,0,
00:07.2,0.000171661,-0.001173019,-0.001247406,0,
00:07.2,0.000177383,-0.00120163,-0.001241684,0,
00:07.2,0.000205994,-0.001207352,-0.001235962,0,
00:07.2,0.000211716,-0.001184464,-0.001235962,0,
00:07.2,0.00019455,-0.001184464,-0.001218796,0,
00:07.2,0.000188828,-0.001184464,-0.00123024,0,
00:07.2,0.000188828,-0.00120163,-0.00123024,0,
00:07.2,0.000205994,-0.001195908,-0.001235962,0,
00:07.2,0.000205994,-0.001173019,-0.001218796,0,
00:07.2,0.00019455,-0.001184464,-0.001213074,0,
00:07.2,0.000188828,-0.001213074,-0.001213074,0,
00:07.2,0.000177383,-0.001218796,-0.001213074,0,
00:07.2,0.000183105,-0.00120163,-0.001218796,0,
00:07.2,0.00019455,-0.001195908,-0.001213074,0,
00:07.2,0.000188828,-0.001184464,-0.00120163,0,
00:07.2,0.000188828,-0.001190186,-0.001195908,0,
00:07.2,0.000183105,-0.001213074,-0.001207352,0,
00:07.2,0.000171661,-0.001247406,-0.001207352,0,
00:07.2,0.000177383,-0.00120163,-0.001195908,0,
00:07.2,0.000211716,-0.001155853,-0.001184464,0,
00:07.2,0.000205994,-0.001155853,-0.001184464,0,
00:07.2,0.00019455,-0.001173019,-0.001190186,0,
00:07.2,0.00019455,-0.001190186,-0.001178741,0,
00:07.2,0.00019455,-0.00120163,-0.001173019,0,
00:07.3,0.000188828,-0.001195908,-0.001173019,0,
00:07.3,0.000183105,-0.001207352,-0.001167297,0,
00:07.3,0.00019455,-0.001207352,-0.001144409,0,
00:07.3,0.000183105,-0.001207352,-0.001155853,0,
00:07.3,0.000183105,-0.001213074,-0.001155853,0,
00:07.3,0.000183105,-0.001213074,-0.001150131,0,
00:07.3,0.000183105,-0.001195908,-0.001138687,0,
00:07.3,0.000200272,-0.001190186,-0.001144409,0,
00:07.3,0.000200272,-0.001207352,-0.001150131,0,
00:07.3,0.000200272,-0.001213074,-0.001155853,0,
00:07.3,0.000188828,-0.001213074,-0.001121521,0,
00:07.3,0.000171661,-0.001213074,-0.001121521,0,
00:07.3,0.000177383,-0.001235962,-0.001115799,0,
00:07.3,0.000177383,-0.001224518,-0.001121521,0,
00:07.3,0.000200272,-0.001161575,-0.001110077,0,
00:07.3,0.000211716,-0.001161575,-0.001104355,0,
00:07.3,0.00019455,-0.001184464,-0.001098633,0,
00:07.3,0.000211716,-0.001190186,-0.001110077,0,
00:07.3,0.000211716,-0.001195908,-0.001092911,0,
00:07.3,0.000205994,-0.001190186,-0.001092911,0,
00:07.3,0.000200272,-0.001190186,-0.001081467,0,
00:07.3,0.000188828,-0.001195908,-0.001075745,0,
00:07.3,0.00019455,-0.001184464,-0.001075745,0,
00:07.3,0.00019455,-0.001173019,-0.001081467,0,
00:07.3,0.00019455,-0.001195908,-0.001075745,0,
00:07.4,0.000200272,-0.001218796,-0.001075745,0,
00:07.4,0.000200272,-0.00120163,-0.001070023,0,
00:07.4,0.000205994,-0.001167297,-0.001075745,0,
00:07.4,0.000188828,-0.001173019,-0.001041412,0,
00:07.4,0.000183105,-0.001195908,-0.001041412,0,
00:07.4,0.000200272,-0.001213074,-0.001041412,0,
00:07.4,0.000205994,-0.001190186,-0.001041412,0,
00:07.4,0.000205994,-0.001155853,-0.001052856,0,
00:07.4,0.000205994,-0.001167297,-0.001041412,0,
00:07.4,0.000200272,-0.001190186,-0.001018524,0,
00:07.4,0.000205994,-0.001195908,-0.001018524,0,
00:07.4,0.00019455,-0.001178741,-0.001018524,0,
00:07.4,0.000217438,-0.001173019,-0.001012802,0,
00:07.4,0.000228882,-0.001178741,-0.001001358,0,
00:07.4,0.000217438,-0.001184464,-0.000995636,0,
00:07.4,0.00019455,-0.00120163,-0.000995636,0,
00:07.4,0.00019455,-0.001218796,-0.001001358,0,
00:07.4,0.000205994,-0.001207352,-0.000984192,0,
00:07.4,0.000211716,-0.001167297,-0.000984192,0,
00:07.4,0.000217438,-0.001161575,-0.00097847,0,
00:07.4,0.000188828,-0.001207352,-0.00097847,0,
00:07.4,0.00019455,-0.001235962,-0.000961304,0,
00:07.4,0.000211716,-0.001190186,-0.000967026,0,
00:07.4,0.000217438,-0.001155853,-0.00094986,0,
00:07.4,0.000217438,-0.001167297,-0.000944138,0,
00:07.5,0.000211716,-0.001173019,-0.000938416,0,
00:07.5,0.000205994,-0.001173019,-0.000938416,0,
00:07.5,0.000200272,-0.001173019,-0.000944138,0,
00:07.5,0.000200272,-0.001178741,-0.000926971,0,
00:07.5,0.000200272,-0.001190186,-0.000921249,0,
00:07.5,0.000183105,-0.001184464,-0.000932693,0,
00:07.5,0.000200272,-0.001184464,-0.000921249,0,
00:07.5,0.00022316,-0.001173019,-0.000904083,0,
00:07.5,0.000211716,-0.001178741,-0.000909805,0,
00:07.5,0.000205994,-0.00120163,-0.000904083,0,
00:07.5,0.000188828,-0.001218796,-0.000892639,0,
00:07.5,0.000217438,-0.00120163,-0.000898361,0,
00:07.5,0.00022316,-0.001173019,-0.000892639,0,
00:07.5,0.000217438,-0.001184464,-0.000886917,0,
00:07.5,0.000211716,-0.001207352,-0.000881195,0,
00:07.5,0.000211716,-0.001195908,-0.000869751,0,
00:07.5,0.000217438,-0.001190186,-0.000869751,0,
00:07.5,0.000211716,-0.001213074,-0.000846863,0,
00:07.5,0.000205994,-0.001195908,-0.000846863,0,
00:07.5,0.000211716,-0.001173019,-0.000841141,0,
00:07.5,0.000211716,-0.001195908,-0.000846863,0,
00:07.5,0.000205994,-0.001184464,-0.000829697,0,
00:07.5,0.000211716,-0.001167297,-0.000818253,0,
00:07.5,0.000234604,-0.001155853,-0.000818253,0,
00:07.5,0.00022316,-0.001173019,-0.000812531,0,
00:07.6,0.000205994,-0.001184464,-0.000823975,0,
00:07.6,0.000211716,-0.00120163,-0.000812531,0,
00:07.6,0.000205994,-0.001207352,-0.000812531,0,
00:07.6,0.000211716,-0.001195908,-0.000806808,0,
00:07.6,0.000217438,-0.001184464,-0.000795364,0,
00:07.6,0.000228882,-0.001173019,-0.00078392,0,
00:07.6,0.000228882,-0.001155853,-0.000772476,0,
00:07.6,0.000217438,-0.001167297,-0.000761032,0,
00:07.6,0.000234604,-0.001184464,-0.000761032,0,
00:07.6,0.000234604,-0.001195908,-0.000766754,0,
00:07.6,0.000228882,-0.001173019,-0.000761032,0,
00:07.6,0.000234604,-0.001161575,-0.000749588,0,
00:07.6,0.000234604,-0.001190186,-0.000738144,0,
00:07.6,0.000211716,-0.001207352,-0.000720978,0,
00:07.6,0.00019455,-0.001173019,-0.000720978,0,
00:07.6,0.00022316,-0.001138687,-0.000715256,0,
00:07.6,0.000234604,-0.001144409,-0.000715256,0,
00:07.6,0.000217438,-0.001167297,-0.000703812,0,
00:07.6,0.000205994,-0.001190186,-0.00069809,0,
00:07.6,0.000228882,-0.001178741,-0.000692368,0,
00:07.6,0.00025177,-0.001150131,-0.000686646,0,
00:07.6,0.000234604,-0.001155853,-0.00069809,0,
00:07.6,0.00022316,-0.001178741,-0.000692368,0,
00:07.6,0.000217438,-0.001178741,-0.000669479,0,
00:07.6,0.00022316,-0.001178741,-0.000658035,0,
00:07.7,0.000228882,-0.001190186,-0.000652313,0,
00:07.7,0.000217438,-0.001190186,-0.000652313,0,
00:07.7,0.00022316,-0.001184464,-0.000635147,0,
00:07.7,0.000240326,-0.001190186,-0.000629425,0,
00:07.7,0.000240326,-0.001161575,-0.000617981,0,
00:07.7,0.000228882,-0.001167297,-0.000617981,0,
00:07.7,0.000228882,-0.001155853,-0.000606537,0,
00:07.7,0.000234604,-0.001150131,-0.000600815,0,
00:07.7,0.000234604,-0.001155853,-0.000589371,0,
00:07.7,0.000234604,-0.001167297,-0.000583649,0,
00:07.7,0.000228882,-0.001184464,-0.000589371,0,
00:07.7,0.000246048,-0.001184464,-0.000572205,0,
00:07.7,0.00025177,-0.001144409,-0.000566483,0,
00:07.7,0.000246048,-0.001132965,-0.000566483,0,
00:07.7,0.000228882,-0.001155853,-0.000566483,0,
00:07.7,0.000240326,-0.001167297,-0.00053215,0,
00:07.7,0.000246048,-0.001173019,-0.00053215,0,
00:07.7,0.000228882,-0.001167297,-0.000549316,0,
00:07.7,0.00022316,-0.001161575,-0.00053215,0,
00:07.7,0.000234604,-0.001167297,-0.000509262,0,
00:07.7,0.000240326,-0.001173019,-0.000520706,0,
00:07.7,0.00025177,-0.001167297,-0.000514984,0,
00:07.7,0.00025177,-0.001161575,-0.00050354,0,
00:07.7,0.000240326,-0.001190186,-0.000486374,0,
00:07.7,0.000228882,-0.00120163,-0.000492096,0,
00:07.8,0.000228882,-0.001178741,-0.000492096,0,
00:07.8,0.000240326,-0.001132965,-0.000486374,0,
00:07.8,0.000257492,-0.001127243,-0.00047493,0,
00:07.8,0.00025177,-0.001144409,-0.000469208,0,
00:07.8,0.000246048,-0.001155853,-0.000452042,0,
00:07.8,0.000228882,-0.001190186,-0.000452042,0,
00:07.8,0.000240326,-0.001184464,-0.000463486,0,
00:07.8,0.000257492,-0.001138687,-0.000452042,0,
00:07.8,0.000263214,-0.001132965,-0.00044632,0,
00:07.8,0.000257492,-0.001138687,-0.000400543,0,
00:07.8,0.000240326,-0.001144409,-0.000400543,0,
00:07.8,0.000234604,-0.001167297,-0.000411987,0,
00:07.8,0.000257492,-0.001178741,-0.000406265,0,
00:07.8,0.000274658,-0.001155853,-0.000389099,0,
00:07.8,0.000268936,-0.001144409,-0.000394821,0,
00:07.8,0.000268936,-0.001138687,-0.000389099,0,
00:07.8,0.000263214,-0.001127243,-0.000389099,0,
00:07.8,0.000257492,-0.001144409,-0.000383377,0,
00:07.8,0.000257492,-0.001150131,-0.000371933,0,
00:07.8,0.000268936,-0.001138687,-0.000360489,0,
00:07.8,0.000268936,-0.001138687,-0.000354767,0,
00:07.8,0.000263214,-0.001144409,-0.000360489,0,
00:07.8,0.000274658,-0.001150131,-0.000343323,0,
00:07.8,0.000263214,-0.001161575,-0.000337601,0,
00:07.8,0.000263214,-0.001155853,-0.000314713,0,
00:07.9,0.000286102,-0.001155853,-0.000314713,0,
00:07.9,0.00028038,-0.001155853,-0.00030899,0,
00:07.9,0.00028038,-0.001127243,-0.000303268,0,
00:07.9,0.000274658,-0.001127243,-0.000291824,0,
00:07.9,0.000274658,-0.001144409,-0.000286102,0,
00:07.9,0.000291824,-0.001150131,-0.000286102,0,
00:07.9,0.000297546,-0.001138687,-0.000286102,0,
00:07.9,0.000297546,-0.001144409,-0.00028038,0,
00:07.9,0.000286102,-0.001173019,-0.000263214,0,
00:07.9,0.000291824,-0.001167297,-0.000246048,0,
00:07.9,0.000303268,-0.001121521,-0.000240326,0,
00:07.9,0.000286102,-0.001121521,-0.000240326,0,
00:07.9,0.000274658,-0.001144409,-0.000246048,0,
00:07.9,0.000274658,-0.001144409,-0.000246048,0,
00:07.9,0.00028038,-0.001161575,-0.00022316,0,
00:07.9,0.000291824,-0.001167297,-0.000228882,0,
00:07.9,0.000291824,-0.001127243,-0.000228882,0,
00:07.9,0.000303268,-0.001104355,-0.000200272,0,
00:07.9,0.000297546,-0.001132965,-0.00019455,0,
00:07.9,0.000303268,-0.001144409,-0.000188828,0,
00:07.9,0.000286102,-0.001138687,-0.000205994,0,
00:07.9,0.000286102,-0.001138687,-0.000188828,0,
00:07.9,0.000303268,-0.001155853,-0.000165939,0,
00:07.9,0.000303268,-0.001138687,-0.000171661,0,
00:07.9,0.000303268,-0.001132965,-0.000148773,0,
00:08.0,0.000297546,-0.001150131,-0.000148773,0,
00:08.0,0.000303268,-0.001167297,-0.000148773,0,
00:08.0,0.000314713,-0.001161575,-0.000143051,0,
00:08.0,0.000326157,-0.001127243,-0.000137329,0,
00:08.0,0.000314713,-0.001132965,-0.000108719,0,
00:08.0,0.000303268,-0.001155853,-0.000114441,0,
00:08.0,0.000314713,-0.001167297,-0.000114441,0,
00:08.0,0.000331879,-0.001121521,-0.000125885,0,
00:08.0,0.000326157,-0.001115799,-0.000102997,0,
00:08.0,0.000320435,-0.001144409,-9.16E-05,0,
00:08.0,0.000320435,-0.001144409,-8.58E-05,0,
00:08.0,0.000337601,-0.001127243,-7.44E-05,0,
00:00:08,0.000331879,-0.001127243,-7.44E-05,0,
00:08.0,0.000326157,-0.001121521,-7.44E-05,0,
00:08.0,0.000331879,-0.001115799,-6.29E-05,0,
00:08.0,0.000314713,-0.001138687,-5.72E-05,0,
00:08.0,0.000303268,-0.001150131,-4.58E-05,0,
00:08.0,0.000320435,-0.001138687,-4.01E-05,0,
00:08.0,0.000320435,-0.001144409,-4.01E-05,0,
00:08.0,0.000331879,-0.001127243,-2.86E-05,0,
00:08.0,0.000320435,-0.001121521,-4.01E-05,0,
00:08.0,0.000320435,-0.001144409,-1.14E-05,0,
00:08.0,0.000326157,-0.001127243,-1.14E-05,0,
00:08.0,0.000326157,-0.001132965,-1.14E-05,0,
00:08.0,0.000326157,-0.001132965,-5.72E-06,0,
00:08.1,0.000331879,-0.001127243,1.14E-05,0,
00:08.1,0.000331879,-0.001115799,0,0,
00:08.1,0.000326157,-0.001110077,1.72E-05,0,
00:08.1,0.000320435,-0.001121521,1.72E-05,0,
00:08.1,0.000331879,-0.001115799,1.72E-05,0,
00:08.1,0.000337601,-0.001121521,4.58E-05,0,
00:08.1,0.000331879,-0.001132965,3.43E-05,0,
00:08.1,0.000320435,-0.001132965,4.58E-05,0,
00:08.1,0.000349045,-0.001121521,5.15E-05,0,
00:08.1,0.000360489,-0.001121521,5.72E-05,0,
00:08.1,0.000349045,-0.001115799,6.87E-05,0,
00:08.1,0.000349045,-0.001110077,6.29E-05,0,
00:08.1,0.000354767,-0.001121521,4.58E-05,0,
00:08.1,0.000337601,-0.001115799,6.29E-05,0,
00:08.1,0.000337601,-0.001121521,9.73E-05,0,
00:08.1,0.000343323,-0.001138687,9.73E-05,0,
00:08.1,0.000343323,-0.001110077,9.16E-05,0,
00:08.1,0.000337601,-0.001104355,0.000102997,0,
00:08.1,0.000349045,-0.001104355,0.000114441,0,
00:08.1,0.000360489,-0.001104355,0.000114441,0,
00:08.1,0.000349045,-0.001115799,0.000120163,0,
00:08.1,0.000366211,-0.001098633,0.000120163,0,
00:08.1,0.000366211,-0.001087189,0.000137329,0,
00:08.1,0.000360489,-0.001098633,0.000131607,0,
00:08.1,0.000337601,-0.001110077,0.000137329,0,
00:08.2,0.000354767,-0.001115799,0.000143051,0,
00:08.2,0.000360489,-0.001115799,0.000154495,0,
00:08.2,0.000354767,-0.001121521,0.000177383,0,
00:08.2,0.000349045,-0.001127243,0.000165939,0,
00:08.2,0.000349045,-0.001138687,0.000160217,0,
00:08.2,0.000349045,-0.001121521,0.000177383,0,
00:08.2,0.000360489,-0.001087189,0.000188828,0,
00:08.2,0.000371933,-0.001081467,0.00019455,0,
00:08.2,0.000360489,-0.001098633,0.00019455,0,
00:08.2,0.000366211,-0.001104355,0.000211716,0,
00:08.2,0.000354767,-0.001121521,0.000205994,0,
00:08.2,0.000360489,-0.001132965,0.000211716,0,
00:08.2,0.000366211,-0.001104355,0.00022316,0,
00:08.2,0.000360489,-0.001087189,0.000228882,0,
00:08.2,0.000371933,-0.001087189,0.000234604,0,
00:08.2,0.000377655,-0.001087189,0.000240326,0,
00:08.2,0.000383377,-0.001087189,0.000228882,0,
00:08.2,0.000377655,-0.001087189,0.000246048,0,
00:08.2,0.000371933,-0.001092911,0.00025177,0,
00:08.2,0.000383377,-0.001104355,0.00025177,0,
00:08.2,0.000366211,-0.001121521,0.000268936,0,
00:08.2,0.000349045,-0.001132965,0.000263214,0,
00:08.2,0.000360489,-0.001132965,0.000268936,0,
00:08.2,0.000383377,-0.001127243,0.000291824,0,
00:08.2,0.000383377,-0.001098633,0.00028038,0,
00:08.3,0.000377655,-0.001081467,0.000291824,0,
00:08.3,0.000371933,-0.001092911,0.00030899,0,
00:08.3,0.000366211,-0.001110077,0.00030899,0,
00:08.3,0.000371933,-0.001138687,0.000303268,0,
00:08.3,0.000366211,-0.001104355,0.000326157,0,
00:08.3,0.000389099,-0.001064301,0.000326157,0,
00:08.3,0.000394821,-0.001064301,0.000326157,0,
00:08.3,0.000371933,-0.001098633,0.000326157,0,
00:08.3,0.000371933,-0.001115799,0.000337601,0,
00:08.3,0.000383377,-0.001092911,0.000343323,0,
00:08.3,0.000383377,-0.001075745,0.000343323,0,
00:08.3,0.000389099,-0.001070023,0.000349045,0,
00:08.3,0.000389099,-0.001075745,0.000360489,0,
00:08.3,0.000371933,-0.001092911,0.000366211,0,
00:08.3,0.000354767,-0.001121521,0.000360489,0,
00:08.3,0.000389099,-0.001115799,0.000377655,0,
00:08.3,0.000389099,-0.001081467,0.000394821,0,
00:08.3,0.000377655,-0.001075745,0.000394821,0,
00:08.3,0.000383377,-0.001087189,0.000389099,0,
00:08.3,0.000366211,-0.001092911,0.000406265,0,
00:08.3,0.000366211,-0.001121521,0.000406265,0,
00:08.3,0.000366211,-0.001087189,0.000400543,0,
00:08.3,0.000389099,-0.001047134,0.000406265,0,
00:08.3,0.000406265,-0.001052856,0.000411987,0,
00:08.3,0.000400543,-0.001070023,0.000417709,0,
00:08.4,0.000383377,-0.001087189,0.000423431,0,
00:08.4,0.000389099,-0.001087189,0.000434875,0,
00:08.4,0.000394821,-0.001070023,0.000429153,0,
00:08.4,0.000400543,-0.001058578,0.000423431,0,
00:08.4,0.000377655,-0.001052856,0.00044632,0,
00:08.4,0.000389099,-0.001052856,0.000463486,0,
00:08.4,0.000400543,-0.001058578,0.000457764,0,
00:08.4,0.000400543,-0.001064301,0.000452042,0,
00:08.4,0.000394821,-0.001081467,0.000457764,0,
00:08.4,0.000394821,-0.001092911,0.000469208,0,
00:08.4,0.000389099,-0.001081467,0.000469208,0,
00:08.4,0.000389099,-0.001081467,0.000480652,0,
00:08.4,0.000377655,-0.001092911,0.00047493,0,
00:08.4,0.000389099,-0.001081467,0.000486374,0,
00:08.4,0.000411987,-0.001029968,0.000514984,0,
00:08.4,0.000406265,-0.001018524,0.000509262,0,
00:08.4,0.000383377,-0.001052856,0.00050354,0,
00:08.4,0.000389099,-0.001064301,0.000520706,0,
00:08.4,0.000383377,-0.001064301,0.000514984,0,
00:08.4,0.000411987,-0.001052856,0.00050354,0,
00:08.4,0.000406265,-0.001058578,0.000537872,0,
00:08.4,0.000406265,-0.001064301,0.000537872,0,
00:08.4,0.000400543,-0.001047134,0.000549316,0,
00:08.4,0.000394821,-0.001052856,0.000543594,0,
00:08.4,0.000406265,-0.001064301,0.000537872,0,
00:08.5,0.000400543,-0.001064301,0.000555038,0,
00:08.5,0.000383377,-0.001070023,0.000555038,0,
00:08.5,0.000400543,-0.001081467,0.00056076,0,
00:08.5,0.000389099,-0.001064301,0.000572205,0,
00:08.5,0.000389099,-0.001075745,0.000572205,0,
00:08.5,0.000406265,-0.001098633,0.000566483,0,
00:08.5,0.000406265,-0.001064301,0.000577927,0,
00:08.5,0.000417709,-0.001012802,0.000589371,0,
00:08.5,0.000417709,-0.001029968,0.000577927,0,
00:08.5,0.000411987,-0.00103569,0.00056076,0,
00:08.5,0.000411987,-0.00103569,0.000600815,0,
00:08.5,0.000406265,-0.001047134,0.000600815,0,
00:08.5,0.000417709,-0.001041412,0.000595093,0,
00:08.5,0.000400543,-0.001064301,0.000600815,0,
00:08.5,0.000400543,-0.001064301,0.000612259,0,
00:08.5,0.000423431,-0.001029968,0.000623703,0,
00:08.5,0.000417709,-0.001012802,0.000623703,0,
00:08.5,0.000411987,-0.00103569,0.000629425,0,
00:08.5,0.000400543,-0.001058578,0.000629425,0,
00:08.5,0.000400543,-0.001070023,0.000623703,0,
00:08.5,0.000406265,-0.001047134,0.000635147,0,
00:08.5,0.000406265,-0.001041412,0.000635147,0,
00:08.5,0.000389099,-0.001047134,0.000629425,0,
00:08.5,0.000389099,-0.001075745,0.000640869,0,
00:08.5,0.000411987,-0.001070023,0.000646591,0,
00:08.6,0.000434875,-0.001012802,0.000646591,0,
00:08.6,0.000429153,-0.000989914,0.000675201,0,
00:08.6,0.000417709,-0.001018524,0.000669479,0,
00:08.6,0.000417709,-0.001029968,0.000663757,0,
00:08.6,0.000411987,-0.001018524,0.000658035,0,
00:08.6,0.000417709,-0.00100708,0.000675201,0,
00:08.6,0.000423431,-0.001024246,0.000658035,0,
00:08.6,0.000417709,-0.001029968,0.000680923,0,
00:08.6,0.000417709,-0.001024246,0.000663757,0,
00:08.6,0.000411987,-0.001029968,0.000686646,0,
00:08.6,0.000406265,-0.001041412,0.000692368,0,
00:08.6,0.000423431,-0.001029968,0.000680923,0,
00:08.6,0.000417709,-0.001041412,0.00069809,0,
00:08.6,0.000411987,-0.001024246,0.00069809,0,
00:08.6,0.000429153,-0.000995636,0.00069809,0,
00:08.6,0.000429153,-0.001012802,0.00069809,0,
00:08.6,0.000417709,-0.00103569,0.000703812,0,
00:08.6,0.000411987,-0.001052856,0.000692368,0,
00:08.6,0.000411987,-0.001064301,0.000709534,0,
00:08.6,0.000411987,-0.001047134,0.000703812,0,
00:08.6,0.000429153,-0.000984192,0.000686646,0,
00:08.6,0.000434875,-0.000995636,0.000709534,0,
00:08.6,0.000429153,-0.001012802,0.000720978,0,
00:08.6,0.000423431,-0.001029968,0.000709534,0,
00:08.6,0.000423431,-0.001018524,0.000709534,0,
00:08.7,0.000440598,-0.000995636,0.000732422,0,
00:08.7,0.00044632,-0.000995636,0.000720978,0,
00:08.7,0.000429153,-0.001012802,0.000715256,0,
00:08.7,0.00044632,-0.001012802,0.000703812,0,
00:08.7,0.000434875,-0.001018524,0.000715256,0,
00:08.7,0.000434875,-0.001018524,0.0007267,0,
00:08.7,0.00044632,-0.00100708,0.000720978,0,
00:08.7,0.000434875,-0.00103569,0.000709534,0,
00:08.7,0.000423431,-0.001052856,0.0007267,0,
00:08.7,0.00044632,-0.001018524,0.0007267,0,
00:08.7,0.000457764,-0.000989914,0.000715256,0,
00:08.7,0.000463486,-0.000989914,0.000715256,0,
00:08.7,0.00044632,-0.001012802,0.000715256,0,
00:08.7,0.000440598,-0.00103569,0.0007267,0,
00:08.7,0.000440598,-0.001024246,0.0007267,0,
00:08.7,0.00044632,-0.000984192,0.000732422,0,
00:08.7,0.000429153,-0.000989914,0.000732422,0,
00:08.7,0.000440598,-0.000989914,0.000720978,0,
00:08.7,0.000457764,-0.000995636,0.000720978,0,
00:08.7,0.000457764,-0.001001358,0.000720978,0,
00:08.7,0.00044632,-0.00100708,0.0007267,0,
00:08.7,0.00044632,-0.00100708,0.000715256,0,
00:08.7,0.000452042,-0.00100708,0.0007267,0,
00:08.7,0.00044632,-0.00100708,0.000732422,0,
00:08.7,0.000452042,-0.000989914,0.0007267,0,
00:08.8,0.000452042,-0.000984192,0.000715256,0,
00:08.8,0.000452042,-0.001001358,0.000720978,0,
00:08.8,0.000457764,-0.000995636,0.000703812,0,
00:08.8,0.000440598,-0.000995636,0.0007267,0,
00:08.8,0.000434875,-0.001018524,0.0007267,0,
00:08.8,0.000452042,-0.001018524,0.000720978,0,
00:08.8,0.000463486,-0.000995636,0.000703812,0,
00:08.8,0.000463486,-0.000972748,0.000709534,0,
00:08.8,0.000457764,-0.001001358,0.000720978,0,
00:08.8,0.000463486,-0.001012802,0.000715256,0,
00:08.8,0.000452042,-0.000989914,0.00069809,0,
00:08.8,0.00044632,-0.000984192,0.00069809,0,
00:08.8,0.00047493,-0.000995636,0.000709534,0,
00:08.8,0.000469208,-0.00100708,0.000709534,0,
00:08.8,0.000452042,-0.001001358,0.000709534,0,
00:08.8,0.000452042,-0.000984192,0.000692368,0,
00:08.8,0.00047493,-0.000984192,0.000686646,0,
00:08.8,0.00047493,-0.000984192,0.000692368,0,
00:08.8,0.000480652,-0.000989914,0.000692368,0,
00:08.8,0.00047493,-0.000989914,0.000680923,0,
00:08.8,0.000469208,-0.000989914,0.000680923,0,
00:08.8,0.000463486,-0.00100708,0.000692368,0,
00:08.8,0.000457764,-0.001024246,0.00069809,0,
00:08.8,0.000463486,-0.001012802,0.000686646,0,
00:08.8,0.000469208,-0.000995636,0.000675201,0,
00:08.9,0.000469208,-0.000995636,0.000663757,0,
00:08.9,0.00047493,-0.00097847,0.000663757,0,
00:08.9,0.000480652,-0.000967026,0.000652313,0,
00:08.9,0.000469208,-0.000984192,0.000652313,0,
00:08.9,0.000457764,-0.000995636,0.000652313,0,
00:08.9,0.000452042,-0.001018524,0.000658035,0,
00:08.9,0.00044632,-0.001041412,0.000658035,0,
00:08.9,0.00047493,-0.00100708,0.000652313,0,
00:08.9,0.000486374,-0.000955582,0.000640869,0,
00:08.9,0.000469208,-0.000967026,0.000635147,0,
00:08.9,0.000457764,-0.000984192,0.000629425,0,
00:08.9,0.00047493,-0.000995636,0.000629425,0,
00:08.9,0.00047493,-0.000989914,0.000629425,0,
00:08.9,0.000480652,-0.000972748,0.000635147,0,
00:08.9,0.000480652,-0.000961304,0.000635147,0,
00:08.9,0.00047493,-0.000972748,0.000612259,0,
00:08.9,0.000452042,-0.000989914,0.000623703,0,
00:08.9,0.000463486,-0.000989914,0.000629425,0,
00:08.9,0.000486374,-0.000984192,0.000612259,0,
00:08.9,0.000492096,-0.00097847,0.000606537,0,
00:08.9,0.000480652,-0.000984192,0.000595093,0,
00:08.9,0.00047493,-0.00097847,0.000589371,0,
00:08.9,0.00047493,-0.000961304,0.000577927,0,
00:08.9,0.000480652,-0.000995636,0.000595093,0,
00:08.9,0.000480652,-0.00100708,0.000583649,0,
00:09.0,0.00047493,-0.000989914,0.000577927,0,
00:09.0,0.000492096,-0.000961304,0.000572205,0,
00:09.0,0.000480652,-0.000967026,0.000555038,0,
00:09.0,0.000480652,-0.000967026,0.000549316,0,
00:09.0,0.000480652,-0.000967026,0.000566483,0,
00:09.0,0.000469208,-0.000984192,0.000555038,0,
00:09.0,0.000469208,-0.001001358,0.000537872,0,
00:09.0,0.00047493,-0.00100708,0.000549316,0,
00:09.0,0.000497818,-0.000984192,0.000543594,0,
00:09.0,0.00050354,-0.00094986,0.00053215,0,
00:09.0,0.000492096,-0.000955582,0.000509262,0,
00:09.0,0.000463486,-0.000967026,0.000526428,0,
00:00:09,0.000463486,-0.000989914,0.000520706,0,
00:09.0,0.000480652,-0.00100708,0.000509262,0,
00:09.0,0.000486374,-0.000984192,0.000497818,0,
00:09.0,0.000497818,-0.00094986,0.000492096,0,
00:09.0,0.000486374,-0.000972748,0.000492096,0,
00:09.0,0.000492096,-0.00097847,0.000486374,0,
00:09.0,0.000486374,-0.000989914,0.000492096,0,
00:09.0,0.000469208,-0.000989914,0.000486374,0,
00:09.0,0.00047493,-0.000989914,0.000480652,0,
00:09.0,0.000469208,-0.000984192,0.000463486,0,
00:09.0,0.000497818,-0.00097847,0.00044632,0,
00:09.0,0.000497818,-0.000984192,0.000452042,0,
00:09.0,0.00047493,-0.000984192,0.000457764,0,
00:09.1,0.000469208,-0.000989914,0.00044632,0,
00:09.1,0.000492096,-0.000995636,0.00044632,0,
00:09.1,0.00050354,-0.001001358,0.000434875,0,
00:09.1,0.000497818,-0.000989914,0.000440598,0,
00:09.1,0.000492096,-0.000984192,0.000423431,0,
00:09.1,0.00050354,-0.000984192,0.000406265,0,
00:09.1,0.000480652,-0.001018524,0.000406265,0,
00:09.1,0.00047493,-0.001012802,0.000417709,0,
00:09.1,0.000497818,-0.00097847,0.000394821,0,
00:09.1,0.000492096,-0.000972748,0.000400543,0,
00:09.1,0.000486374,-0.000984192,0.000389099,0,
00:09.1,0.000486374,-0.001001358,0.000400543,0,
00:09.1,0.000492096,-0.001012802,0.000389099,0,
00:09.1,0.00047493,-0.001001358,0.000389099,0,
00:09.1,0.000486374,-0.000984192,0.000377655,0,
00:09.1,0.00050354,-0.000995636,0.000371933,0,
00:09.1,0.000492096,-0.00100708,0.000360489,0,
00:09.1,0.000492096,-0.00100708,0.000366211,0,
00:09.1,0.000509262,-0.000984192,0.000349045,0,
00:09.1,0.000497818,-0.000955582,0.000337601,0,
00:09.1,0.000480652,-0.000984192,0.000343323,0,
00:09.1,0.000497818,-0.001018524,0.000343323,0,
00:09.1,0.000486374,-0.001001358,0.000331879,0,
00:09.1,0.000497818,-0.000967026,0.000314713,0,
00:09.1,0.000497818,-0.000961304,0.00030899,0,
00:09.2,0.00050354,-0.00097847,0.000314713,0,
00:09.2,0.00050354,-0.000989914,0.000326157,0,
00:09.2,0.000497818,-0.001001358,0.000314713,0,
00:09.2,0.000486374,-0.000995636,0.000303268,0,
00:09.2,0.000480652,-0.000972748,0.000297546,0,
00:09.2,0.000486374,-0.00097847,0.000268936,0,
00:09.2,0.000480652,-0.001018524,0.000274658,0,
00:09.2,0.000486374,-0.001012802,0.00028038,0,
00:09.2,0.000486374,-0.000984192,0.000274658,0,
00:09.2,0.00050354,-0.000972748,0.000263214,0,
00:09.2,0.000514984,-0.000972748,0.000263214,0,
00:09.2,0.000514984,-0.00097847,0.000257492,0,
00:09.2,0.000492096,-0.001001358,0.00025177,0,
00:09.2,0.000486374,-0.001018524,0.000240326,0,
00:09.2,0.000520706,-0.00097847,0.000257492,0,
00:09.2,0.000514984,-0.00097847,0.000240326,0,
00:09.2,0.000514984,-0.000972748,0.000234604,0,
00:09.2,0.00050354,-0.00097847,0.000228882,0,
00:09.2,0.000497818,-0.000989914,0.000211716,0,
00:09.2,0.00050354,-0.000989914,0.000205994,0,
00:09.2,0.000509262,-0.00097847,0.000211716,0,
00:09.2,0.00050354,-0.000984192,0.000200272,0,
00:09.2,0.00050354,-0.001012802,0.00019455,0,
00:09.2,0.000497818,-0.001029968,0.000188828,0,
00:09.2,0.00050354,-0.000995636,0.000200272,0,
00:09.3,0.000509262,-0.000972748,0.000183105,0,
00:09.3,0.000514984,-0.000961304,0.000183105,0,
00:09.3,0.000514984,-0.000967026,0.000177383,0,
00:09.3,0.00050354,-0.000989914,0.000177383,0,
00:09.3,0.00050354,-0.001012802,0.000154495,0,
00:09.3,0.000514984,-0.000984192,0.000154495,0,
00:09.3,0.000486374,-0.000972748,0.000165939,0,
00:09.3,0.000509262,-0.000984192,0.000165939,0,
00:09.3,0.000520706,-0.000989914,0.000160217,0,
00:09.3,0.000509262,-0.001001358,0.000154495,0,
00:09.3,0.000492096,-0.00100708,0.000160217,0,
00:09.3,0.00050354,-0.000989914,0.000148773,0,
00:09.3,0.000509262,-0.000984192,0.000137329,0,
00:09.3,0.00050354,-0.000984192,0.000125885,0,
00:09.3,0.000509262,-0.00097847,0.000114441,0,
00:09.3,0.000497818,-0.000989914,0.000114441,0,
00:09.3,0.000497818,-0.00100708,0.000120163,0,
00:09.3,0.000497818,-0.000989914,0.000125885,0,
00:09.3,0.000509262,-0.000967026,0.000108719,0,
00:09.3,0.000509262,-0.000972748,0.000108719,0,
00:09.3,0.00050354,-0.000984192,0.000102997,0,
00:09.3,0.000497818,-0.000995636,9.16E-05,0,
00:09.3,0.00050354,-0.001001358,8.58E-05,0,
00:09.3,0.00050354,-0.001001358,0.000102997,0,
00:09.3,0.00050354,-0.000995636,9.16E-05,0,
00:09.4,0.000509262,-0.000967026,8.58E-05,0,
00:09.4,0.00050354,-0.000967026,8.01E-05,0,
00:09.4,0.000486374,-0.000984192,7.44E-05,0,
00:09.4,0.000486374,-0.00100708,7.44E-05,0,
00:09.4,0.00050354,-0.000995636,6.87E-05,0,
00:09.4,0.000526428,-0.000967026,6.87E-05,0,
00:09.4,0.000520706,-0.00097847,6.29E-05,0,
00:09.4,0.000514984,-0.000995636,5.15E-05,0,
00:09.4,0.000526428,-0.000995636,5.15E-05,0,
00:09.4,0.000514984,-0.000989914,3.43E-05,0,
00:09.4,0.000492096,-0.000989914,2.86E-05,0,
00:09.4,0.000486374,-0.00100708,4.01E-05,0,
00:09.4,0.000486374,-0.001029968,2.29E-05,0,
00:09.4,0.000492096,-0.001012802,4.58E-05,0,
00:09.4,0.00050354,-0.000989914,2.86E-05,0,
00:09.4,0.000509262,-0.000984192,2.86E-05,0,
00:09.4,0.000514984,-0.000961304,2.86E-05,0,
00:09.4,0.000514984,-0.000955582,1.72E-05,0,
00:09.4,0.000520706,-0.00097847,1.72E-05,0,
00:09.4,0.000497818,-0.000989914,5.72E-06,0,
00:09.4,0.000497818,-0.000989914,5.72E-06,0,
00:09.4,0.00050354,-0.000984192,5.72E-06,0,
00:09.4,0.000497818,-0.000984192,-5.72E-06,0,
00:09.4,0.000497818,-0.001001358,-5.72E-06,0,
00:09.4,0.000492096,-0.001018524,-1.72E-05,0,
00:09.5,0.000492096,-0.001001358,-1.14E-05,0,
00:09.5,0.000514984,-0.000967026,-5.72E-06,0,
00:09.5,0.000514984,-0.000967026,-2.29E-05,0,
00:09.5,0.000514984,-0.000972748,-3.43E-05,0,
00:09.5,0.000514984,-0.000972748,-5.72E-06,0,
00:09.5,0.000509262,-0.00097847,-1.14E-05,0,
00:09.5,0.000514984,-0.000995636,-1.72E-05,0,
00:09.5,0.000492096,-0.001029968,-1.72E-05,0,
00:09.5,0.00050354,-0.001024246,-2.29E-05,0,
00:09.5,0.000514984,-0.000995636,-3.43E-05,0,
00:09.5,0.000509262,-0.000989914,-2.86E-05,0,
00:09.5,0.000509262,-0.00097847,-4.01E-05,0,
00:09.5,0.000509262,-0.000967026,-4.01E-05,0,
00:09.5,0.000520706,-0.000972748,-4.58E-05,0,
00:09.5,0.00050354,-0.00097847,-4.58E-05,0,
00:09.5,0.000509262,-0.000972748,-4.01E-05,0,
00:09.5,0.000497818,-0.000989914,-4.01E-05,0,
00:09.5,0.000492096,-0.001018524,-4.58E-05,0,
00:09.5,0.000514984,-0.001029968,-6.29E-05,0,
00:09.5,0.000520706,-0.001012802,-6.87E-05,0,
00:09.5,0.000520706,-0.000984192,-4.58E-05,0,
00:09.5,0.000520706,-0.000972748,-5.72E-05,0,
00:09.5,0.000520706,-0.000989914,-4.58E-05,0,
00:09.5,0.000514984,-0.00100708,-4.58E-05,0,
00:09.5,0.000509262,-0.001012802,-4.01E-05,0,
00:09.6,0.000497818,-0.001024246,-5.72E-05,0,
00:09.6,0.000497818,-0.001041412,-4.58E-05,0,
00:09.6,0.00050354,-0.00103569,-5.15E-05,0,
00:09.6,0.000520706,-0.00094986,-6.87E-05,0,
00:09.6,0.000549316,-0.000926971,-6.87E-05,0,
00:09.6,0.00053215,-0.000967026,-6.29E-05,0,
00:09.6,0.000514984,-0.000984192,-6.29E-05,0,
00:09.6,0.000514984,-0.000984192,-6.29E-05,0,
00:09.6,0.00050354,-0.000995636,-7.44E-05,0,
00:09.6,0.000514984,-0.000995636,-6.87E-05,0,
00:09.6,0.000520706,-0.000989914,-6.87E-05,0,
00:09.6,0.000514984,-0.00097847,-8.58E-05,0,
00:09.6,0.000509262,-0.000995636,-7.44E-05,0,
00:09.6,0.000497818,-0.001024246,-8.01E-05,0,
00:09.6,0.000509262,-0.001018524,-7.44E-05,0,
00:09.6,0.000520706,-0.00097847,-6.87E-05,0,
00:09.6,0.00050354,-0.000995636,-8.01E-05,0,
00:09.6,0.000497818,-0.001001358,-8.58E-05,0,
00:09.6,0.000514984,-0.000984192,-8.58E-05,0,
00:09.6,0.000520706,-0.00097847,-8.01E-05,0,
00:09.6,0.000509262,-0.000995636,-8.58E-05,0,
00:09.6,0.000486374,-0.00103569,-8.01E-05,0,
00:09.6,0.000492096,-0.001064301,-9.16E-05,0,
00:09.6,0.000514984,-0.001018524,-7.44E-05,0,
00:09.6,0.000537872,-0.000921249,-8.58E-05,0,
00:09.7,0.000526428,-0.000938416,-8.58E-05,0,
00:09.7,0.000509262,-0.000967026,-8.01E-05,0,
00:09.7,0.000537872,-0.00097847,-7.44E-05,0,
00:09.7,0.000526428,-0.000984192,-8.58E-05,0,
00:09.7,0.000520706,-0.000989914,-6.29E-05,0,
00:09.7,0.000514984,-0.000989914,-6.87E-05,0,
00:09.7,0.000514984,-0.000989914,-7.44E-05,0,
00:09.7,0.000509262,-0.000995636,-7.44E-05,0,
00:09.7,0.000514984,-0.00100708,-8.01E-05,0,
00:09.7,0.000526428,-0.001012802,-9.16E-05,0,
00:09.7,0.000514984,-0.00100708,-6.87E-05,0,
00:09.7,0.00050354,-0.001012802,-8.01E-05,0,
00:09.7,0.000520706,-0.00100708,-8.01E-05,0,
00:09.7,0.00053215,-0.000989914,-7.44E-05,0,
00:09.7,0.000520706,-0.00100708,-8.58E-05,0,
00:09.7,0.00050354,-0.001018524,-9.73E-05,0,
00:09.7,0.000514984,-0.00103569,-8.01E-05,0,
00:09.7,0.000492096,-0.001064301,-8.01E-05,0,
00:09.7,0.00050354,-0.001052856,-8.01E-05,0,
00:09.7,0.000520706,-0.000995636,-8.01E-05,0,
00:09.7,0.000520706,-0.000972748,-8.01E-05,0,
00:09.7,0.000526428,-0.000989914,-9.16E-05,0,
00:09.7,0.000537872,-0.000984192,-8.58E-05,0,
00:09.7,0.000537872,-0.00097847,-6.29E-05,0,
00:09.7,0.000537872,-0.00097847,-6.87E-05,0,
00:09.8,0.000514984,-0.001001358,-6.87E-05,0,
00:09.8,0.000514984,-0.00103569,-6.87E-05,0,
00:09.8,0.000526428,-0.001018524,-7.44E-05,0,
00:09.8,0.00053215,-0.000989914,-6.87E-05,0,
00:09.8,0.000526428,-0.000989914,-7.44E-05,0,
00:09.8,0.00053215,-0.001001358,-8.01E-05,0,
00:09.8,0.000543594,-0.001012802,-6.87E-05,0,
00:09.8,0.000543594,-0.001001358,-6.87E-05,0,
00:09.8,0.000549316,-0.000995636,-6.87E-05,0,
00:09.8,0.00053215,-0.000995636,-7.44E-05,0,
00:09.8,0.000520706,-0.001012802,-6.29E-05,0,
00:09.8,0.000514984,-0.001058578,-6.29E-05,0,
00:09.8,0.000509262,-0.001087189,-6.29E-05,0,
00:09.8,0.000526428,-0.00100708,-5.72E-05,0,
00:09.8,0.000526428,-0.000984192,-8.01E-05,0,
00:09.8,0.000514984,-0.000984192,-5.72E-05,0,
00:09.8,0.00053215,-0.000995636,-5.72E-05,0,
00:09.8,0.000537872,-0.001012802,-5.15E-05,0,
00:09.8,0.000537872,-0.001012802,-5.15E-05,0,
00:09.8,0.00053215,-0.001012802,-4.58E-05,0,
00:09.8,0.000526428,-0.001012802,-5.72E-05,0,
00:09.8,0.000520706,-0.000989914,-5.72E-05,0,
00:09.8,0.000555038,-0.000995636,-6.29E-05,0,
00:09.8,0.000555038,-0.001001358,-5.72E-05,0,
00:09.8,0.000537872,-0.001018524,-4.58E-05,0,
00:09.9,0.000526428,-0.001012802,-4.58E-05,0,
00:09.9,0.000526428,-0.000989914,-4.01E-05,0,
00:09.9,0.000537872,-0.000984192,-5.15E-05,0,
00:09.9,0.000526428,-0.00100708,-5.15E-05,0,
00:09.9,0.000520706,-0.001018524,-4.01E-05,0,
00:09.9,0.000514984,-0.001029968,-5.72E-05,0,
00:09.9,0.000514984,-0.001029968,-4.58E-05,0,
00:09.9,0.000509262,-0.001029968,-3.43E-05,0,
00:09.9,0.00050354,-0.001024246,-3.43E-05,0,
00:09.9,0.000526428,-0.001012802,-4.58E-05,0,
00:09.9,0.000526428,-0.001018524,-4.58E-05,0,
00:09.9,0.000509262,-0.000995636,-2.86E-05,0,
00:09.9,0.000497818,-0.00100708,-3.43E-05,0,
00:09.9,0.000520706,-0.001012802,-4.58E-05,0,
00:09.9,0.000520706,-0.001001358,-3.43E-05,0,
00:09.9,0.000526428,-0.000995636,-2.29E-05,0,
00:09.9,0.000537872,-0.000995636,-3.43E-05,0,
00:09.9,0.00053215,-0.000984192,-3.43E-05,0,
00:09.9,0.000526428,-0.000989914,-2.29E-05,0,
00:09.9,0.000526428,-0.000995636,-2.29E-05,0,
00:09.9,0.000520706,-0.000995636,-2.29E-05,0,
00:09.9,0.000526428,-0.001001358,-2.29E-05,0,
00:09.9,0.000537872,-0.000989914,-1.72E-05,0,
00:09.9,0.000520706,-0.000995636,-2.29E-05,0,
00:09.9,0.000514984,-0.000995636,-1.14E-05,0,
00:10.0,0.000514984,-0.001012802,-5.72E-06,0,
00:10.0,0.000520706,-0.001024246,-1.72E-05,0,
00:10.0,0.000526428,-0.00103569,0,0,
00:10.0,0.000520706,-0.001001358,0,0,
00:10.0,0.000520706,-0.00097847,0,0,
00:10.0,0.000509262,-0.000989914,-1.14E-05,0,
00:10.0,0.00050354,-0.001001358,5.72E-06,0,
00:10.0,0.00053215,-0.00100708,-5.72E-06,0,
00:10.0,0.000555038,-0.000984192,-5.72E-06,0,
00:10.0,0.000537872,-0.000989914,1.72E-05,0,
00:10.0,0.000526428,-0.001012802,2.29E-05,0,
00:10.0,0.000509262,-0.001029968,1.72E-05,0,
00:00:10,0.000520706,-0.001012802,1.14E-05,0,
00:10.0,0.00053215,-0.000995636,5.72E-06,0,
00:10.0,0.00053215,-0.000995636,1.72E-05,0,
00:10.0,0.00053215,-0.000984192,1.72E-05,0,
