Elapsed_Time,EMG1,EMG2,EMG3,BioRadio Event,Unnamed: 5
00:00:00,-0.000257492,-0.000429153,-0.000692368,0,
00:00.0,-0.000274658,-0.000429153,-0.000709534,0,
00:00.0,-0.000263214,-0.000423431,-0.0007267,0,
00:00.0,-0.000263214,-0.000423431,-0.000743866,0,
00:00.0,-0.000257492,-0.000429153,-0.00075531,0,
00:00.0,-0.000246048,-0.000440598,-0.000761032,0,
00:00.0,-0.00025177,-0.000434875,-0.000772476,0,
00:00.0,-0.000257492,-0.000440598,-0.00078392,0,
00:00.0,-0.000268936,-0.000440598,-0.000801086,0,
00:00.0,-0.000268936,-0.00044632,-0.000818253,0,
00:00.0,-0.000263214,-0.000452042,-0.000823975,0,
00:00.0,-0.000268936,-0.000452042,-0.000841141,0,
00:00.0,-0.000268936,-0.000463486,-0.000846863,0,
00:00.1,-0.000263214,-0.000457764,-0.000864029,0,
00:00.1,-0.000257492,-0.00044632,-0.000875473,0,
00:00.1,-0.000263214,-0.000452042,-0.000892639,0,
00:00.1,-0.000268936,-0.00044632,-0.000904083,0,
00:00.1,-0.000263214,-0.000440598,-0.000915527,0,
00:00.1,-0.00025177,-0.00044632,-0.000926971,0,
00:00.1,-0.000263214,-0.000457764,-0.000944138,0,
00:00.1,-0.000274658,-0.000463486,-0.000955582,0,
00:00.1,-0.000268936,-0.000457764,-0.000972748,0,
00:00.1,-0.000268936,-0.000457764,-0.000989914,0,
00:00.1,-0.000274658,-0.000469208,-0.001001358,0,
00:00.1,-0.000268936,-0.00047493,-0.001012802,0,
00:00.1,-0.000263214,-0.000457764,-0.001024246,0,
00:00.1,-0.000263214,-0.00044632,-0.00103569,0,
00:00.1,-0.000274658,-0.000457764,-0.001047134,0,
00:00.1,-0.00028038,-0.00047493,-0.001064301,0,
00:00.1,-0.000274658,-0.000469208,-0.001075745,0,
00:00.1,-0.000274658,-0.000452042,-0.001087189,0,
00:00.1,-0.000286102,-0.000463486,-0.001098633,0,
00:00.1,-0.00028038,-0.000463486,-0.001104355,0,
00:00.1,-0.000274658,-0.000457764,-0.001121521,0,
00:00.1,-0.000274658,-0.000463486,-0.001132965,0,
00:00.1,-0.000286102,-0.00047493,-0.001144409,0,
00:00.1,-0.000291824,-0.000480652,-0.001155853,0,
00:00.1,-0.000286102,-0.000469208,-0.001161575,0,
00:00.2,-0.000286102,-0.000463486,-0.001178741,0,
00:00.2,-0.000297546,-0.00047493,-0.001195908,0,
00:00.2,-0.00030899,-0.000497818,-0.001207352,0,
00:00.2,-0.00030899,-0.00050354,-0.001218796,0,
00:00.2,-0.000291824,-0.00047493,-0.00123024,0,
00:00.2,-0.00028038,-0.000457764,-0.001247406,0,
00:00.2,-0.000286102,-0.000457764,-0.00125885,0,
00:00.2,-0.000291824,-0.000469208,-0.001276016,0,
00:00.2,-0.000291824,-0.000486374,-0.00128746,0,
00:00.2,-0.000303268,-0.000497818,-0.001298904,0,
00:00.2,-0.000326157,-0.00050354,-0.001310349,0,
00:00.2,-0.000291824,-0.000480652,-0.001321793,0,
00:00.2,-0.00028038,-0.000457764,-0.001338959,0,
00:00.2,-0.000303268,-0.000469208,-0.001344681,0,
00:00.2,-0.000314713,-0.000480652,-0.001356125,0,
00:00.2,-0.000320435,-0.000486374,-0.001373291,0,
00:00.2,-0.000320435,-0.000486374,-0.001390457,0,
00:00.2,-0.000320435,-0.000492096,-0.001407623,0,
00:00.2,-0.000326157,-0.00050354,-0.001424789,0,
00:00.2,-0.000326157,-0.000486374,-0.001430511,0,
00:00.2,-0.000320435,-0.000480652,-0.001441956,0,
00:00.2,-0.000314713,-0.00047493,-0.0014534,0,
00:00.2,-0.000314713,-0.000486374,-0.001459122,0,
00:00.2,-0.000314713,-0.000486374,-0.001470566,0,
00:00.2,-0.000331879,-0.000492096,-0.00148201,0,
00:00.3,-0.000331879,-0.00050354,-0.001499176,0,
00:00.3,-0.000337601,-0.000497818,-0.00151062,0,
00:00.3,-0.000326157,-0.000492096,-0.001516342,0,
00:00.3,-0.00030899,-0.000480652,-0.001527786,0,
00:00.3,-0.000314713,-0.000486374,-0.00153923,0,
00:00.3,-0.000337601,-0.00050354,-0.001556396,0,
00:00.3,-0.000337601,-0.00050354,-0.001567841,0,
00:00.3,-0.000320435,-0.000492096,-0.001573563,0,
00:00.3,-0.00030899,-0.00047493,-0.001585007,0,
00:00.3,-0.000320435,-0.000486374,-0.001596451,0,
00:00.3,-0.000326157,-0.00050354,-0.001607895,0,
00:00.3,-0.000331879,-0.00050354,-0.001613617,0,
00:00.3,-0.000337601,-0.00050354,-0.001625061,0,
00:00.3,-0.000343323,-0.000514984,-0.001630783,0,
00:00.3,-0.000354767,-0.000509262,-0.001647949,0,
00:00.3,-0.000349045,-0.000497818,-0.001659393,0,
00:00.3,-0.000343323,-0.000497818,-0.001670837,0,
00:00.3,-0.000349045,-0.000509262,-0.001682281,0,
00:00.3,-0.000354767,-0.000514984,-0.001682281,0,
00:00.3,-0.000354767,-0.000509262,-0.001693726,0,
00:00.3,-0.000343323,-0.000486374,-0.00170517,0,
00:00.3,-0.000354767,-0.000492096,-0.001710892,0,
00:00.3,-0.000360489,-0.00050354,-0.001722336,0,
00:00.3,-0.000360489,-0.000509262,-0.00173378,0,
00:00.3,-0.000360489,-0.000514984,-0.001739502,0,
00:00.4,-0.000360489,-0.00050354,-0.001750946,0,
00:00.4,-0.000360489,-0.000497818,-0.001768112,0,
00:00.4,-0.000366211,-0.00050354,-0.001779556,0,
00:00.4,-0.000366211,-0.000520706,-0.001785278,0,
00:00.4,-0.000337601,-0.000497818,-0.001796722,0,
00:00.4,-0.000343323,-0.000486374,-0.001802444,0,
00:00.4,-0.000354767,-0.000509262,-0.001813889,0,
00:00.4,-0.000354767,-0.000520706,-0.001825333,0,
00:00.4,-0.000360489,-0.000526428,-0.001842499,0,
00:00.4,-0.000360489,-0.00050354,-0.001853943,0,
00:00.4,-0.000360489,-0.000497818,-0.001853943,0,
00:00.4,-0.000366211,-0.000514984,-0.001859665,0,
00:00.4,-0.000366211,-0.000526428,-0.001871109,0,
00:00.4,-0.000383377,-0.00053215,-0.001882553,0,
00:00.4,-0.000371933,-0.000526428,-0.001888275,0,
00:00.4,-0.000366211,-0.000514984,-0.001893997,0,
00:00.4,-0.000371933,-0.000514984,-0.001899719,0,
00:00.4,-0.000389099,-0.000537872,-0.001911163,0,
00:00.4,-0.000400543,-0.000549316,-0.001922607,0,
00:00.4,-0.000394821,-0.000526428,-0.001934052,0,
00:00.4,-0.000366211,-0.00050354,-0.001945496,0,
00:00.4,-0.000354767,-0.00050354,-0.001945496,0,
00:00.4,-0.000371933,-0.000520706,-0.001951218,0,
00:00.4,-0.000366211,-0.00053215,-0.001951218,0,
00:00.4,-0.000371933,-0.00053215,-0.00195694,0,
00:00.5,-0.000377655,-0.000526428,-0.001968384,0,
00:00.5,-0.000389099,-0.000543594,-0.001974106,0,
00:00.5,-0.000389099,-0.00053215,-0.00198555,0,
00:00.5,-0.000377655,-0.000526428,-0.001996994,0,
00:00.5,-0.000377655,-0.000514984,-0.002002716,0,
00:00.5,-0.000383377,-0.000526428,-0.002008438,0,
00:00.5,-0.000383377,-0.00053215,-0.00201416,0,
00:00.5,-0.000383377,-0.000526428,-0.002019882,0,
00:00.5,-0.000383377,-0.000520706,-0.002025604,0,
00:00.5,-0.000383377,-0.000526428,-0.002037048,0,
00:00.5,-0.000400543,-0.00053215,-0.00204277,0,
00:00.5,-0.000411987,-0.000537872,-0.002054214,0,
00:00.5,-0.000423431,-0.000543594,-0.002065659,0,
00:00.5,-0.000417709,-0.000543594,-0.002071381,0,
00:00.5,-0.000411987,-0.000526428,-0.002077103,0,
00:00.5,-0.000406265,-0.000526428,-0.002082825,0,
00:00.5,-0.000406265,-0.000537872,-0.002088547,0,
00:00.5,-0.000400543,-0.000526428,-0.002094269,0,
00:00.5,-0.000400543,-0.000526428,-0.002099991,0,
00:00.5,-0.000406265,-0.000526428,-0.002105713,0,
00:00.5,-0.000406265,-0.000537872,-0.002105713,0,
00:00.5,-0.000400543,-0.00053215,-0.002111435,0,
00:00.5,-0.000406265,-0.000537872,-0.002117157,0,
00:00.5,-0.000406265,-0.000543594,-0.002128601,0,
00:00.5,-0.000417709,-0.000537872,-0.002134323,0,
00:00.6,-0.000411987,-0.00053215,-0.002140045,0,
00:00.6,-0.000400543,-0.000537872,-0.002145767,0,
00:00.6,-0.000400543,-0.000543594,-0.002151489,0,
00:00.6,-0.000406265,-0.000549316,-0.002157211,0,
00:00.6,-0.000411987,-0.000549316,-0.002157211,0,
00:00.6,-0.000411987,-0.000537872,-0.002162933,0,
00:00.6,-0.000423431,-0.000549316,-0.002162933,0,
00:00.6,-0.000423431,-0.000549316,-0.002174377,0,
00:00.6,-0.000423431,-0.00053215,-0.002180099,0,
00:00.6,-0.000434875,-0.000543594,-0.002191544,0,
00:00.6,-0.00044632,-0.000566483,-0.002197266,0,
00:00.6,-0.000440598,-0.000572205,-0.002197266,0,
00:00.6,-0.000417709,-0.000549316,-0.002197266,0,
00:00.6,-0.000423431,-0.000543594,-0.002202988,0,
00:00.6,-0.000434875,-0.000555038,-0.00220871,0,
00:00.6,-0.000440598,-0.000555038,-0.00220871,0,
00:00.6,-0.000429153,-0.000543594,-0.002214432,0,
00:00.6,-0.000417709,-0.000543594,-0.002214432,0,
00:00.6,-0.000423431,-0.000543594,-0.002220154,0,
00:00.6,-0.000440598,-0.000555038,-0.002231598,0,
00:00.6,-0.00044632,-0.000566483,-0.002231598,0,
00:00.6,-0.000440598,-0.00056076,-0.00223732,0,
00:00.6,-0.000440598,-0.00056076,-0.00223732,0,
00:00.6,-0.000440598,-0.000555038,-0.002248764,0,
00:00.6,-0.000440598,-0.000555038,-0.002248764,0,
00:00.7,-0.000429153,-0.000537872,-0.002243042,0,
00:00.7,-0.000434875,-0.000549316,-0.002248764,0,
00:00.7,-0.000452042,-0.00056076,-0.002254486,0,
00:00.7,-0.000452042,-0.000572205,-0.002254486,0,
00:00.7,-0.00044632,-0.00056076,-0.002254486,0,
00:00.7,-0.000463486,-0.000566483,-0.002254486,0,
00:00.7,-0.000463486,-0.000572205,-0.002254486,0,
00:00.7,-0.000429153,-0.000555038,-0.002254486,0,
00:00.7,-0.000417709,-0.000549316,-0.00226593,0,
00:00.7,-0.000429153,-0.000555038,-0.002271652,0,
00:00.7,-0.000429153,-0.00056076,-0.002283096,0,
00:00.7,-0.000434875,-0.000566483,-0.002277374,0,
00:00.7,-0.000440598,-0.000572205,-0.002277374,0,
00:00.7,-0.00044632,-0.000577927,-0.002283096,0,
00:00.7,-0.000452042,-0.000577927,-0.002283096,0,
00:00.7,-0.000452042,-0.000572205,-0.002283096,0,
00:00.7,-0.000440598,-0.000555038,-0.002283096,0,
00:00.7,-0.000429153,-0.000555038,-0.002283096,0,
00:00.7,-0.000434875,-0.000555038,-0.002288818,0,
00:00.7,-0.00044632,-0.00056076,-0.002288818,0,
00:00.7,-0.000452042,-0.000555038,-0.002288818,0,
00:00.7,-0.000457764,-0.000566483,-0.00229454,0,
00:00.7,-0.000452042,-0.00056076,-0.00229454,0,
00:00.7,-0.000452042,-0.000566483,-0.00229454,0,
00:00.7,-0.00044632,-0.000566483,-0.00229454,0,
00:00.8,-0.00044632,-0.000566483,-0.002305984,0,
00:00.8,-0.000452042,-0.00056076,-0.002311707,0,
00:00.8,-0.000457764,-0.000566483,-0.002300262,0,
00:00.8,-0.000452042,-0.000549316,-0.002300262,0,
00:00.8,-0.000452042,-0.000555038,-0.002305984,0,
00:00.8,-0.000463486,-0.00056076,-0.002305984,0,
00:00.8,-0.000452042,-0.000543594,-0.002305984,0,
00:00.8,-0.000440598,-0.000526428,-0.002305984,0,
00:00.8,-0.00044632,-0.00053215,-0.002305984,0,
00:00.8,-0.000457764,-0.000549316,-0.002311707,0,
00:00.8,-0.000463486,-0.00056076,-0.002317429,0,
00:00.8,-0.000457764,-0.000555038,-0.002317429,0,
00:00.8,-0.000457764,-0.000555038,-0.002317429,0,
00:00.8,-0.000463486,-0.00056076,-0.002317429,0,
00:00.8,-0.000469208,-0.000577927,-0.002323151,0,
00:00.8,-0.000469208,-0.000572205,-0.002323151,0,
00:00.8,-0.000457764,-0.000543594,-0.002323151,0,
00:00.8,-0.000463486,-0.000549316,-0.002323151,0,
00:00.8,-0.000469208,-0.000555038,-0.002317429,0,
00:00.8,-0.000469208,-0.000543594,-0.002317429,0,
00:00.8,-0.000480652,-0.000555038,-0.002323151,0,
00:00.8,-0.000492096,-0.000577927,-0.002323151,0,
00:00.8,-0.000492096,-0.00056076,-0.002323151,0,
00:00.8,-0.000469208,-0.000537872,-0.002323151,0,
00:00.8,-0.000463486,-0.000537872,-0.002328873,0,
00:00.9,-0.000469208,-0.00053215,-0.002323151,0,
00:00.9,-0.000463486,-0.00053215,-0.002323151,0,
00:00.9,-0.000457764,-0.000549316,-0.002323151,0,
00:00.9,-0.000463486,-0.000555038,-0.002317429,0,
00:00.9,-0.000463486,-0.000549316,-0.002323151,0,
00:00.9,-0.000463486,-0.000543594,-0.002323151,0,
00:00.9,-0.000457764,-0.000537872,-0.002328873,0,
00:00.9,-0.00047493,-0.000543594,-0.002334595,0,
00:00.9,-0.000480652,-0.000555038,-0.002334595,0,
00:00.9,-0.000480652,-0.000537872,-0.002323151,0,
00:00.9,-0.000486374,-0.000537872,-0.002323151,0,
00:00.9,-0.000469208,-0.000526428,-0.002323151,0,
00:00.9,-0.000463486,-0.00053215,-0.002323151,0,
00:00.9,-0.000469208,-0.000555038,-0.002323151,0,
00:00.9,-0.000480652,-0.000566483,-0.002317429,0,
00:00.9,-0.000480652,-0.000566483,-0.002317429,0,
00:00.9,-0.00047493,-0.000555038,-0.002317429,0,
00:00.9,-0.000469208,-0.000520706,-0.002317429,0,
00:00.9,-0.00047493,-0.000514984,-0.002323151,0,
00:00.9,-0.00047493,-0.000526428,-0.002323151,0,
00:00.9,-0.000480652,-0.00053215,-0.002323151,0,
00:00.9,-0.000492096,-0.000537872,-0.002317429,0,
00:00.9,-0.000497818,-0.000543594,-0.002317429,0,
00:00.9,-0.00050354,-0.000537872,-0.002317429,0,
00:00.9,-0.000480652,-0.000526428,-0.002317429,0,
00:01.0,-0.000480652,-0.000537872,-0.002317429,0,
00:01.0,-0.000492096,-0.000543594,-0.002317429,0,
00:01.0,-0.00050354,-0.000537872,-0.002317429,0,
00:01.0,-0.00050354,-0.000555038,-0.002317429,0,
00:01.0,-0.000492096,-0.000537872,-0.002317429,0,
00:01.0,-0.000497818,-0.000526428,-0.002317429,0,
00:01.0,-0.00050354,-0.00053215,-0.002311707,0,
00:01.0,-0.000497818,-0.000543594,-0.002317429,0,
00:01.0,-0.000497818,-0.00053215,-0.002323151,0,
00:01.0,-0.000492096,-0.000526428,-0.002323151,0,
00:01.0,-0.00050354,-0.00053215,-0.002323151,0,
00:01.0,-0.000497818,-0.000526428,-0.002323151,0,
00:00:01,-0.000486374,-0.000537872,-0.002317429,0,
00:01.0,-0.000492096,-0.000543594,-0.002317429,0,
00:01.0,-0.000492096,-0.000526428,-0.002311707,0,
00:01.0,-0.00050354,-0.00053215,-0.002311707,0,
00:01.0,-0.000497818,-0.00053215,-0.002311707,0,
00:01.0,-0.000492096,-0.00053215,-0.002311707,0,
00:01.0,-0.000492096,-0.00053215,-0.002311707,0,
00:01.0,-0.00050354,-0.00053215,-0.002305984,0,
00:01.0,-0.000509262,-0.000543594,-0.002305984,0,
00:01.0,-0.000492096,-0.000543594,-0.002311707,0,
00:01.0,-0.000480652,-0.000526428,-0.002311707,0,
00:01.0,-0.00047493,-0.000514984,-0.002311707,0,
00:01.0,-0.000486374,-0.00053215,-0.002311707,0,
00:01.1,-0.000497818,-0.00053215,-0.002305984,0,
00:01.1,-0.000497818,-0.000543594,-0.002300262,0,
00:01.1,-0.000497818,-0.000555038,-0.002300262,0,
00:01.1,-0.000492096,-0.000543594,-0.002300262,0,
00:01.1,-0.000492096,-0.000514984,-0.002305984,0,
00:01.1,-0.000480652,-0.000514984,-0.002305984,0,
00:01.1,-0.000480652,-0.000520706,-0.002311707,0,
00:01.1,-0.000492096,-0.000537872,-0.002311707,0,
00:01.1,-0.00050354,-0.000543594,-0.002305984,0,
00:01.1,-0.000514984,-0.000526428,-0.002305984,0,
00:01.1,-0.000520706,-0.00053215,-0.002305984,0,
00:01.1,-0.000526428,-0.000537872,-0.002305984,0,
00:01.1,-0.000520706,-0.000537872,-0.002305984,0,
00:01.1,-0.000497818,-0.000520706,-0.002305984,0,
00:01.1,-0.000497818,-0.000509262,-0.002305984,0,
00:01.1,-0.000509262,-0.000520706,-0.002305984,0,
00:01.1,-0.000514984,-0.000526428,-0.002305984,0,
00:01.1,-0.000514984,-0.000520706,-0.002300262,0,
00:01.1,-0.000520706,-0.00053215,-0.002300262,0,
00:01.1,-0.000520706,-0.00053215,-0.00229454,0,
00:01.1,-0.000520706,-0.000526428,-0.002300262,0,
00:01.1,-0.000520706,-0.000520706,-0.002300262,0,
00:01.1,-0.000509262,-0.000514984,-0.002305984,0,
00:01.1,-0.000497818,-0.000509262,-0.002305984,0,
00:01.1,-0.000509262,-0.000526428,-0.002305984,0,
00:01.2,-0.000520706,-0.00053215,-0.002305984,0,
00:01.2,-0.000526428,-0.000526428,-0.002300262,0,
00:01.2,-0.000520706,-0.000514984,-0.002305984,0,
00:01.2,-0.000514984,-0.000509262,-0.002305984,0,
00:01.2,-0.000514984,-0.00050354,-0.002305984,0,
00:01.2,-0.00053215,-0.000520706,-0.002305984,0,
00:01.2,-0.00053215,-0.000520706,-0.002300262,0,
00:01.2,-0.000526428,-0.000514984,-0.00229454,0,
00:01.2,-0.000520706,-0.00050354,-0.002300262,0,
00:01.2,-0.000526428,-0.000509262,-0.002300262,0,
00:01.2,-0.00053215,-0.000514984,-0.002300262,0,
00:01.2,-0.000537872,-0.000514984,-0.00229454,0,
00:01.2,-0.000543594,-0.000514984,-0.002300262,0,
00:01.2,-0.000543594,-0.000514984,-0.002300262,0,
00:01.2,-0.000543594,-0.00050354,-0.002300262,0,
00:01.2,-0.000543594,-0.00050354,-0.002305984,0,
00:01.2,-0.000543594,-0.000509262,-0.002305984,0,
00:01.2,-0.000549316,-0.000514984,-0.002305984,0,
00:01.2,-0.000537872,-0.000509262,-0.002300262,0,
00:01.2,-0.000543594,-0.000509262,-0.002305984,0,
00:01.2,-0.000543594,-0.000509262,-0.002305984,0,
00:01.2,-0.000549316,-0.000509262,-0.002305984,0,
00:01.2,-0.000543594,-0.000497818,-0.002311707,0,
00:01.2,-0.000537872,-0.000497818,-0.002317429,0,
00:01.2,-0.000549316,-0.000509262,-0.002317429,0,
00:01.3,-0.000555038,-0.000526428,-0.002311707,0,
00:01.3,-0.000566483,-0.000520706,-0.002311707,0,
00:01.3,-0.000549316,-0.00050354,-0.002311707,0,
00:01.3,-0.000549316,-0.000492096,-0.002317429,0,
00:01.3,-0.000566483,-0.000509262,-0.002323151,0,
00:01.3,-0.000555038,-0.00050354,-0.002328873,0,
00:01.3,-0.000549316,-0.00050354,-0.002334595,0,
00:01.3,-0.000555038,-0.000497818,-0.002334595,0,
00:01.3,-0.000555038,-0.000492096,-0.002334595,0,
00:01.3,-0.00056076,-0.000497818,-0.002334595,0,
00:01.3,-0.00056076,-0.000497818,-0.002328873,0,
00:01.3,-0.00056076,-0.000497818,-0.002328873,0,
00:01.3,-0.00056076,-0.000509262,-0.002328873,0,
00:01.3,-0.00056076,-0.00050354,-0.002328873,0,
00:01.3,-0.000555038,-0.000497818,-0.002323151,0,
00:01.3,-0.000555038,-0.000497818,-0.002323151,0,
00:01.3,-0.000549316,-0.000492096,-0.002328873,0,
00:01.3,-0.00056076,-0.000497818,-0.002328873,0,
00:01.3,-0.000572205,-0.000520706,-0.002328873,0,
00:01.3,-0.000583649,-0.000526428,-0.002328873,0,
00:01.3,-0.000577927,-0.00050354,-0.002334595,0,
00:01.3,-0.000566483,-0.000469208,-0.002340317,0,
00:01.3,-0.000572205,-0.000480652,-0.002340317,0,
00:01.3,-0.000572205,-0.000486374,-0.002340317,0,
00:01.3,-0.000583649,-0.000486374,-0.002340317,0,
00:01.4,-0.000583649,-0.000492096,-0.002346039,0,
00:01.4,-0.000583649,-0.00050354,-0.002340317,0,
00:01.4,-0.000577927,-0.000486374,-0.002340317,0,
00:01.4,-0.000577927,-0.000486374,-0.002340317,0,
00:01.4,-0.000577927,-0.000480652,-0.002346039,0,
00:01.4,-0.000595093,-0.000497818,-0.002351761,0,
00:01.4,-0.000600815,-0.00050354,-0.002357483,0,
00:01.4,-0.000589371,-0.000492096,-0.002357483,0,
00:01.4,-0.000572205,-0.000469208,-0.002357483,0,
00:01.4,-0.000583649,-0.000480652,-0.002351761,0,
00:01.4,-0.000600815,-0.000492096,-0.002351761,0,
00:01.4,-0.000612259,-0.000492096,-0.002351761,0,
00:01.4,-0.000606537,-0.000486374,-0.002357483,0,
00:01.4,-0.000606537,-0.000480652,-0.002357483,0,
00:01.4,-0.000600815,-0.00047493,-0.002363205,0,
00:01.4,-0.000595093,-0.00047493,-0.002368927,0,
00:01.4,-0.000595093,-0.00047493,-0.002374649,0,
00:01.4,-0.000595093,-0.000469208,-0.002368927,0,
00:01.4,-0.000600815,-0.000480652,-0.002368927,0,
00:01.4,-0.000612259,-0.000469208,-0.002368927,0,
00:01.4,-0.000612259,-0.00047493,-0.002380371,0,
00:01.4,-0.000612259,-0.000492096,-0.002380371,0,
00:01.4,-0.000612259,-0.000486374,-0.002374649,0,
00:01.4,-0.000617981,-0.000469208,-0.002374649,0,
00:01.4,-0.000606537,-0.000463486,-0.002374649,0,
00:01.5,-0.000595093,-0.000469208,-0.002374649,0,
00:01.5,-0.000600815,-0.000469208,-0.002380371,0,
00:01.5,-0.000600815,-0.000463486,-0.002380371,0,
00:01.5,-0.000612259,-0.000480652,-0.002386093,0,
00:01.5,-0.000629425,-0.000486374,-0.002386093,0,
00:01.5,-0.000635147,-0.000486374,-0.002391815,0,
00:01.5,-0.000629425,-0.000469208,-0.002391815,0,
00:01.5,-0.000623703,-0.000463486,-0.002397537,0,
00:01.5,-0.000617981,-0.00047493,-0.002397537,0,
00:01.5,-0.000612259,-0.000463486,-0.002403259,0,
00:01.5,-0.000606537,-0.000440598,-0.002403259,0,
00:01.5,-0.000606537,-0.000440598,-0.002408981,0,
00:01.5,-0.000612259,-0.00044632,-0.002414703,0,
00:01.5,-0.000617981,-0.000463486,-0.002414703,0,
00:01.5,-0.000629425,-0.000463486,-0.002414703,0,
00:01.5,-0.000635147,-0.000463486,-0.002426147,0,
00:01.5,-0.000635147,-0.00047493,-0.002426147,0,
00:01.5,-0.000652313,-0.000480652,-0.002426147,0,
00:01.5,-0.000646591,-0.000480652,-0.00243187,0,
00:01.5,-0.000640869,-0.000452042,-0.00243187,0,
00:01.5,-0.000629425,-0.00044632,-0.002437592,0,
00:01.5,-0.000629425,-0.000452042,-0.002437592,0,
00:01.5,-0.000629425,-0.000463486,-0.002437592,0,
00:01.5,-0.000640869,-0.000463486,-0.002443314,0,
00:01.5,-0.000652313,-0.000463486,-0.002449036,0,
00:01.6,-0.000640869,-0.000457764,-0.002449036,0,
00:01.6,-0.000635147,-0.000452042,-0.002449036,0,
00:01.6,-0.000640869,-0.000457764,-0.002454758,0,
00:01.6,-0.000646591,-0.000452042,-0.00246048,0,
00:01.6,-0.000640869,-0.000440598,-0.002466202,0,
00:01.6,-0.000640869,-0.00044632,-0.002466202,0,
00:01.6,-0.000635147,-0.000452042,-0.002471924,0,
00:01.6,-0.000640869,-0.00044632,-0.002471924,0,
00:01.6,-0.000646591,-0.00044632,-0.002477646,0,
00:01.6,-0.000652313,-0.00044632,-0.002483368,0,
00:01.6,-0.000658035,-0.000457764,-0.00248909,0,
00:01.6,-0.000669479,-0.000457764,-0.00248909,0,
00:01.6,-0.000675201,-0.000452042,-0.002494812,0,
00:01.6,-0.000669479,-0.000457764,-0.002494812,0,
00:01.6,-0.000669479,-0.000452042,-0.002500534,0,
00:01.6,-0.000669479,-0.000434875,-0.002506256,0,
00:01.6,-0.000652313,-0.00044632,-0.002511978,0,
00:01.6,-0.000663757,-0.000457764,-0.0025177,0,
00:01.6,-0.000658035,-0.000440598,-0.002523422,0,
00:01.6,-0.000652313,-0.000429153,-0.002529144,0,
00:01.6,-0.000658035,-0.000434875,-0.002534866,0,
00:01.6,-0.000663757,-0.00044632,-0.002540588,0,
00:01.6,-0.000652313,-0.00044632,-0.00254631,0,
00:01.6,-0.000663757,-0.000434875,-0.002552032,0,
00:01.6,-0.000669479,-0.000434875,-0.002552032,0,
00:01.7,-0.000663757,-0.000440598,-0.002552032,0,
00:01.7,-0.000658035,-0.000434875,-0.002557755,0,
00:01.7,-0.000663757,-0.000429153,-0.002557755,0,
00:01.7,-0.000675201,-0.00044632,-0.002563477,0,
00:01.7,-0.000686646,-0.000452042,-0.002563477,0,
00:01.7,-0.00069809,-0.000457764,-0.002569199,0,
00:01.7,-0.00069809,-0.000463486,-0.002574921,0,
00:01.7,-0.000692368,-0.000457764,-0.002580643,0,
00:01.7,-0.000692368,-0.000463486,-0.002592087,0,
00:01.7,-0.00069809,-0.000463486,-0.002597809,0,
00:01.7,-0.000703812,-0.00044632,-0.002597809,0,
00:01.7,-0.00069809,-0.000429153,-0.002597809,0,
00:01.7,-0.000692368,-0.000434875,-0.002603531,0,
00:01.7,-0.00069809,-0.000429153,-0.002609253,0,
00:01.7,-0.00069809,-0.000434875,-0.002609253,0,
00:01.7,-0.000703812,-0.000440598,-0.002614975,0,
00:01.7,-0.000720978,-0.00044632,-0.002620697,0,
00:01.7,-0.000715256,-0.000463486,-0.002620697,0,
00:01.7,-0.000692368,-0.000440598,-0.002626419,0,
00:01.7,-0.000692368,-0.000434875,-0.002632141,0,
00:01.7,-0.00069809,-0.000434875,-0.002632141,0,
00:01.7,-0.00069809,-0.000434875,-0.002637863,0,
00:01.7,-0.000703812,-0.000440598,-0.002643585,0,
00:01.7,-0.000709534,-0.00044632,-0.002649307,0,
00:01.7,-0.000715256,-0.000440598,-0.002655029,0,
00:01.8,-0.000715256,-0.000440598,-0.002655029,0,
00:01.8,-0.000720978,-0.000457764,-0.002660751,0,
00:01.8,-0.000732422,-0.000463486,-0.002660751,0,
00:01.8,-0.000738144,-0.00044632,-0.002660751,0,
00:01.8,-0.000738144,-0.000429153,-0.002660751,0,
00:01.8,-0.000738144,-0.000429153,-0.002666473,0,
00:01.8,-0.000732422,-0.000423431,-0.002672195,0,
00:01.8,-0.000732422,-0.000423431,-0.002677917,0,
00:01.8,-0.000743866,-0.000423431,-0.00268364,0,
00:01.8,-0.00075531,-0.000429153,-0.00268364,0,
00:01.8,-0.000743866,-0.000434875,-0.002689362,0,
00:01.8,-0.0007267,-0.000429153,-0.002695084,0,
00:01.8,-0.000738144,-0.000440598,-0.002695084,0,
00:01.8,-0.000743866,-0.000440598,-0.002695084,0,
00:01.8,-0.000743866,-0.000429153,-0.002700806,0,
00:01.8,-0.000749588,-0.000429153,-0.002706528,0,
00:01.8,-0.00075531,-0.000429153,-0.002706528,0,
00:01.8,-0.000738144,-0.000423431,-0.002706528,0,
00:01.8,-0.000743866,-0.000417709,-0.00271225,0,
00:01.8,-0.00075531,-0.000423431,-0.002717972,0,
00:01.8,-0.000761032,-0.000429153,-0.002723694,0,
00:01.8,-0.000766754,-0.000434875,-0.002729416,0,
00:01.8,-0.000772476,-0.000440598,-0.002735138,0,
00:01.8,-0.000766754,-0.000434875,-0.002735138,0,
00:01.8,-0.000778198,-0.000434875,-0.002729416,0,
00:01.9,-0.000772476,-0.000423431,-0.002735138,0,
00:01.9,-0.000761032,-0.000429153,-0.002735138,0,
00:01.9,-0.000766754,-0.000429153,-0.00274086,0,
00:01.9,-0.000772476,-0.000423431,-0.00274086,0,
00:01.9,-0.000778198,-0.000434875,-0.00274086,0,
00:01.9,-0.000761032,-0.000417709,-0.002746582,0,
00:01.9,-0.00075531,-0.000417709,-0.002752304,0,
00:01.9,-0.000766754,-0.000440598,-0.002758026,0,
00:01.9,-0.000778198,-0.00044632,-0.002758026,0,
00:01.9,-0.000772476,-0.000440598,-0.002758026,0,
00:01.9,-0.000761032,-0.000411987,-0.002758026,0,
00:01.9,-0.000766754,-0.000417709,-0.002758026,0,
00:01.9,-0.000772476,-0.000423431,-0.002763748,0,
00:01.9,-0.00078392,-0.000434875,-0.002758026,0,
00:01.9,-0.000772476,-0.000440598,-0.00276947,0,
00:01.9,-0.000778198,-0.000440598,-0.002775192,0,
00:01.9,-0.00078392,-0.000434875,-0.002775192,0,
00:01.9,-0.000778198,-0.000434875,-0.002775192,0,
00:01.9,-0.000778198,-0.000434875,-0.00276947,0,
00:01.9,-0.000778198,-0.000417709,-0.00276947,0,
00:01.9,-0.000778198,-0.000429153,-0.002775192,0,
00:01.9,-0.00078392,-0.000434875,-0.002780914,0,
00:01.9,-0.000789642,-0.000440598,-0.002786636,0,
00:01.9,-0.000795364,-0.000440598,-0.002786636,0,
00:01.9,-0.000801086,-0.000429153,-0.002792358,0,
00:02.0,-0.000789642,-0.000423431,-0.002786636,0,
00:02.0,-0.000789642,-0.000434875,-0.002786636,0,
00:02.0,-0.000806808,-0.00044632,-0.002792358,0,
00:02.0,-0.000806808,-0.000434875,-0.002792358,0,
00:02.0,-0.000812531,-0.000429153,-0.002792358,0,
00:02.0,-0.000806808,-0.000417709,-0.002792358,0,
00:02.0,-0.000795364,-0.000411987,-0.00279808,0,
00:02.0,-0.000789642,-0.000423431,-0.002809525,0,
00:02.0,-0.000806808,-0.000423431,-0.002803802,0,
00:02.0,-0.000818253,-0.000423431,-0.002803802,0,
00:02.0,-0.000806808,-0.000423431,-0.002803802,0,
00:02.0,-0.000801086,-0.000423431,-0.002803802,0,
00:00:02,-0.000806808,-0.000417709,-0.002809525,0,
00:02.0,-0.000812531,-0.000423431,-0.002809525,0,
00:02.0,-0.000823975,-0.000429153,-0.002809525,0,
00:02.0,-0.000823975,-0.000417709,-0.002809525,0,
00:02.0,-0.000823975,-0.000417709,-0.002809525,0,
00:02.0,-0.000818253,-0.000423431,-0.002803802,0,
00:02.0,-0.000818253,-0.000423431,-0.002809525,0,
00:02.0,-0.000823975,-0.000406265,-0.002815247,0,
00:02.0,-0.000823975,-0.000417709,-0.002815247,0,
00:02.0,-0.000823975,-0.000406265,-0.002815247,0,
00:02.0,-0.000823975,-0.000417709,-0.002815247,0,
00:02.0,-0.000829697,-0.000411987,-0.002820969,0,
00:02.0,-0.000829697,-0.000406265,-0.002820969,0,
00:02.1,-0.000835419,-0.000423431,-0.002815247,0,
00:02.1,-0.000841141,-0.000429153,-0.002820969,0,
00:02.1,-0.000841141,-0.000429153,-0.002820969,0,
00:02.1,-0.000835419,-0.000440598,-0.002820969,0,
00:02.1,-0.000835419,-0.000429153,-0.002826691,0,
00:02.1,-0.000835419,-0.000417709,-0.002820969,0,
00:02.1,-0.000835419,-0.000423431,-0.002826691,0,
00:02.1,-0.000835419,-0.000417709,-0.002826691,0,
00:02.1,-0.000841141,-0.000423431,-0.002826691,0,
00:02.1,-0.000858307,-0.000429153,-0.002826691,0,
00:02.1,-0.000869751,-0.000440598,-0.002826691,0,
00:02.1,-0.000841141,-0.000423431,-0.002826691,0,
00:02.1,-0.000835419,-0.000417709,-0.002826691,0,
00:02.1,-0.000852585,-0.000417709,-0.002826691,0,
00:02.1,-0.000858307,-0.000423431,-0.002826691,0,
00:02.1,-0.000875473,-0.000429153,-0.002826691,0,
00:02.1,-0.000875473,-0.000434875,-0.002820969,0,
00:02.1,-0.000864029,-0.000423431,-0.002820969,0,
00:02.1,-0.000875473,-0.000429153,-0.002820969,0,
00:02.1,-0.000869751,-0.000429153,-0.002820969,0,
00:02.1,-0.000852585,-0.000411987,-0.002820969,0,
00:02.1,-0.000835419,-0.000400543,-0.002820969,0,
00:02.1,-0.000841141,-0.000423431,-0.002820969,0,
00:02.1,-0.000852585,-0.000423431,-0.002815247,0,
00:02.1,-0.000858307,-0.000417709,-0.002815247,0,
00:02.2,-0.000864029,-0.000429153,-0.002815247,0,
00:02.2,-0.000858307,-0.000423431,-0.002815247,0,
00:02.2,-0.000858307,-0.000423431,-0.002820969,0,
00:02.2,-0.000869751,-0.00044632,-0.002815247,0,
00:02.2,-0.000875473,-0.000434875,-0.002815247,0,
00:02.2,-0.000864029,-0.000417709,-0.002815247,0,
00:02.2,-0.000858307,-0.000423431,-0.002809525,0,
00:02.2,-0.000864029,-0.000434875,-0.002809525,0,
00:02.2,-0.000869751,-0.000440598,-0.002809525,0,
00:02.2,-0.000869751,-0.000423431,-0.002809525,0,
00:02.2,-0.000869751,-0.000417709,-0.002809525,0,
00:02.2,-0.000869751,-0.000423431,-0.002803802,0,
00:02.2,-0.000881195,-0.000429153,-0.002803802,0,
00:02.2,-0.000875473,-0.000429153,-0.002803802,0,
00:02.2,-0.000875473,-0.000411987,-0.002809525,0,
00:02.2,-0.000875473,-0.000417709,-0.002803802,0,
00:02.2,-0.000869751,-0.000411987,-0.002803802,0,
00:02.2,-0.000881195,-0.000423431,-0.002803802,0,
00:02.2,-0.000881195,-0.000434875,-0.00279808,0,
00:02.2,-0.000869751,-0.000423431,-0.002792358,0,
00:02.2,-0.000858307,-0.000423431,-0.002792358,0,
00:02.2,-0.000858307,-0.000423431,-0.002792358,0,
00:02.2,-0.000869751,-0.00044632,-0.002792358,0,
00:02.2,-0.000875473,-0.000452042,-0.002792358,0,
00:02.2,-0.000881195,-0.000434875,-0.002792358,0,
00:02.3,-0.000881195,-0.000429153,-0.002792358,0,
00:02.3,-0.000881195,-0.000434875,-0.002786636,0,
00:02.3,-0.000875473,-0.000429153,-0.002780914,0,
00:02.3,-0.000881195,-0.000440598,-0.002775192,0,
00:02.3,-0.000898361,-0.000440598,-0.002775192,0,
00:02.3,-0.000875473,-0.000434875,-0.00276947,0,
00:02.3,-0.000869751,-0.000423431,-0.00276947,0,
00:02.3,-0.000881195,-0.000429153,-0.002763748,0,
00:02.3,-0.000886917,-0.00044632,-0.002763748,0,
00:02.3,-0.000892639,-0.000423431,-0.002763748,0,
00:02.3,-0.000892639,-0.000429153,-0.002758026,0,
00:02.3,-0.000886917,-0.000429153,-0.002752304,0,
00:02.3,-0.000886917,-0.000429153,-0.002752304,0,
00:02.3,-0.000898361,-0.000434875,-0.002746582,0,
00:02.3,-0.000892639,-0.000440598,-0.002746582,0,
00:02.3,-0.000886917,-0.000440598,-0.002746582,0,
00:02.3,-0.000881195,-0.000434875,-0.00274086,0,
00:02.3,-0.000886917,-0.000434875,-0.00274086,0,
00:02.3,-0.000898361,-0.000440598,-0.002735138,0,
00:02.3,-0.000898361,-0.000440598,-0.002729416,0,
00:02.3,-0.000886917,-0.000434875,-0.002723694,0,
00:02.3,-0.000875473,-0.000423431,-0.002729416,0,
00:02.3,-0.000892639,-0.000440598,-0.002729416,0,
00:02.3,-0.000892639,-0.00044632,-0.002717972,0,
00:02.3,-0.000898361,-0.000429153,-0.002717972,0,
00:02.4,-0.000892639,-0.000429153,-0.00271225,0,
00:02.4,-0.000886917,-0.000423431,-0.002706528,0,
00:02.4,-0.000886917,-0.000440598,-0.002706528,0,
00:02.4,-0.000892639,-0.000434875,-0.002700806,0,
00:02.4,-0.000892639,-0.000434875,-0.002695084,0,
00:02.4,-0.000886917,-0.00044632,-0.002689362,0,
00:02.4,-0.000886917,-0.00044632,-0.00268364,0,
00:02.4,-0.000898361,-0.00044632,-0.00268364,0,
00:02.4,-0.000909805,-0.000463486,-0.00268364,0,
00:02.4,-0.000904083,-0.000463486,-0.002677917,0,
00:02.4,-0.000886917,-0.000440598,-0.002677917,0,
00:02.4,-0.000886917,-0.000434875,-0.002677917,0,
00:02.4,-0.000892639,-0.000452042,-0.002672195,0,
00:02.4,-0.000892639,-0.000452042,-0.002666473,0,
00:02.4,-0.000886917,-0.000440598,-0.002666473,0,
00:02.4,-0.000886917,-0.00044632,-0.002660751,0,
00:02.4,-0.000892639,-0.00044632,-0.002660751,0,
00:02.4,-0.000892639,-0.000452042,-0.002660751,0,
00:02.4,-0.000898361,-0.000457764,-0.002649307,0,
00:02.4,-0.000892639,-0.00044632,-0.002649307,0,
00:02.4,-0.000886917,-0.000440598,-0.002643585,0,
00:02.4,-0.000881195,-0.000434875,-0.002643585,0,
00:02.4,-0.000886917,-0.000440598,-0.002643585,0,
00:02.4,-0.000898361,-0.00044632,-0.002637863,0,
00:02.4,-0.000892639,-0.000434875,-0.002632141,0,
00:02.5,-0.000886917,-0.000440598,-0.002626419,0,
00:02.5,-0.000881195,-0.00044632,-0.002614975,0,
00:02.5,-0.000886917,-0.000452042,-0.002609253,0,
00:02.5,-0.000898361,-0.000469208,-0.002609253,0,
00:02.5,-0.000886917,-0.000457764,-0.002609253,0,
00:02.5,-0.000886917,-0.000440598,-0.002603531,0,
00:02.5,-0.000881195,-0.000440598,-0.002603531,0,
00:02.5,-0.000881195,-0.000457764,-0.002597809,0,
00:02.5,-0.000886917,-0.000469208,-0.002597809,0,
00:02.5,-0.000875473,-0.000457764,-0.002597809,0,
00:02.5,-0.000864029,-0.00044632,-0.002592087,0,
00:02.5,-0.000864029,-0.00044632,-0.002592087,0,
00:02.5,-0.000869751,-0.000452042,-0.002586365,0,
00:02.5,-0.000869751,-0.000452042,-0.002580643,0,
00:02.5,-0.000881195,-0.000457764,-0.002574921,0,
00:02.5,-0.000892639,-0.000463486,-0.002574921,0,
00:02.5,-0.000886917,-0.000463486,-0.002569199,0,
00:02.5,-0.000881195,-0.000463486,-0.002557755,0,
00:02.5,-0.000875473,-0.000457764,-0.002552032,0,
00:02.5,-0.000875473,-0.000452042,-0.00254631,0,
00:02.5,-0.000875473,-0.00044632,-0.00254631,0,
00:02.5,-0.000886917,-0.00044632,-0.002540588,0,
00:02.5,-0.000892639,-0.000463486,-0.002523422,0,
00:02.5,-0.000881195,-0.000463486,-0.0025177,0,
00:02.5,-0.000869751,-0.000440598,-0.002511978,0,
00:02.6,-0.000881195,-0.000440598,-0.002506256,0,
00:02.6,-0.000875473,-0.000457764,-0.002500534,0,
00:02.6,-0.000875473,-0.00044632,-0.002500534,0,
00:02.6,-0.000886917,-0.000440598,-0.002494812,0,
00:02.6,-0.000881195,-0.00044632,-0.00248909,0,
00:02.6,-0.000881195,-0.000457764,-0.00248909,0,
00:02.6,-0.000881195,-0.000457764,-0.002483368,0,
00:02.6,-0.000886917,-0.000469208,-0.002483368,0,
00:02.6,-0.000886917,-0.000463486,-0.002477646,0,
00:02.6,-0.000886917,-0.000452042,-0.002471924,0,
00:02.6,-0.000875473,-0.000463486,-0.00246048,0,
00:02.6,-0.000864029,-0.000463486,-0.002449036,0,
00:02.6,-0.000869751,-0.000463486,-0.002449036,0,
00:02.6,-0.000875473,-0.000469208,-0.002443314,0,
00:02.6,-0.000875473,-0.00047493,-0.002437592,0,
00:02.6,-0.000852585,-0.000457764,-0.002437592,0,
00:02.6,-0.000846863,-0.000452042,-0.002426147,0,
00:02.6,-0.000864029,-0.000469208,-0.002420425,0,
00:02.6,-0.000864029,-0.000463486,-0.002414703,0,
00:02.6,-0.000869751,-0.000463486,-0.002408981,0,
00:02.6,-0.000875473,-0.000469208,-0.002403259,0,
00:02.6,-0.000881195,-0.000469208,-0.002391815,0,
00:02.6,-0.000875473,-0.000457764,-0.002386093,0,
00:02.6,-0.000864029,-0.000463486,-0.002380371,0,
00:02.6,-0.000864029,-0.000457764,-0.002374649,0,
00:02.7,-0.000864029,-0.00044632,-0.002363205,0,
00:02.7,-0.000858307,-0.000463486,-0.002357483,0,
00:02.7,-0.000858307,-0.000457764,-0.002351761,0,
00:02.7,-0.000858307,-0.000457764,-0.002346039,0,
00:02.7,-0.000858307,-0.000457764,-0.002346039,0,
00:02.7,-0.000858307,-0.000457764,-0.002340317,0,
00:02.7,-0.000852585,-0.000463486,-0.002334595,0,
00:02.7,-0.000846863,-0.000452042,-0.002328873,0,
00:02.7,-0.000846863,-0.000452042,-0.002311707,0,
00:02.7,-0.000846863,-0.000452042,-0.002305984,0,
00:02.7,-0.000846863,-0.000457764,-0.002305984,0,
00:02.7,-0.000852585,-0.000480652,-0.002300262,0,
00:02.7,-0.000852585,-0.000480652,-0.00229454,0,
00:02.7,-0.000852585,-0.000469208,-0.002288818,0,
00:02.7,-0.000841141,-0.000469208,-0.002283096,0,
00:02.7,-0.000835419,-0.000457764,-0.002277374,0,
00:02.7,-0.000846863,-0.000469208,-0.002271652,0,
00:02.7,-0.000852585,-0.000469208,-0.002271652,0,
00:02.7,-0.000846863,-0.000457764,-0.002260208,0,
00:02.7,-0.000841141,-0.000457764,-0.002254486,0,
00:02.7,-0.000841141,-0.000463486,-0.002243042,0,
00:02.7,-0.000841141,-0.000457764,-0.00223732,0,
00:02.7,-0.000841141,-0.000463486,-0.00223732,0,
00:02.7,-0.000841141,-0.000469208,-0.002231598,0,
00:02.7,-0.000841141,-0.000463486,-0.002220154,0,
00:02.8,-0.000829697,-0.000452042,-0.00220871,0,
00:02.8,-0.000835419,-0.000463486,-0.002197266,0,
00:02.8,-0.000835419,-0.00047493,-0.002191544,0,
00:02.8,-0.000835419,-0.000463486,-0.002185822,0,
00:02.8,-0.000829697,-0.000457764,-0.002180099,0,
00:02.8,-0.000829697,-0.000457764,-0.002174377,0,
00:02.8,-0.000829697,-0.000463486,-0.002168655,0,
00:02.8,-0.000829697,-0.00047493,-0.002157211,0,
00:02.8,-0.000841141,-0.000480652,-0.002151489,0,
00:02.8,-0.000852585,-0.000480652,-0.002145767,0,
00:02.8,-0.000852585,-0.000486374,-0.002140045,0,
00:02.8,-0.000829697,-0.000469208,-0.002128601,0,
00:02.8,-0.000812531,-0.000463486,-0.002128601,0,
00:02.8,-0.000823975,-0.00047493,-0.002122879,0,
00:02.8,-0.000829697,-0.000486374,-0.002111435,0,
00:02.8,-0.000835419,-0.000486374,-0.002105713,0,
00:02.8,-0.000823975,-0.00047493,-0.002094269,0,
00:02.8,-0.000818253,-0.000469208,-0.002088547,0,
00:02.8,-0.000829697,-0.000492096,-0.002082825,0,
00:02.8,-0.000835419,-0.000492096,-0.002077103,0,
00:02.8,-0.000823975,-0.000492096,-0.002071381,0,
00:02.8,-0.000812531,-0.000486374,-0.002059937,0,
00:02.8,-0.000801086,-0.000486374,-0.002054214,0,
00:02.8,-0.000795364,-0.000469208,-0.002054214,0,
00:02.8,-0.000801086,-0.000469208,-0.002037048,0,
00:02.9,-0.000806808,-0.000486374,-0.002025604,0,
00:02.9,-0.000801086,-0.000480652,-0.002019882,0,
00:02.9,-0.000801086,-0.000469208,-0.00201416,0,
00:02.9,-0.000806808,-0.000469208,-0.00201416,0,
00:02.9,-0.000801086,-0.000486374,-0.002002716,0,
00:02.9,-0.000795364,-0.000480652,-0.001996994,0,
00:02.9,-0.000795364,-0.000480652,-0.00198555,0,
00:02.9,-0.000801086,-0.000480652,-0.001979828,0,
00:02.9,-0.000795364,-0.00047493,-0.001968384,0,
00:02.9,-0.000789642,-0.000469208,-0.001962662,0,
00:02.9,-0.000795364,-0.000480652,-0.001951218,0,
00:02.9,-0.000795364,-0.000486374,-0.001939774,0,
00:02.9,-0.000795364,-0.000486374,-0.001934052,0,
00:02.9,-0.000795364,-0.000497818,-0.001928329,0,
00:02.9,-0.000801086,-0.000509262,-0.001922607,0,
00:02.9,-0.00078392,-0.000486374,-0.001916885,0,
00:02.9,-0.000772476,-0.00047493,-0.001911163,0,
00:02.9,-0.000778198,-0.000480652,-0.001899719,0,
00:02.9,-0.000789642,-0.000497818,-0.001893997,0,
00:02.9,-0.000795364,-0.000497818,-0.001888275,0,
00:02.9,-0.00078392,-0.000486374,-0.001882553,0,
00:02.9,-0.000772476,-0.00047493,-0.001876831,0,
00:02.9,-0.000789642,-0.000480652,-0.001865387,0,
00:02.9,-0.000789642,-0.000486374,-0.001859665,0,
00:02.9,-0.000772476,-0.000480652,-0.001853943,0,
00:03.0,-0.00075531,-0.00047493,-0.001842499,0,
00:03.0,-0.00075531,-0.000486374,-0.001836777,0,
00:03.0,-0.00075531,-0.000480652,-0.001831055,0,
00:03.0,-0.000761032,-0.000486374,-0.001819611,0,
00:03.0,-0.000766754,-0.000497818,-0.001808167,0,
00:03.0,-0.000761032,-0.000492096,-0.001802444,0,
00:03.0,-0.000761032,-0.000492096,-0.001796722,0,
00:03.0,-0.000772476,-0.000492096,-0.001785278,0,
00:03.0,-0.000778198,-0.000492096,-0.001779556,0,
00:03.0,-0.000772476,-0.000486374,-0.001785278,0,
00:03.0,-0.000766754,-0.00047493,-0.001773834,0,
00:03.0,-0.000749588,-0.000469208,-0.00176239,0,
00:00:03,-0.000738144,-0.00047493,-0.001750946,0,
00:03.0,-0.000749588,-0.000480652,-0.001745224,0,
00:03.0,-0.000749588,-0.000480652,-0.001739502,0,
00:03.0,-0.000743866,-0.000480652,-0.00173378,0,
00:03.0,-0.000743866,-0.000480652,-0.001722336,0,
00:03.0,-0.000749588,-0.000486374,-0.001716614,0,
00:03.0,-0.000743866,-0.000486374,-0.001710892,0,
00:03.0,-0.000749588,-0.000480652,-0.00170517,0,
00:03.0,-0.000749588,-0.00047493,-0.001693726,0,
00:03.0,-0.000743866,-0.00047493,-0.001688004,0,
00:03.0,-0.00075531,-0.000492096,-0.001676559,0,
00:03.0,-0.000766754,-0.000509262,-0.001665115,0,
00:03.0,-0.000761032,-0.00050354,-0.001665115,0,
00:03.1,-0.000732422,-0.000480652,-0.001659393,0,
00:03.1,-0.000720978,-0.000486374,-0.001653671,0,
00:03.1,-0.000738144,-0.000486374,-0.001647949,0,
00:03.1,-0.00075531,-0.000520706,-0.001642227,0,
00:03.1,-0.000743866,-0.000514984,-0.001636505,0,
00:03.1,-0.000709534,-0.000469208,-0.001619339,0,
00:03.1,-0.000709534,-0.000457764,-0.001607895,0,
00:03.1,-0.0007267,-0.000480652,-0.001602173,0,
00:03.1,-0.000743866,-0.000486374,-0.001596451,0,
00:03.1,-0.000743866,-0.000486374,-0.001590729,0,
00:03.1,-0.0007267,-0.000480652,-0.001579285,0,
00:03.1,-0.000709534,-0.000469208,-0.001573563,0,
00:03.1,-0.000720978,-0.000469208,-0.001573563,0,
00:03.1,-0.000732422,-0.000497818,-0.001562119,0,
00:03.1,-0.000738144,-0.000497818,-0.001556396,0,
00:03.1,-0.000720978,-0.00047493,-0.001544952,0,
00:03.1,-0.000709534,-0.00047493,-0.001533508,0,
00:03.1,-0.000720978,-0.000480652,-0.001527786,0,
00:03.1,-0.000732422,-0.000497818,-0.001522064,0,
00:03.1,-0.000732422,-0.00050354,-0.001516342,0,
00:03.1,-0.000720978,-0.000497818,-0.00151062,0,
00:03.1,-0.000709534,-0.000492096,-0.001504898,0,
00:03.1,-0.000703812,-0.000486374,-0.001493454,0,
00:03.1,-0.000692368,-0.000486374,-0.00148201,0,
00:03.1,-0.000692368,-0.000492096,-0.001476288,0,
00:03.2,-0.000703812,-0.000497818,-0.001470566,0,
00:03.2,-0.000709534,-0.000497818,-0.001464844,0,
00:03.2,-0.000709534,-0.000509262,-0.001459122,0,
00:03.2,-0.000703812,-0.000497818,-0.0014534,0,
00:03.2,-0.000686646,-0.000486374,-0.001441956,0,
00:03.2,-0.000692368,-0.000492096,-0.001430511,0,
00:03.2,-0.000692368,-0.000486374,-0.001424789,0,
00:03.2,-0.000692368,-0.000497818,-0.001413345,0,
00:03.2,-0.000703812,-0.000497818,-0.001407623,0,
00:03.2,-0.000686646,-0.000497818,-0.001401901,0,
00:03.2,-0.000680923,-0.000492096,-0.001396179,0,
00:03.2,-0.000675201,-0.000486374,-0.001390457,0,
00:03.2,-0.000686646,-0.000492096,-0.001384735,0,
00:03.2,-0.000692368,-0.000509262,-0.001379013,0,
00:03.2,-0.00069809,-0.000514984,-0.001367569,0,
00:03.2,-0.000692368,-0.000514984,-0.001356125,0,
00:03.2,-0.000680923,-0.000509262,-0.001350403,0,
00:03.2,-0.000675201,-0.00050354,-0.001338959,0,
00:03.2,-0.000669479,-0.000486374,-0.001333237,0,
00:03.2,-0.000675201,-0.00050354,-0.001333237,0,
00:03.2,-0.000663757,-0.00050354,-0.001327515,0,
00:03.2,-0.000675201,-0.000509262,-0.001316071,0,
00:03.2,-0.000686646,-0.000509262,-0.001304626,0,
00:03.2,-0.000675201,-0.000497818,-0.001304626,0,
00:03.2,-0.000658035,-0.000486374,-0.001293182,0,
00:03.3,-0.000658035,-0.000497818,-0.001281738,0,
00:03.3,-0.000652313,-0.000492096,-0.001276016,0,
00:03.3,-0.000652313,-0.000497818,-0.001270294,0,
00:03.3,-0.000652313,-0.000492096,-0.001264572,0,
00:03.3,-0.000652313,-0.000497818,-0.001253128,0,
00:03.3,-0.000652313,-0.000509262,-0.001241684,0,
00:03.3,-0.000652313,-0.000514984,-0.001235962,0,
00:03.3,-0.000652313,-0.000514984,-0.00123024,0,
00:03.3,-0.000658035,-0.000509262,-0.001218796,0,
00:03.3,-0.000646591,-0.00050354,-0.001213074,0,
00:03.3,-0.000629425,-0.000509262,-0.00120163,0,
00:03.3,-0.000623703,-0.000486374,-0.001195908,0,
00:03.3,-0.000617981,-0.000486374,-0.001190186,0,
00:03.3,-0.000640869,-0.000509262,-0.001184464,0,
00:03.3,-0.000640869,-0.00050354,-0.001173019,0,
00:03.3,-0.000635147,-0.000497818,-0.001167297,0,
00:03.3,-0.000606537,-0.00050354,-0.001155853,0,
00:03.3,-0.000612259,-0.00050354,-0.001150131,0,
00:03.3,-0.000617981,-0.00050354,-0.001150131,0,
00:03.3,-0.000617981,-0.000509262,-0.001138687,0,
00:03.3,-0.000617981,-0.000509262,-0.001127243,0,
00:03.3,-0.000606537,-0.000492096,-0.001121521,0,
00:03.3,-0.000600815,-0.000497818,-0.001110077,0,
00:03.3,-0.000600815,-0.000497818,-0.001104355,0,
00:03.3,-0.000600815,-0.000509262,-0.001104355,0,
00:03.4,-0.000606537,-0.000520706,-0.001087189,0,
00:03.4,-0.000600815,-0.000509262,-0.001075745,0,
00:03.4,-0.000595093,-0.000497818,-0.001070023,0,
00:03.4,-0.000595093,-0.00050354,-0.001058578,0,
00:03.4,-0.000589371,-0.000509262,-0.001047134,0,
00:03.4,-0.000583649,-0.000497818,-0.001047134,0,
00:03.4,-0.000583649,-0.00050354,-0.001041412,0,
00:03.4,-0.000583649,-0.000514984,-0.001029968,0,
00:03.4,-0.000583649,-0.000520706,-0.001024246,0,
00:03.4,-0.000583649,-0.000520706,-0.001018524,0,
00:03.4,-0.000572205,-0.000509262,-0.00100708,0,
00:03.4,-0.000566483,-0.000514984,-0.000995636,0,
00:03.4,-0.000577927,-0.000497818,-0.000995636,0,
00:03.4,-0.000583649,-0.000509262,-0.000989914,0,
00:03.4,-0.000572205,-0.000497818,-0.000984192,0,
00:03.4,-0.000572205,-0.000497818,-0.000972748,0,
00:03.4,-0.000572205,-0.000509262,-0.000967026,0,
00:03.4,-0.000566483,-0.000509262,-0.000955582,0,
00:03.4,-0.000572205,-0.000520706,-0.000955582,0,
00:03.4,-0.000566483,-0.000514984,-0.000944138,0,
00:03.4,-0.000555038,-0.000497818,-0.000938416,0,
00:03.4,-0.000555038,-0.000509262,-0.000926971,0,
00:03.4,-0.00056076,-0.000514984,-0.000915527,0,
00:03.4,-0.000555038,-0.000497818,-0.000909805,0,
00:03.4,-0.000543594,-0.000497818,-0.000904083,0,
00:03.5,-0.000543594,-0.000509262,-0.000898361,0,
00:03.5,-0.000537872,-0.000509262,-0.000886917,0,
00:03.5,-0.000537872,-0.000520706,-0.000881195,0,
00:03.5,-0.00053215,-0.000520706,-0.000875473,0,
00:03.5,-0.000543594,-0.000526428,-0.000869751,0,
00:03.5,-0.000537872,-0.000520706,-0.000864029,0,
00:03.5,-0.000520706,-0.000492096,-0.000858307,0,
00:03.5,-0.00053215,-0.000492096,-0.000858307,0,
00:03.5,-0.000537872,-0.00050354,-0.000846863,0,
00:03.5,-0.000537872,-0.000514984,-0.000841141,0,
00:03.5,-0.00053215,-0.000520706,-0.000835419,0,
00:03.5,-0.000520706,-0.000509262,-0.000829697,0,
00:03.5,-0.000509262,-0.00050354,-0.000818253,0,
00:03.5,-0.000514984,-0.000509262,-0.000818253,0,
00:03.5,-0.000520706,-0.000526428,-0.000812531,0,
00:03.5,-0.000526428,-0.000526428,-0.000801086,0,
00:03.5,-0.000514984,-0.000526428,-0.000789642,0,
00:03.5,-0.000497818,-0.000520706,-0.00078392,0,
00:03.5,-0.00050354,-0.000526428,-0.000778198,0,
00:03.5,-0.00050354,-0.000526428,-0.000766754,0,
00:03.5,-0.00050354,-0.000537872,-0.00075531,0,
00:03.5,-0.00050354,-0.00053215,-0.000749588,0,
00:03.5,-0.000509262,-0.000520706,-0.000743866,0,
00:03.5,-0.00050354,-0.000509262,-0.000738144,0,
00:03.5,-0.000497818,-0.000514984,-0.000732422,0,
00:03.6,-0.000492096,-0.000520706,-0.0007267,0,
00:03.6,-0.000480652,-0.000514984,-0.000720978,0,
00:03.6,-0.000492096,-0.000526428,-0.000720978,0,
00:03.6,-0.000497818,-0.000526428,-0.000709534,0,
00:03.6,-0.000480652,-0.000514984,-0.000703812,0,
00:03.6,-0.00047493,-0.000520706,-0.000692368,0,
00:03.6,-0.000497818,-0.000543594,-0.000692368,0,
00:03.6,-0.000492096,-0.000549316,-0.000686646,0,
00:03.6,-0.000486374,-0.000520706,-0.000675201,0,
00:03.6,-0.000486374,-0.000520706,-0.000669479,0,
00:03.6,-0.000480652,-0.000520706,-0.000663757,0,
00:03.6,-0.000486374,-0.000520706,-0.000658035,0,
00:03.6,-0.000486374,-0.000520706,-0.000652313,0,
00:03.6,-0.000486374,-0.000526428,-0.000640869,0,
00:03.6,-0.00047493,-0.00053215,-0.000629425,0,
00:03.6,-0.000469208,-0.000526428,-0.000617981,0,
00:03.6,-0.00047493,-0.00053215,-0.000612259,0,
00:03.6,-0.000463486,-0.000537872,-0.000606537,0,
00:03.6,-0.000457764,-0.000537872,-0.000600815,0,
00:03.6,-0.000457764,-0.000549316,-0.000600815,0,
00:03.6,-0.00044632,-0.000543594,-0.000589371,0,
00:03.6,-0.000457764,-0.000543594,-0.000583649,0,
00:03.6,-0.000452042,-0.000543594,-0.000572205,0,
00:03.6,-0.000452042,-0.000549316,-0.000566483,0,
00:03.6,-0.000463486,-0.00056076,-0.000555038,0,
00:03.7,-0.000457764,-0.000555038,-0.000549316,0,
00:03.7,-0.000434875,-0.000520706,-0.000543594,0,
00:03.7,-0.000423431,-0.000509262,-0.000543594,0,
00:03.7,-0.000429153,-0.000526428,-0.000537872,0,
00:03.7,-0.000429153,-0.000543594,-0.000526428,0,
00:03.7,-0.000440598,-0.000543594,-0.000520706,0,
00:03.7,-0.000429153,-0.000543594,-0.000514984,0,
00:03.7,-0.000417709,-0.00053215,-0.000509262,0,
00:03.7,-0.000423431,-0.00053215,-0.000497818,0,
00:03.7,-0.000423431,-0.000520706,-0.000486374,0,
00:03.7,-0.000411987,-0.000526428,-0.000486374,0,
00:03.7,-0.000417709,-0.00053215,-0.000492096,0,
00:03.7,-0.000406265,-0.000526428,-0.000486374,0,
00:03.7,-0.000394821,-0.000526428,-0.000480652,0,
00:03.7,-0.000394821,-0.000526428,-0.00047493,0,
00:03.7,-0.000394821,-0.000526428,-0.000463486,0,
00:03.7,-0.000394821,-0.00053215,-0.000452042,0,
00:03.7,-0.000406265,-0.000526428,-0.00044632,0,
00:03.7,-0.000411987,-0.00053215,-0.000440598,0,
00:03.7,-0.000411987,-0.00053215,-0.000434875,0,
00:03.7,-0.000406265,-0.000537872,-0.000423431,0,
00:03.7,-0.000406265,-0.00053215,-0.000417709,0,
00:03.7,-0.000411987,-0.00053215,-0.000417709,0,
00:03.7,-0.000400543,-0.00053215,-0.000417709,0,
00:03.7,-0.000411987,-0.000543594,-0.000417709,0,
00:03.8,-0.000406265,-0.000549316,-0.000406265,0,
00:03.8,-0.000389099,-0.00053215,-0.000400543,0,
00:03.8,-0.000389099,-0.00053215,-0.000389099,0,
00:03.8,-0.000400543,-0.000549316,-0.000377655,0,
00:03.8,-0.000394821,-0.000549316,-0.000366211,0,
00:03.8,-0.000377655,-0.00053215,-0.000366211,0,
00:03.8,-0.000377655,-0.000537872,-0.000360489,0,
00:03.8,-0.000383377,-0.000543594,-0.000354767,0,
00:03.8,-0.000389099,-0.000555038,-0.000349045,0,
00:03.8,-0.000389099,-0.000555038,-0.000343323,0,
00:03.8,-0.000377655,-0.000537872,-0.000343323,0,
00:03.8,-0.000371933,-0.000537872,-0.000337601,0,
00:03.8,-0.000366211,-0.000543594,-0.000331879,0,
00:03.8,-0.000383377,-0.000537872,-0.000331879,0,
00:03.8,-0.000377655,-0.000555038,-0.000320435,0,
00:03.8,-0.000371933,-0.00056076,-0.00030899,0,
00:03.8,-0.000377655,-0.00056076,-0.00030899,0,
00:03.8,-0.000366211,-0.00056076,-0.000297546,0,
00:03.8,-0.000360489,-0.000543594,-0.000291824,0,
00:03.8,-0.000366211,-0.000543594,-0.000291824,0,
00:03.8,-0.000366211,-0.000549316,-0.000286102,0,
00:03.8,-0.000366211,-0.000555038,-0.00028038,0,
00:03.8,-0.000354767,-0.000549316,-0.000274658,0,
00:03.8,-0.000354767,-0.000555038,-0.000268936,0,
00:03.8,-0.000349045,-0.000555038,-0.000257492,0,
00:03.9,-0.000343323,-0.000549316,-0.000246048,0,
00:03.9,-0.000337601,-0.000543594,-0.000240326,0,
00:03.9,-0.000349045,-0.000555038,-0.000240326,0,
00:03.9,-0.000360489,-0.000566483,-0.000240326,0,
00:03.9,-0.000371933,-0.000583649,-0.000228882,0,
00:03.9,-0.000360489,-0.000577927,-0.00022316,0,
00:03.9,-0.000343323,-0.00056076,-0.000217438,0,
00:03.9,-0.000337601,-0.000543594,-0.000211716,0,
00:03.9,-0.000331879,-0.000537872,-0.000200272,0,
00:03.9,-0.000343323,-0.000555038,-0.00019455,0,
00:03.9,-0.000349045,-0.00056076,-0.000188828,0,
00:03.9,-0.000331879,-0.000572205,-0.000188828,0,
00:03.9,-0.000326157,-0.000555038,-0.000183105,0,
00:03.9,-0.000314713,-0.000543594,-0.000177383,0,
00:03.9,-0.000291824,-0.000549316,-0.000171661,0,
00:03.9,-0.000303268,-0.000566483,-0.000165939,0,
00:03.9,-0.000314713,-0.000577927,-0.000160217,0,
00:03.9,-0.00030899,-0.00056076,-0.000154495,0,
00:03.9,-0.000297546,-0.000549316,-0.000148773,0,
00:03.9,-0.000286102,-0.000549316,-0.000143051,0,
00:03.9,-0.00028038,-0.000543594,-0.000137329,0,
00:03.9,-0.000286102,-0.000543594,-0.000137329,0,
00:03.9,-0.000291824,-0.000549316,-0.000137329,0,
00:03.9,-0.000291824,-0.00056076,-0.000131607,0,
00:03.9,-0.000297546,-0.000566483,-0.000120163,0,
00:04.0,-0.000291824,-0.000572205,-0.000120163,0,
00:04.0,-0.000303268,-0.000572205,-0.000102997,0,
00:04.0,-0.000303268,-0.000572205,-0.000102997,0,
00:04.0,-0.00028038,-0.000566483,-9.16E-05,0,
00:04.0,-0.000268936,-0.000555038,-8.01E-05,0,
00:04.0,-0.000274658,-0.00056076,-8.01E-05,0,
00:04.0,-0.00028038,-0.000566483,-8.01E-05,0,
00:04.0,-0.000286102,-0.000572205,-6.87E-05,0,
00:04.0,-0.000291824,-0.000572205,-5.72E-05,0,
00:04.0,-0.000274658,-0.000566483,-5.15E-05,0,
00:04.0,-0.000274658,-0.000572205,-4.58E-05,0,
00:04.0,-0.000274658,-0.000572205,-4.01E-05,0,
00:00:04,-0.00028038,-0.000577927,-3.43E-05,0,
00:04.0,-0.000286102,-0.000583649,-2.29E-05,0,
00:04.0,-0.00028038,-0.000577927,-1.72E-05,0,
00:04.0,-0.000268936,-0.000572205,-1.14E-05,0,
00:04.0,-0.000257492,-0.000566483,-1.14E-05,0,
00:04.0,-0.000268936,-0.000566483,-1.14E-05,0,
00:04.0,-0.000274658,-0.000566483,-5.72E-06,0,
00:04.0,-0.000268936,-0.000566483,0,0,
00:04.0,-0.000263214,-0.00056076,5.72E-06,0,
00:04.0,-0.000268936,-0.000566483,5.72E-06,0,
00:04.0,-0.000268936,-0.000566483,1.72E-05,0,
00:04.0,-0.000263214,-0.000577927,2.29E-05,0,
00:04.0,-0.00025177,-0.000572205,3.43E-05,0,
00:04.1,-0.000240326,-0.000566483,3.43E-05,0,
00:04.1,-0.000246048,-0.000572205,4.01E-05,0,
00:04.1,-0.00025177,-0.000572205,4.01E-05,0,
00:04.1,-0.000246048,-0.000566483,5.15E-05,0,
00:04.1,-0.000234604,-0.000566483,5.72E-05,0,
00:04.1,-0.000234604,-0.000583649,6.29E-05,0,
00:04.1,-0.000234604,-0.000589371,6.29E-05,0,
00:04.1,-0.000228882,-0.000589371,6.87E-05,0,
00:04.1,-0.00022316,-0.000577927,7.44E-05,0,
00:04.1,-0.00022316,-0.00056076,8.58E-05,0,
00:04.1,-0.000228882,-0.00056076,9.16E-05,0,
00:04.1,-0.000234604,-0.000572205,9.73E-05,0,
00:04.1,-0.000240326,-0.000589371,9.16E-05,0,
00:04.1,-0.000240326,-0.000595093,9.73E-05,0,
00:04.1,-0.000228882,-0.000589371,0.000108719,0,
00:04.1,-0.000217438,-0.000589371,0.000114441,0,
00:04.1,-0.000217438,-0.000583649,0.000114441,0,
00:04.1,-0.000228882,-0.000600815,0.000120163,0,
00:04.1,-0.000234604,-0.000600815,0.000120163,0,
00:04.1,-0.00022316,-0.000583649,0.000131607,0,
00:04.1,-0.000205994,-0.00056076,0.000137329,0,
00:04.1,-0.000205994,-0.000572205,0.000137329,0,
00:04.1,-0.000211716,-0.000583649,0.000143051,0,
00:04.1,-0.000200272,-0.000583649,0.000148773,0,
00:04.1,-0.000205994,-0.000589371,0.000154495,0,
00:04.2,-0.000188828,-0.000583649,0.000165939,0,
00:04.2,-0.000188828,-0.000595093,0.000171661,0,
00:04.2,-0.000188828,-0.000595093,0.000177383,0,
00:04.2,-0.000188828,-0.000583649,0.000183105,0,
00:04.2,-0.000183105,-0.000589371,0.000188828,0,
00:04.2,-0.000188828,-0.000589371,0.00019455,0,
00:04.2,-0.000205994,-0.000589371,0.000200272,0,
00:04.2,-0.000200272,-0.000577927,0.000200272,0,
00:04.2,-0.000200272,-0.000572205,0.000205994,0,
00:04.2,-0.000200272,-0.000577927,0.000211716,0,
00:04.2,-0.000200272,-0.000589371,0.00022316,0,
00:04.2,-0.00019455,-0.000595093,0.00022316,0,
00:04.2,-0.000205994,-0.000595093,0.000228882,0,
00:04.2,-0.000211716,-0.000595093,0.000228882,0,
00:04.2,-0.000188828,-0.000595093,0.000234604,0,
00:04.2,-0.000183105,-0.000589371,0.000246048,0,
00:04.2,-0.000188828,-0.000577927,0.000246048,0,
00:04.2,-0.000188828,-0.000589371,0.000263214,0,
00:04.2,-0.000183105,-0.000589371,0.000268936,0,
00:04.2,-0.000188828,-0.000595093,0.000268936,0,
00:04.2,-0.000177383,-0.000583649,0.000274658,0,
00:04.2,-0.000148773,-0.000572205,0.00028038,0,
00:04.2,-0.000160217,-0.000577927,0.000286102,0,
00:04.2,-0.000171661,-0.000589371,0.000286102,0,
00:04.2,-0.000171661,-0.000600815,0.000291824,0,
00:04.3,-0.000171661,-0.000606537,0.000297546,0,
00:04.3,-0.000177383,-0.000606537,0.000303268,0,
00:04.3,-0.000177383,-0.000606537,0.00030899,0,
00:04.3,-0.000171661,-0.000606537,0.000314713,0,
00:04.3,-0.000177383,-0.000600815,0.000320435,0,
00:04.3,-0.000171661,-0.000606537,0.000320435,0,
00:04.3,-0.000171661,-0.000617981,0.000326157,0,
00:04.3,-0.000171661,-0.000612259,0.000326157,0,
00:04.3,-0.000165939,-0.000612259,0.000331879,0,
00:04.3,-0.000154495,-0.000600815,0.000343323,0,
00:04.3,-0.000160217,-0.000600815,0.000349045,0,
00:04.3,-0.000171661,-0.000600815,0.000354767,0,
00:04.3,-0.000171661,-0.000612259,0.000360489,0,
00:04.3,-0.000165939,-0.000617981,0.000366211,0,
00:04.3,-0.000154495,-0.000606537,0.000371933,0,
00:04.3,-0.000143051,-0.000577927,0.000371933,0,
00:04.3,-0.000148773,-0.000589371,0.000383377,0,
00:04.3,-0.000160217,-0.000600815,0.000394821,0,
00:04.3,-0.000165939,-0.000612259,0.000394821,0,
00:04.3,-0.000148773,-0.000600815,0.000406265,0,
00:04.3,-0.000131607,-0.000583649,0.000406265,0,
00:04.3,-0.000137329,-0.000589371,0.000411987,0,
00:04.3,-0.000143051,-0.000595093,0.000411987,0,
00:04.3,-0.000148773,-0.000606537,0.000423431,0,
00:04.3,-0.000148773,-0.000595093,0.000429153,0,
00:04.4,-0.000137329,-0.000595093,0.000434875,0,
00:04.4,-0.000137329,-0.000595093,0.000440598,0,
00:04.4,-0.000143051,-0.000589371,0.00044632,0,
00:04.4,-0.000148773,-0.000595093,0.000452042,0,
00:04.4,-0.000137329,-0.000589371,0.000452042,0,
00:04.4,-0.000125885,-0.000606537,0.000457764,0,
00:04.4,-0.000131607,-0.000612259,0.000463486,0,
00:04.4,-0.000131607,-0.000606537,0.000469208,0,
00:04.4,-0.000137329,-0.000612259,0.00047493,0,
00:04.4,-0.000137329,-0.000617981,0.000480652,0,
00:04.4,-0.000137329,-0.000617981,0.000486374,0,
00:04.4,-0.000143051,-0.000606537,0.000486374,0,
00:04.4,-0.000137329,-0.000612259,0.000486374,0,
00:04.4,-0.000120163,-0.000600815,0.000492096,0,
00:04.4,-0.000120163,-0.000589371,0.000497818,0,
00:04.4,-0.000108719,-0.000589371,0.000497818,0,
00:04.4,-0.000114441,-0.000600815,0.00050354,0,
00:04.4,-0.000125885,-0.000600815,0.000509262,0,
00:04.4,-0.000125885,-0.000600815,0.000514984,0,
00:04.4,-0.000114441,-0.000595093,0.000520706,0,
00:04.4,-0.000108719,-0.000595093,0.000526428,0,
00:04.4,-0.000114441,-0.000583649,0.000526428,0,
00:04.4,-0.000114441,-0.000600815,0.00053215,0,
00:04.4,-0.000108719,-0.000612259,0.000543594,0,
00:04.4,-0.000108719,-0.000612259,0.000543594,0,
00:04.5,-0.000108719,-0.000606537,0.000549316,0,
00:04.5,-0.000102997,-0.000595093,0.000555038,0,
00:04.5,-0.000102997,-0.000606537,0.000566483,0,
00:04.5,-0.000102997,-0.000606537,0.000566483,0,
00:04.5,-9.16E-05,-0.000595093,0.000577927,0,
00:04.5,-9.16E-05,-0.000606537,0.000583649,0,
00:04.5,-0.000102997,-0.000606537,0.000583649,0,
00:04.5,-0.000102997,-0.000600815,0.000589371,0,
00:04.5,-9.16E-05,-0.000600815,0.000595093,0,
00:04.5,-9.16E-05,-0.000606537,0.000595093,0,
00:04.5,-9.16E-05,-0.000612259,0.000600815,0,
00:04.5,-9.16E-05,-0.000617981,0.000612259,0,
00:04.5,-9.16E-05,-0.000606537,0.000612259,0,
00:04.5,-9.73E-05,-0.000617981,0.000617981,0,
00:04.5,-9.73E-05,-0.000606537,0.000623703,0,
00:04.5,-9.16E-05,-0.000600815,0.000629425,0,
00:04.5,-8.01E-05,-0.000612259,0.000629425,0,
00:04.5,-6.87E-05,-0.000600815,0.000629425,0,
00:04.5,-7.44E-05,-0.000595093,0.000635147,0,
00:04.5,-8.58E-05,-0.000617981,0.000640869,0,
00:04.5,-7.44E-05,-0.000629425,0.000646591,0,
00:04.5,-8.01E-05,-0.000623703,0.000646591,0,
00:04.5,-7.44E-05,-0.000617981,0.000646591,0,
00:04.5,-5.72E-05,-0.000612259,0.000652313,0,
00:04.5,-6.29E-05,-0.000612259,0.000658035,0,
00:04.6,-6.87E-05,-0.000623703,0.000663757,0,
00:04.6,-7.44E-05,-0.000629425,0.000669479,0,
00:04.6,-6.29E-05,-0.000617981,0.000675201,0,
00:04.6,-4.58E-05,-0.000600815,0.000675201,0,
00:04.6,-5.72E-05,-0.000606537,0.000680923,0,
00:04.6,-6.29E-05,-0.000623703,0.000686646,0,
00:04.6,-6.29E-05,-0.000629425,0.000692368,0,
00:04.6,-5.72E-05,-0.000629425,0.000686646,0,
00:04.6,-6.29E-05,-0.000617981,0.000692368,0,
00:04.6,-5.72E-05,-0.000600815,0.00069809,0,
00:04.6,-5.72E-05,-0.000606537,0.000703812,0,
00:04.6,-5.15E-05,-0.000617981,0.000703812,0,
00:04.6,-5.72E-05,-0.000612259,0.000709534,0,
00:04.6,-6.87E-05,-0.000617981,0.000715256,0,
00:04.6,-4.01E-05,-0.000612259,0.000720978,0,
00:04.6,-3.43E-05,-0.000606537,0.000720978,0,
00:04.6,-4.58E-05,-0.000612259,0.0007267,0,
00:04.6,-4.58E-05,-0.000612259,0.0007267,0,
00:04.6,-4.58E-05,-0.000612259,0.000732422,0,
00:04.6,-4.58E-05,-0.000623703,0.000738144,0,
00:04.6,-4.01E-05,-0.000635147,0.000738144,0,
00:04.6,-4.58E-05,-0.000640869,0.000738144,0,
00:04.6,-5.72E-05,-0.000640869,0.000738144,0,
00:04.6,-5.72E-05,-0.000629425,0.000743866,0,
00:04.6,-2.86E-05,-0.000635147,0.00075531,0,
00:04.7,-2.86E-05,-0.000629425,0.000761032,0,
00:04.7,-4.01E-05,-0.000629425,0.000766754,0,
00:04.7,-4.58E-05,-0.000629425,0.000761032,0,
00:04.7,-4.01E-05,-0.000623703,0.000766754,0,
00:04.7,-3.43E-05,-0.000617981,0.000766754,0,
00:04.7,-3.43E-05,-0.000635147,0.000772476,0,
00:04.7,-3.43E-05,-0.000635147,0.000778198,0,
00:04.7,-2.29E-05,-0.000635147,0.00078392,0,
00:04.7,-3.43E-05,-0.000640869,0.000789642,0,
00:04.7,-2.86E-05,-0.000635147,0.00078392,0,
00:04.7,-1.72E-05,-0.000623703,0.000789642,0,
00:04.7,-1.14E-05,-0.000612259,0.000789642,0,
00:04.7,-1.14E-05,-0.000617981,0.000795364,0,
00:04.7,-1.14E-05,-0.000623703,0.000801086,0,
00:04.7,-1.14E-05,-0.000629425,0.000806808,0,
00:04.7,-1.72E-05,-0.000640869,0.000812531,0,
00:04.7,-2.29E-05,-0.000646591,0.000812531,0,
00:04.7,-1.14E-05,-0.000635147,0.000812531,0,
00:04.7,-1.72E-05,-0.000629425,0.000818253,0,
00:04.7,-5.72E-06,-0.000635147,0.000823975,0,
00:04.7,-5.72E-06,-0.000646591,0.000829697,0,
00:04.7,-1.14E-05,-0.000663757,0.000829697,0,
00:04.7,-5.72E-06,-0.000623703,0.000835419,0,
00:04.7,-1.14E-05,-0.000623703,0.000841141,0,
00:04.7,-5.72E-06,-0.000640869,0.000841141,0,
00:04.8,-5.72E-06,-0.000635147,0.000846863,0,
00:04.8,-5.72E-06,-0.000635147,0.000846863,0,
00:04.8,-5.72E-06,-0.000635147,0.000846863,0,
00:04.8,-5.72E-06,-0.000640869,0.000852585,0,
00:04.8,-5.72E-06,-0.000646591,0.000852585,0,
00:04.8,0,-0.000629425,0.000858307,0,
00:04.8,0,-0.000629425,0.000864029,0,
00:04.8,0,-0.000623703,0.000858307,0,
00:04.8,1.14E-05,-0.000623703,0.000858307,0,
00:04.8,1.14E-05,-0.000629425,0.000864029,0,
00:04.8,5.72E-06,-0.000640869,0.000858307,0,
00:04.8,0,-0.000658035,0.000869751,0,
00:04.8,0,-0.000640869,0.000869751,0,
00:04.8,0,-0.000640869,0.000875473,0,
00:04.8,1.14E-05,-0.000658035,0.000881195,0,
00:04.8,2.29E-05,-0.000652313,0.000886917,0,
00:04.8,1.14E-05,-0.000663757,0.000892639,0,
00:04.8,1.14E-05,-0.000652313,0.000898361,0,
00:04.8,5.72E-06,-0.000652313,0.000898361,0,
00:04.8,1.14E-05,-0.000663757,0.000892639,0,
00:04.8,5.72E-06,-0.000663757,0.000898361,0,
00:04.8,5.72E-06,-0.000669479,0.000904083,0,
00:04.8,1.72E-05,-0.000663757,0.000898361,0,
00:04.8,2.29E-05,-0.000652313,0.000909805,0,
00:04.8,1.72E-05,-0.000658035,0.000909805,0,
00:04.9,1.14E-05,-0.000658035,0.000909805,0,
00:04.9,5.72E-06,-0.000652313,0.000909805,0,
00:04.9,5.72E-06,-0.000646591,0.000909805,0,
00:04.9,5.72E-06,-0.000658035,0.000909805,0,
00:04.9,1.72E-05,-0.000646591,0.000915527,0,
00:04.9,1.72E-05,-0.000646591,0.000921249,0,
00:04.9,1.72E-05,-0.000646591,0.000932693,0,
00:04.9,2.29E-05,-0.000652313,0.000932693,0,
00:04.9,1.72E-05,-0.000669479,0.000932693,0,
00:04.9,1.72E-05,-0.000669479,0.000932693,0,
00:04.9,1.14E-05,-0.000675201,0.000938416,0,
00:04.9,0,-0.000692368,0.000944138,0,
00:04.9,5.72E-06,-0.000692368,0.000944138,0,
00:04.9,1.72E-05,-0.000658035,0.000944138,0,
00:04.9,2.86E-05,-0.000629425,0.000944138,0,
00:04.9,3.43E-05,-0.000652313,0.00094986,0,
00:04.9,2.29E-05,-0.000658035,0.00094986,0,
00:04.9,2.29E-05,-0.000663757,0.00094986,0,
00:04.9,2.29E-05,-0.000658035,0.000955582,0,
00:04.9,1.72E-05,-0.000663757,0.000955582,0,
00:04.9,1.72E-05,-0.000669479,0.000955582,0,
00:04.9,2.29E-05,-0.000675201,0.000955582,0,
00:04.9,2.86E-05,-0.000680923,0.000961304,0,
00:04.9,3.43E-05,-0.000675201,0.000961304,0,
00:04.9,4.01E-05,-0.000652313,0.000967026,0,
00:05.0,4.01E-05,-0.000663757,0.000961304,0,
00:05.0,4.58E-05,-0.000663757,0.000961304,0,
00:05.0,4.58E-05,-0.000658035,0.000967026,0,
00:05.0,5.15E-05,-0.000658035,0.000967026,0,
00:05.0,5.15E-05,-0.000669479,0.000972748,0,
00:05.0,4.58E-05,-0.000680923,0.000972748,0,
00:05.0,4.58E-05,-0.000675201,0.000972748,0,
00:05.0,4.58E-05,-0.000663757,0.00097847,0,
00:05.0,3.43E-05,-0.000680923,0.00097847,0,
00:05.0,3.43E-05,-0.000703812,0.000984192,0,
00:05.0,5.15E-05,-0.000692368,0.000984192,0,
00:05.0,5.15E-05,-0.000680923,0.000984192,0,
00:00:05,5.15E-05,-0.000675201,0.000989914,0,
00:05.0,4.58E-05,-0.000680923,0.000984192,0,
00:05.0,5.15E-05,-0.000675201,0.000984192,0,
00:05.0,6.87E-05,-0.000675201,0.000989914,0,
00:05.0,5.72E-05,-0.000675201,0.000989914,0,
00:05.0,5.15E-05,-0.000675201,0.000995636,0,
00:05.0,5.72E-05,-0.000680923,0.001001358,0,
00:05.0,5.72E-05,-0.000686646,0.001001358,0,
00:05.0,5.15E-05,-0.000692368,0.001001358,0,
00:05.0,4.58E-05,-0.00069809,0.001001358,0,
00:05.0,4.01E-05,-0.00069809,0.000995636,0,
00:05.0,5.15E-05,-0.00069809,0.000995636,0,
00:05.0,6.29E-05,-0.000692368,0.000995636,0,
00:05.1,7.44E-05,-0.000669479,0.000995636,0,
00:05.1,6.87E-05,-0.000686646,0.001001358,0,
00:05.1,6.87E-05,-0.00069809,0.00100708,0,
00:05.1,6.29E-05,-0.000703812,0.00100708,0,
00:05.1,5.72E-05,-0.000703812,0.001001358,0,
00:05.1,6.87E-05,-0.000709534,0.00100708,0,
00:05.1,8.58E-05,-0.000680923,0.00100708,0,
00:05.1,8.01E-05,-0.000675201,0.001001358,0,
00:05.1,8.01E-05,-0.000692368,0.000995636,0,
00:05.1,8.01E-05,-0.000709534,0.001001358,0,
00:05.1,7.44E-05,-0.000709534,0.001001358,0,
00:05.1,8.01E-05,-0.000703812,0.00100708,0,
00:05.1,8.01E-05,-0.000680923,0.001012802,0,
00:05.1,8.01E-05,-0.000686646,0.001012802,0,
00:05.1,8.58E-05,-0.000680923,0.00100708,0,
00:05.1,7.44E-05,-0.000692368,0.001012802,0,
00:05.1,7.44E-05,-0.000709534,0.001018524,0,
00:05.1,7.44E-05,-0.000709534,0.001018524,0,
00:05.1,8.01E-05,-0.000692368,0.001018524,0,
00:05.1,8.58E-05,-0.000692368,0.001024246,0,
00:05.1,8.01E-05,-0.000709534,0.001024246,0,
00:05.1,6.87E-05,-0.000715256,0.001018524,0,
00:05.1,6.87E-05,-0.000703812,0.001018524,0,
00:05.1,7.44E-05,-0.000709534,0.001024246,0,
00:05.1,8.01E-05,-0.000715256,0.001024246,0,
00:05.2,8.58E-05,-0.000692368,0.001024246,0,
00:05.2,8.01E-05,-0.000692368,0.001018524,0,
00:05.2,8.01E-05,-0.000692368,0.001018524,0,
00:05.2,8.01E-05,-0.000715256,0.001024246,0,
00:05.2,6.87E-05,-0.000720978,0.001029968,0,
00:05.2,7.44E-05,-0.000703812,0.00103569,0,
00:05.2,9.73E-05,-0.000680923,0.001029968,0,
00:05.2,9.16E-05,-0.000692368,0.001029968,0,
00:05.2,8.01E-05,-0.000703812,0.001029968,0,
00:05.2,9.16E-05,-0.000703812,0.001029968,0,
00:05.2,8.01E-05,-0.000703812,0.001029968,0,
00:05.2,6.29E-05,-0.000709534,0.001029968,0,
00:05.2,6.87E-05,-0.000715256,0.001029968,0,
00:05.2,8.58E-05,-0.000709534,0.001029968,0,
00:05.2,9.16E-05,-0.000703812,0.001029968,0,
00:05.2,9.73E-05,-0.000703812,0.00103569,0,
00:05.2,9.16E-05,-0.000715256,0.001041412,0,
00:05.2,7.44E-05,-0.0007267,0.00103569,0,
00:05.2,0.000102997,-0.000709534,0.001041412,0,
00:05.2,0.000120163,-0.000709534,0.001041412,0,
00:05.2,0.000102997,-0.000709534,0.00103569,0,
00:05.2,8.01E-05,-0.0007267,0.00103569,0,
00:05.2,8.58E-05,-0.000743866,0.00103569,0,
00:05.2,9.73E-05,-0.0007267,0.001041412,0,
00:05.2,9.16E-05,-0.000720978,0.001041412,0,
00:05.3,8.58E-05,-0.000738144,0.001047134,0,
00:05.3,9.73E-05,-0.000709534,0.001047134,0,
00:05.3,0.000108719,-0.000692368,0.001047134,0,
00:05.3,0.000108719,-0.000709534,0.001052856,0,
00:05.3,0.000108719,-0.000715256,0.001052856,0,
00:05.3,9.73E-05,-0.0007267,0.001047134,0,
00:05.3,9.16E-05,-0.0007267,0.001047134,0,
00:05.3,9.16E-05,-0.000738144,0.001047134,0,
00:05.3,9.73E-05,-0.000738144,0.001052856,0,
00:05.3,0.000102997,-0.000749588,0.001052856,0,
00:05.3,9.73E-05,-0.000749588,0.001052856,0,
00:05.3,0.000102997,-0.000732422,0.001047134,0,
00:05.3,0.000114441,-0.000720978,0.001052856,0,
00:05.3,0.000120163,-0.000738144,0.001058578,0,
00:05.3,0.000125885,-0.000749588,0.001058578,0,
00:05.3,0.000125885,-0.000738144,0.001058578,0,
00:05.3,0.000120163,-0.000738144,0.001052856,0,
00:05.3,0.000114441,-0.000743866,0.001058578,0,
00:05.3,0.000108719,-0.000749588,0.001058578,0,
00:05.3,0.000108719,-0.00075531,0.001070023,0,
00:05.3,0.000120163,-0.000749588,0.001075745,0,
00:05.3,0.000131607,-0.000738144,0.001070023,0,
00:05.3,0.000125885,-0.000749588,0.001064301,0,
00:05.3,0.000108719,-0.00075531,0.001064301,0,
00:05.3,0.000108719,-0.000761032,0.001070023,0,
00:05.4,0.000120163,-0.000749588,0.001070023,0,
00:05.4,0.000108719,-0.000749588,0.001070023,0,
00:05.4,0.000108719,-0.000749588,0.001075745,0,
00:05.4,0.000102997,-0.00075531,0.001075745,0,
00:05.4,0.000102997,-0.000761032,0.001070023,0,
00:05.4,0.000114441,-0.000761032,0.001064301,0,
00:05.4,0.000108719,-0.000743866,0.001070023,0,
00:05.4,0.000108719,-0.000749588,0.001070023,0,
00:05.4,0.000108719,-0.00075531,0.001070023,0,
00:05.4,0.000108719,-0.000772476,0.001070023,0,
00:05.4,0.000108719,-0.000772476,0.001075745,0,
00:05.4,0.000120163,-0.000761032,0.001070023,0,
00:05.4,0.000137329,-0.000766754,0.001070023,0,
00:05.4,0.000137329,-0.000772476,0.001075745,0,
00:05.4,0.000131607,-0.000766754,0.001081467,0,
00:05.4,0.000125885,-0.000766754,0.001081467,0,
00:05.4,0.000125885,-0.000772476,0.001081467,0,
00:05.4,0.000148773,-0.00075531,0.001081467,0,
00:05.4,0.000148773,-0.000761032,0.001087189,0,
00:05.4,0.000148773,-0.000766754,0.001087189,0,
00:05.4,0.000143051,-0.000766754,0.001087189,0,
00:05.4,0.000131607,-0.000778198,0.001092911,0,
00:05.4,0.000131607,-0.000766754,0.001087189,0,
00:05.4,0.000143051,-0.000761032,0.001087189,0,
00:05.4,0.000143051,-0.000766754,0.001092911,0,
00:05.5,0.000143051,-0.000778198,0.001092911,0,
00:05.5,0.000154495,-0.00078392,0.001092911,0,
00:05.5,0.000148773,-0.000789642,0.001098633,0,
00:05.5,0.000143051,-0.000806808,0.001092911,0,
00:05.5,0.000143051,-0.000795364,0.001098633,0,
00:05.5,0.000148773,-0.000772476,0.001104355,0,
00:05.5,0.000148773,-0.000766754,0.001098633,0,
00:05.5,0.000148773,-0.00078392,0.001092911,0,
00:05.5,0.000137329,-0.000789642,0.001092911,0,
00:05.5,0.000143051,-0.000789642,0.001104355,0,
00:05.5,0.000165939,-0.000761032,0.001104355,0,
00:05.5,0.000171661,-0.00075531,0.001098633,0,
00:05.5,0.000160217,-0.000772476,0.001098633,0,
00:05.5,0.000148773,-0.00078392,0.001098633,0,
00:05.5,0.000148773,-0.000778198,0.001098633,0,
00:05.5,0.000154495,-0.000772476,0.001098633,0,
00:05.5,0.000171661,-0.000772476,0.001104355,0,
00:05.5,0.000165939,-0.000772476,0.001104355,0,
00:05.5,0.000165939,-0.00078392,0.001110077,0,
00:05.5,0.000148773,-0.000795364,0.001110077,0,
00:05.5,0.000143051,-0.000795364,0.001110077,0,
00:05.5,0.000148773,-0.000795364,0.001115799,0,
00:05.5,0.000177383,-0.000772476,0.001115799,0,
00:05.5,0.000188828,-0.000766754,0.001115799,0,
00:05.5,0.000177383,-0.000772476,0.001115799,0,
00:05.6,0.000165939,-0.000772476,0.001115799,0,
00:05.6,0.000165939,-0.000772476,0.001115799,0,
00:05.6,0.000171661,-0.000778198,0.001115799,0,
00:05.6,0.000171661,-0.000789642,0.001121521,0,
00:05.6,0.000171661,-0.00078392,0.001121521,0,
00:05.6,0.000188828,-0.000772476,0.001121521,0,
00:05.6,0.00019455,-0.000766754,0.001115799,0,
00:05.6,0.000177383,-0.000778198,0.001115799,0,
00:05.6,0.000171661,-0.00078392,0.001115799,0,
00:05.6,0.000171661,-0.000795364,0.001121521,0,
00:05.6,0.000171661,-0.000789642,0.001127243,0,
00:05.6,0.000171661,-0.000789642,0.001127243,0,
00:05.6,0.000177383,-0.000778198,0.001127243,0,
00:05.6,0.000183105,-0.000772476,0.001127243,0,
00:05.6,0.000183105,-0.000789642,0.001127243,0,
00:05.6,0.000171661,-0.000806808,0.001127243,0,
00:05.6,0.000177383,-0.000795364,0.001121521,0,
00:05.6,0.000177383,-0.000812531,0.001121521,0,
00:05.6,0.000177383,-0.000795364,0.001121521,0,
00:05.6,0.000177383,-0.00078392,0.001127243,0,
00:05.6,0.000177383,-0.000812531,0.001132965,0,
00:05.6,0.000171661,-0.000812531,0.001127243,0,
00:05.6,0.000165939,-0.000812531,0.001121521,0,
00:05.6,0.000183105,-0.000801086,0.001115799,0,
00:05.6,0.00019455,-0.000795364,0.001121521,0,
00:05.7,0.000200272,-0.000795364,0.001121521,0,
00:05.7,0.000188828,-0.000806808,0.001127243,0,
00:05.7,0.000171661,-0.000823975,0.001127243,0,
00:05.7,0.000177383,-0.000823975,0.001138687,0,
00:05.7,0.000200272,-0.000806808,0.001138687,0,
00:05.7,0.000200272,-0.000806808,0.001132965,0,
00:05.7,0.00019455,-0.000812531,0.001132965,0,
00:05.7,0.00019455,-0.000812531,0.001127243,0,
00:05.7,0.000188828,-0.000806808,0.001132965,0,
00:05.7,0.000200272,-0.000806808,0.001132965,0,
00:05.7,0.000205994,-0.000812531,0.001127243,0,
00:05.7,0.000188828,-0.000812531,0.001127243,0,
00:05.7,0.000183105,-0.000812531,0.001132965,0,
00:05.7,0.000200272,-0.000818253,0.001132965,0,
00:05.7,0.00019455,-0.000818253,0.001132965,0,
00:05.7,0.00019455,-0.000812531,0.001132965,0,
00:05.7,0.000171661,-0.000823975,0.001132965,0,
00:05.7,0.000177383,-0.000841141,0.001138687,0,
00:05.7,0.000188828,-0.000835419,0.001138687,0,
00:05.7,0.000200272,-0.000823975,0.001138687,0,
00:05.7,0.000211716,-0.000823975,0.001138687,0,
00:05.7,0.000211716,-0.000823975,0.001138687,0,
00:05.7,0.000205994,-0.000835419,0.001138687,0,
00:05.7,0.000200272,-0.000841141,0.001144409,0,
00:05.7,0.00019455,-0.000823975,0.001144409,0,
00:05.8,0.000200272,-0.000812531,0.001138687,0,
00:05.8,0.000205994,-0.000806808,0.001138687,0,
00:05.8,0.000200272,-0.000812531,0.001144409,0,
00:05.8,0.00019455,-0.000823975,0.001144409,0,
00:05.8,0.000211716,-0.000823975,0.001144409,0,
00:05.8,0.000211716,-0.000812531,0.001144409,0,
00:05.8,0.000200272,-0.000829697,0.001155853,0,
00:05.8,0.00019455,-0.000829697,0.001155853,0,
00:05.8,0.00019455,-0.000835419,0.001155853,0,
00:05.8,0.000188828,-0.000835419,0.001155853,0,
00:05.8,0.00019455,-0.000835419,0.001155853,0,
00:05.8,0.000200272,-0.000823975,0.001155853,0,
00:05.8,0.00019455,-0.000835419,0.001155853,0,
00:05.8,0.000188828,-0.000841141,0.001155853,0,
00:05.8,0.00019455,-0.000841141,0.001161575,0,
00:05.8,0.000211716,-0.000835419,0.001161575,0,
00:05.8,0.000217438,-0.000829697,0.001167297,0,
00:05.8,0.000211716,-0.000841141,0.001167297,0,
00:05.8,0.000211716,-0.000829697,0.001167297,0,
00:05.8,0.000217438,-0.000829697,0.001167297,0,
00:05.8,0.000217438,-0.000829697,0.001173019,0,
00:05.8,0.000217438,-0.000829697,0.001167297,0,
00:05.8,0.000217438,-0.000835419,0.001173019,0,
00:05.8,0.000217438,-0.000835419,0.001178741,0,
00:05.8,0.000211716,-0.000846863,0.001184464,0,
00:05.9,0.000205994,-0.000835419,0.001184464,0,
00:05.9,0.000205994,-0.000823975,0.001184464,0,
00:05.9,0.000205994,-0.000835419,0.001190186,0,
00:05.9,0.000211716,-0.000852585,0.001190186,0,
00:05.9,0.000217438,-0.000841141,0.001184464,0,
00:05.9,0.000217438,-0.000846863,0.001190186,0,
00:05.9,0.000217438,-0.000852585,0.001190186,0,
00:05.9,0.000205994,-0.000864029,0.001190186,0,
00:05.9,0.000205994,-0.000881195,0.001190186,0,
00:05.9,0.000205994,-0.000875473,0.00120163,0,
00:05.9,0.000205994,-0.000846863,0.00120163,0,
00:05.9,0.000205994,-0.000864029,0.00120163,0,
00:05.9,0.000205994,-0.000864029,0.00120163,0,
00:05.9,0.000211716,-0.000846863,0.001195908,0,
00:05.9,0.000228882,-0.000846863,0.001195908,0,
00:05.9,0.000211716,-0.000864029,0.001190186,0,
00:05.9,0.000200272,-0.000869751,0.001190186,0,
00:05.9,0.000217438,-0.000869751,0.001195908,0,
00:05.9,0.00022316,-0.000858307,0.001195908,0,
00:05.9,0.000211716,-0.000864029,0.00120163,0,
00:05.9,0.000205994,-0.000858307,0.00120163,0,
00:05.9,0.000211716,-0.000852585,0.00120163,0,
00:05.9,0.000211716,-0.000852585,0.001195908,0,
00:05.9,0.00019455,-0.000881195,0.00120163,0,
00:05.9,0.00019455,-0.000892639,0.001213074,0,
00:06.0,0.00022316,-0.000864029,0.001218796,0,
00:06.0,0.000234604,-0.000858307,0.001213074,0,
00:06.0,0.000228882,-0.000858307,0.001213074,0,
00:06.0,0.000234604,-0.000858307,0.001218796,0,
00:06.0,0.000217438,-0.000875473,0.00123024,0,
00:06.0,0.000228882,-0.000881195,0.00123024,0,
00:06.0,0.000217438,-0.000869751,0.00123024,0,
00:06.0,0.000205994,-0.000869751,0.001224518,0,
00:06.0,0.000217438,-0.000864029,0.00123024,0,
00:06.0,0.00022316,-0.000864029,0.00123024,0,
00:06.0,0.000211716,-0.000875473,0.001224518,0,
00:06.0,0.000205994,-0.000881195,0.001224518,0,
00:00:06,0.000211716,-0.000869751,0.00123024,0,
00:06.0,0.000228882,-0.000881195,0.00123024,0,
00:06.0,0.000228882,-0.000886917,0.00123024,0,
00:06.0,0.000217438,-0.000892639,0.00123024,0,
00:06.0,0.000217438,-0.000886917,0.001235962,0,
00:06.0,0.00022316,-0.000881195,0.001247406,0,
00:06.0,0.000234604,-0.000886917,0.001247406,0,
00:06.0,0.000240326,-0.000881195,0.001247406,0,
00:06.0,0.00022316,-0.000886917,0.001247406,0,
00:06.0,0.000183105,-0.000909805,0.001247406,0,
00:06.0,0.000205994,-0.000904083,0.001247406,0,
00:06.0,0.000240326,-0.000886917,0.001247406,0,
00:06.0,0.000246048,-0.000875473,0.001253128,0,
00:06.1,0.000246048,-0.000881195,0.001253128,0,
00:06.1,0.000240326,-0.000898361,0.001253128,0,
00:06.1,0.000228882,-0.000892639,0.001253128,0,
00:06.1,0.000240326,-0.000892639,0.001253128,0,
00:06.1,0.000246048,-0.000886917,0.00125885,0,
00:06.1,0.000240326,-0.000886917,0.001264572,0,
00:06.1,0.000234604,-0.000892639,0.001264572,0,
00:06.1,0.000240326,-0.000892639,0.001264572,0,
00:06.1,0.000240326,-0.000898361,0.001270294,0,
00:06.1,0.000234604,-0.000898361,0.001276016,0,
00:06.1,0.000234604,-0.000898361,0.001276016,0,
00:06.1,0.000217438,-0.000915527,0.001270294,0,
00:06.1,0.000211716,-0.000909805,0.001270294,0,
00:06.1,0.000240326,-0.000898361,0.001281738,0,
00:06.1,0.000246048,-0.000892639,0.001276016,0,
00:06.1,0.000234604,-0.000904083,0.001276016,0,
00:06.1,0.000246048,-0.000904083,0.001281738,0,
00:06.1,0.000246048,-0.000904083,0.001281738,0,
00:06.1,0.000246048,-0.000904083,0.00128746,0,
00:06.1,0.00025177,-0.000915527,0.001281738,0,
00:06.1,0.000257492,-0.000915527,0.001281738,0,
00:06.1,0.00025177,-0.000904083,0.001281738,0,
00:06.1,0.00025177,-0.000904083,0.001281738,0,
00:06.1,0.000257492,-0.000909805,0.001281738,0,
00:06.1,0.000246048,-0.000926971,0.001281738,0,
00:06.2,0.000228882,-0.000944138,0.001281738,0,
00:06.2,0.000240326,-0.000932693,0.00128746,0,
00:06.2,0.000274658,-0.000909805,0.00128746,0,
00:06.2,0.000268936,-0.000909805,0.00128746,0,
00:06.2,0.000257492,-0.000921249,0.00128746,0,
00:06.2,0.00025177,-0.000926971,0.00128746,0,
00:06.2,0.000246048,-0.000938416,0.00128746,0,
00:06.2,0.000246048,-0.000926971,0.00128746,0,
00:06.2,0.000257492,-0.000921249,0.001293182,0,
00:06.2,0.000268936,-0.000938416,0.00128746,0,
00:06.2,0.000263214,-0.000932693,0.00128746,0,
00:06.2,0.000257492,-0.000944138,0.00128746,0,
00:06.2,0.000246048,-0.00094986,0.001293182,0,
00:06.2,0.000268936,-0.000938416,0.00128746,0,
00:06.2,0.000286102,-0.000921249,0.00128746,0,
00:06.2,0.000268936,-0.000926971,0.001293182,0,
00:06.2,0.000268936,-0.000932693,0.00128746,0,
00:06.2,0.000257492,-0.00094986,0.00128746,0,
00:06.2,0.00025177,-0.000967026,0.00128746,0,
00:06.2,0.000263214,-0.000967026,0.001281738,0,
00:06.2,0.000274658,-0.000938416,0.00128746,0,
00:06.2,0.000274658,-0.000932693,0.00128746,0,
00:06.2,0.000274658,-0.000944138,0.00128746,0,
00:06.2,0.000274658,-0.00094986,0.001281738,0,
00:06.2,0.00028038,-0.000955582,0.001281738,0,
00:06.3,0.000274658,-0.000972748,0.001281738,0,
00:06.3,0.000257492,-0.000995636,0.00128746,0,
00:06.3,0.000263214,-0.000995636,0.001281738,0,
00:06.3,0.000286102,-0.000961304,0.001281738,0,
00:06.3,0.000291824,-0.000961304,0.001281738,0,
00:06.3,0.000286102,-0.000961304,0.001276016,0,
00:06.3,0.000291824,-0.000938416,0.001276016,0,
00:06.3,0.000286102,-0.00094986,0.001276016,0,
00:06.3,0.000286102,-0.000972748,0.001270294,0,
00:06.3,0.000286102,-0.00097847,0.001270294,0,
00:06.3,0.000291824,-0.000967026,0.001264572,0,
00:06.3,0.000291824,-0.000972748,0.001264572,0,
00:06.3,0.000286102,-0.000984192,0.001264572,0,
00:06.3,0.000274658,-0.00097847,0.00125885,0,
00:06.3,0.000286102,-0.00097847,0.001253128,0,
00:06.3,0.000297546,-0.00097847,0.001253128,0,
00:06.3,0.000291824,-0.000984192,0.001247406,0,
00:06.3,0.000286102,-0.000984192,0.001241684,0,
00:06.3,0.000286102,-0.000989914,0.001235962,0,
00:06.3,0.000286102,-0.000989914,0.001235962,0,
00:06.3,0.000286102,-0.000989914,0.001235962,0,
00:06.3,0.000274658,-0.001001358,0.00123024,0,
00:06.3,0.000286102,-0.000995636,0.001224518,0,
00:06.3,0.000303268,-0.000984192,0.001218796,0,
00:06.3,0.000303268,-0.000984192,0.001207352,0,
00:06.4,0.000291824,-0.001001358,0.00120163,0,
00:06.4,0.000291824,-0.00100708,0.001195908,0,
00:06.4,0.000291824,-0.001001358,0.001184464,0,
00:06.4,0.000303268,-0.000995636,0.001178741,0,
00:06.4,0.000297546,-0.001001358,0.001173019,0,
00:06.4,0.000303268,-0.00100708,0.001167297,0,
00:06.4,0.000297546,-0.001001358,0.001161575,0,
00:06.4,0.000297546,-0.001001358,0.001155853,0,
00:06.4,0.000291824,-0.001012802,0.001150131,0,
00:06.4,0.000297546,-0.001012802,0.001150131,0,
00:06.4,0.000291824,-0.001018524,0.001138687,0,
00:06.4,0.000297546,-0.001012802,0.001121521,0,
00:06.4,0.000303268,-0.001001358,0.001110077,0,
00:06.4,0.000303268,-0.001024246,0.001110077,0,
00:06.4,0.00030899,-0.001024246,0.001098633,0,
00:06.4,0.000303268,-0.001018524,0.001092911,0,
00:06.4,0.000297546,-0.001029968,0.001087189,0,
00:06.4,0.000303268,-0.001029968,0.001075745,0,
00:06.4,0.000303268,-0.001024246,0.001064301,0,
00:06.4,0.000303268,-0.001024246,0.001052856,0,
00:06.4,0.000303268,-0.001024246,0.001041412,0,
00:06.4,0.000297546,-0.001024246,0.001024246,0,
00:06.4,0.00028038,-0.001041412,0.001024246,0,
00:06.4,0.000291824,-0.001047134,0.001012802,0,
00:06.4,0.000314713,-0.001029968,0.001001358,0,
00:06.5,0.00030899,-0.001018524,0.000984192,0,
00:06.5,0.00030899,-0.001012802,0.000972748,0,
00:06.5,0.000303268,-0.00103569,0.000961304,0,
00:06.5,0.000297546,-0.001052856,0.00094986,0,
00:06.5,0.000297546,-0.001052856,0.000932693,0,
00:06.5,0.000303268,-0.001041412,0.000921249,0,
00:06.5,0.000297546,-0.001041412,0.000904083,0,
00:06.5,0.000291824,-0.001052856,0.000898361,0,
00:06.5,0.000291824,-0.001052856,0.000881195,0,
00:06.5,0.000297546,-0.001041412,0.000864029,0,
00:06.5,0.000297546,-0.001041412,0.000846863,0,
00:06.5,0.000297546,-0.001041412,0.000835419,0,
00:06.5,0.000297546,-0.001041412,0.000818253,0,
00:06.5,0.000286102,-0.001052856,0.000795364,0,
00:06.5,0.000286102,-0.001052856,0.00078392,0,
00:06.5,0.000291824,-0.001041412,0.000766754,0,
00:06.5,0.00030899,-0.001024246,0.000749588,0,
00:06.5,0.000303268,-0.001029968,0.000720978,0,
00:06.5,0.000297546,-0.001041412,0.000703812,0,
00:06.5,0.000297546,-0.00103569,0.000692368,0,
00:06.5,0.000286102,-0.001041412,0.000675201,0,
00:06.5,0.000286102,-0.001052856,0.000658035,0,
00:06.5,0.000286102,-0.001047134,0.000640869,0,
00:06.5,0.000274658,-0.001058578,0.000629425,0,
00:06.5,0.000268936,-0.001064301,0.000606537,0,
00:06.6,0.000286102,-0.00103569,0.000583649,0,
00:06.6,0.000286102,-0.001029968,0.000566483,0,
00:06.6,0.000274658,-0.001047134,0.000549316,0,
00:06.6,0.00028038,-0.001052856,0.000526428,0,
00:06.6,0.000268936,-0.001058578,0.000509262,0,
00:06.6,0.000268936,-0.001052856,0.000480652,0,
00:06.6,0.00028038,-0.00103569,0.000463486,0,
00:06.6,0.000286102,-0.001018524,0.000440598,0,
00:06.6,0.00028038,-0.001041412,0.000417709,0,
00:06.6,0.000268936,-0.001041412,0.000400543,0,
00:06.6,0.000263214,-0.001047134,0.000371933,0,
00:06.6,0.00025177,-0.001064301,0.000349045,0,
00:06.6,0.00025177,-0.001047134,0.000326157,0,
00:06.6,0.000246048,-0.00103569,0.000303268,0,
00:06.6,0.000257492,-0.001041412,0.000274658,0,
00:06.6,0.00025177,-0.001047134,0.000246048,0,
00:06.6,0.00025177,-0.001047134,0.00022316,0,
00:06.6,0.000246048,-0.001047134,0.000200272,0,
00:06.6,0.000240326,-0.001052856,0.000177383,0,
00:06.6,0.000234604,-0.001052856,0.000160217,0,
00:06.6,0.000234604,-0.001052856,0.000131607,0,
00:06.6,0.000234604,-0.001052856,9.73E-05,0,
00:06.6,0.000234604,-0.001052856,7.44E-05,0,
00:06.6,0.000246048,-0.001041412,5.15E-05,0,
00:06.6,0.000240326,-0.001041412,2.29E-05,0,
00:06.7,0.000228882,-0.001047134,-5.72E-06,0,
00:06.7,0.000228882,-0.001052856,-3.43E-05,0,
00:06.7,0.000234604,-0.001047134,-6.29E-05,0,
00:06.7,0.00022316,-0.001047134,-9.16E-05,0,
00:06.7,0.000205994,-0.001058578,-0.000114441,0,
00:06.7,0.000200272,-0.001058578,-0.000143051,0,
00:06.7,0.000211716,-0.001029968,-0.000171661,0,
00:06.7,0.000217438,-0.001029968,-0.00019455,0,
00:06.7,0.000205994,-0.001041412,-0.00022316,0,
00:06.7,0.00019455,-0.001041412,-0.00025177,0,
00:06.7,0.000183105,-0.00103569,-0.000286102,0,
00:06.7,0.000188828,-0.001024246,-0.000320435,0,
00:06.7,0.00019455,-0.001024246,-0.000349045,0,
00:06.7,0.000183105,-0.00103569,-0.000377655,0,
00:06.7,0.000171661,-0.001041412,-0.000400543,0,
00:06.7,0.000148773,-0.001047134,-0.000434875,0,
00:06.7,0.000154495,-0.001052856,-0.000463486,0,
00:06.7,0.000171661,-0.001029968,-0.000492096,0,
00:06.7,0.000171661,-0.001012802,-0.000520706,0,
00:06.7,0.000154495,-0.00103569,-0.000549316,0,
00:06.7,0.000148773,-0.001041412,-0.000583649,0,
00:06.7,0.000143051,-0.00103569,-0.000612259,0,
00:06.7,0.000143051,-0.001029968,-0.000640869,0,
00:06.7,0.000148773,-0.001024246,-0.000669479,0,
00:06.7,0.000143051,-0.001018524,-0.00069809,0,
00:06.8,0.000125885,-0.001029968,-0.000732422,0,
00:06.8,0.000120163,-0.00103569,-0.000766754,0,
00:06.8,0.000108719,-0.001029968,-0.000795364,0,
00:06.8,0.000108719,-0.001024246,-0.000835419,0,
00:06.8,0.000108719,-0.001024246,-0.000864029,0,
00:06.8,9.73E-05,-0.001018524,-0.000898361,0,
00:06.8,8.58E-05,-0.001018524,-0.000932693,0,
00:06.8,8.01E-05,-0.001018524,-0.000961304,0,
00:06.8,6.87E-05,-0.001041412,-0.000984192,0,
00:06.8,5.72E-05,-0.001024246,-0.001012802,0,
00:06.8,5.72E-05,-0.001001358,-0.001052856,0,
00:06.8,4.58E-05,-0.00100708,-0.001081467,0,
00:06.8,6.29E-05,-0.001001358,-0.001115799,0,
00:06.8,7.44E-05,-0.000989914,-0.001144409,0,
00:06.8,5.15E-05,-0.001001358,-0.001178741,0,
00:06.8,3.43E-05,-0.00100708,-0.001207352,0,
00:06.8,2.86E-05,-0.000984192,-0.001241684,0,
00:06.8,2.29E-05,-0.000995636,-0.001276016,0,
00:06.8,1.14E-05,-0.001012802,-0.001310349,0,
00:06.8,5.72E-06,-0.000984192,-0.001344681,0,
00:06.8,5.72E-06,-0.000961304,-0.001384735,0,
00:06.8,0,-0.00097847,-0.001413345,0,
00:06.8,-1.72E-05,-0.00097847,-0.001447678,0,
00:06.8,-2.86E-05,-0.000989914,-0.001470566,0,
00:06.8,-3.43E-05,-0.000995636,-0.001504898,0,
00:06.9,-4.58E-05,-0.000989914,-0.00153923,0,
00:06.9,-4.01E-05,-0.00097847,-0.001573563,0,
00:06.9,-4.01E-05,-0.000972748,-0.001607895,0,
00:06.9,-4.58E-05,-0.000967026,-0.001642227,0,
00:06.9,-6.29E-05,-0.00097847,-0.001682281,0,
00:06.9,-8.58E-05,-0.000984192,-0.001716614,0,
00:06.9,-9.73E-05,-0.00097847,-0.001750946,0,
00:06.9,-8.58E-05,-0.000955582,-0.001779556,0,
00:06.9,-6.87E-05,-0.000938416,-0.001813889,0,
00:06.9,-8.58E-05,-0.000944138,-0.001848221,0,
00:06.9,-0.000102997,-0.000955582,-0.001888275,0,
00:06.9,-0.000120163,-0.000955582,-0.001922607,0,
00:06.9,-0.000131607,-0.00094986,-0.00195694,0,
00:06.9,-0.000143051,-0.00094986,-0.00198555,0,
00:06.9,-0.000143051,-0.000944138,-0.00201416,0,
00:06.9,-0.000154495,-0.000938416,-0.002048492,0,
00:06.9,-0.000171661,-0.000938416,-0.002082825,0,
00:06.9,-0.000183105,-0.000944138,-0.002117157,0,
00:06.9,-0.000188828,-0.000926971,-0.002145767,0,
00:06.9,-0.00019455,-0.000926971,-0.002185822,0,
00:06.9,-0.000211716,-0.000926971,-0.002220154,0,
00:06.9,-0.000217438,-0.000909805,-0.002254486,0,
00:06.9,-0.000205994,-0.000898361,-0.00229454,0,
00:06.9,-0.000211716,-0.000909805,-0.002323151,0,
00:06.9,-0.000234604,-0.000915527,-0.002357483,0,
00:07.0,-0.000263214,-0.000909805,-0.002386093,0,
00:07.0,-0.000274658,-0.000904083,-0.002420425,0,
00:07.0,-0.000268936,-0.000892639,-0.002454758,0,
00:07.0,-0.000268936,-0.000886917,-0.002483368,0,
00:07.0,-0.00028038,-0.000881195,-0.002511978,0,
00:07.0,-0.000297546,-0.000875473,-0.002552032,0,
00:07.0,-0.000303268,-0.000864029,-0.002580643,0,
00:07.0,-0.00030899,-0.000858307,-0.002614975,0,
00:07.0,-0.000320435,-0.000858307,-0.002643585,0,
00:07.0,-0.000343323,-0.000864029,-0.002677917,0,
00:07.0,-0.000343323,-0.000858307,-0.00271225,0,
00:07.0,-0.000360489,-0.000852585,-0.00274086,0,
00:00:07,-0.000377655,-0.000852585,-0.002775192,0,
00:07.0,-0.000371933,-0.000846863,-0.002803802,0,
00:07.0,-0.000366211,-0.000823975,-0.002838135,0,
00:07.0,-0.000383377,-0.000823975,-0.002872467,0,
00:07.0,-0.000394821,-0.000846863,-0.002906799,0,
00:07.0,-0.000394821,-0.000858307,-0.002929688,0,
00:07.0,-0.000406265,-0.000858307,-0.002958298,0,
00:07.0,-0.000429153,-0.000858307,-0.002986908,0,
00:07.0,-0.000434875,-0.000835419,-0.003009796,0,
00:07.0,-0.000429153,-0.000818253,-0.003038406,0,
00:07.0,-0.000429153,-0.000801086,-0.003072739,0,
00:07.0,-0.000452042,-0.000806808,-0.003101349,0,
00:07.0,-0.000469208,-0.000812531,-0.003129959,0,
00:07.1,-0.000480652,-0.000806808,-0.003158569,0,
00:07.1,-0.000497818,-0.000806808,-0.00318718,0,
00:07.1,-0.000520706,-0.000806808,-0.003210068,0,
00:07.1,-0.00053215,-0.000789642,-0.003238678,0,
00:07.1,-0.00053215,-0.000761032,-0.003261566,0,
00:07.1,-0.000537872,-0.000761032,-0.003290176,0,
00:07.1,-0.000549316,-0.000761032,-0.003318787,0,
00:07.1,-0.000555038,-0.000766754,-0.003341675,0,
00:07.1,-0.000566483,-0.000766754,-0.003370285,0,
00:07.1,-0.000583649,-0.00075531,-0.003398895,0,
00:07.1,-0.000600815,-0.00075531,-0.003427505,0,
00:07.1,-0.000617981,-0.00075531,-0.003450394,0,
00:07.1,-0.000629425,-0.0007267,-0.003473282,0,
00:07.1,-0.000635147,-0.000715256,-0.003501892,0,
00:07.1,-0.000646591,-0.000715256,-0.00352478,0,
00:07.1,-0.000669479,-0.000709534,-0.003547668,0,
00:07.1,-0.000675201,-0.000703812,-0.003564835,0,
00:07.1,-0.000686646,-0.00069809,-0.003587723,0,
00:07.1,-0.000692368,-0.000675201,-0.003610611,0,
00:07.1,-0.00069809,-0.000663757,-0.003633499,0,
00:07.1,-0.000720978,-0.000669479,-0.003656387,0,
00:07.1,-0.000738144,-0.000675201,-0.003673553,0,
00:07.1,-0.000749588,-0.000680923,-0.003696442,0,
00:07.1,-0.000749588,-0.000680923,-0.003707886,0,
00:07.1,-0.000749588,-0.000652313,-0.003730774,0,
00:07.2,-0.000761032,-0.000629425,-0.003753662,0,
00:07.2,-0.000772476,-0.000617981,-0.003770828,0,
00:07.2,-0.000789642,-0.000623703,-0.003793716,0,
00:07.2,-0.000818253,-0.000635147,-0.003816605,0,
00:07.2,-0.000829697,-0.000629425,-0.003833771,0,
00:07.2,-0.000841141,-0.000606537,-0.003856659,0,
00:07.2,-0.000852585,-0.000583649,-0.003868103,0,
00:07.2,-0.000864029,-0.000583649,-0.003890991,0,
00:07.2,-0.000881195,-0.000583649,-0.003908157,0,
00:07.2,-0.000904083,-0.000595093,-0.003925323,0,
00:07.2,-0.000915527,-0.000572205,-0.003936768,0,
00:07.2,-0.000904083,-0.000543594,-0.003953934,0,
00:07.2,-0.000915527,-0.00053215,-0.0039711,0,
00:07.2,-0.000932693,-0.00053215,-0.003982544,0,
00:07.2,-0.00094986,-0.000520706,-0.003993988,0,
00:07.2,-0.000961304,-0.000520706,-0.004011154,0,
00:07.2,-0.00097847,-0.000526428,-0.004034042,0,
00:07.2,-0.000995636,-0.000509262,-0.004045486,0,
00:07.2,-0.000995636,-0.000497818,-0.004062653,0,
00:07.2,-0.00100708,-0.000509262,-0.004079819,0,
00:07.2,-0.001018524,-0.000480652,-0.004091263,0,
00:07.2,-0.00103569,-0.000463486,-0.004096985,0,
00:07.2,-0.001041412,-0.000469208,-0.004102707,0,
00:07.2,-0.001041412,-0.000463486,-0.004119873,0,
00:07.2,-0.001064301,-0.000457764,-0.004131317,0,
00:07.3,-0.001081467,-0.000452042,-0.004142761,0,
00:07.3,-0.001087189,-0.000434875,-0.004159927,0,
00:07.3,-0.001092911,-0.000417709,-0.004171371,0,
00:07.3,-0.001098633,-0.000417709,-0.004177094,0,
00:07.3,-0.001115799,-0.000411987,-0.004182816,0,
00:07.3,-0.001115799,-0.000394821,-0.004199982,0,
00:07.3,-0.001127243,-0.000377655,-0.004211426,0,
00:07.3,-0.001138687,-0.000371933,-0.00422287,0,
00:07.3,-0.001155853,-0.000371933,-0.004228592,0,
00:07.3,-0.001173019,-0.000371933,-0.004240036,0,
00:07.3,-0.001184464,-0.000354767,-0.00425148,0,
00:07.3,-0.001190186,-0.000349045,-0.004257202,0,
00:07.3,-0.00120163,-0.000354767,-0.004268646,0,
00:07.3,-0.001213074,-0.000337601,-0.00428009,0,
00:07.3,-0.001224518,-0.000320435,-0.004285812,0,
00:07.3,-0.00123024,-0.000314713,-0.004285812,0,
00:07.3,-0.001241684,-0.00030899,-0.004297256,0,
00:07.3,-0.001253128,-0.000303268,-0.004302979,0,
00:07.3,-0.001264572,-0.000291824,-0.004314423,0,
00:07.3,-0.001270294,-0.000274658,-0.004314423,0,
00:07.3,-0.001293182,-0.000274658,-0.004320145,0,
00:07.3,-0.001310349,-0.000274658,-0.004325867,0,
00:07.3,-0.001327515,-0.000268936,-0.004331589,0,
00:07.3,-0.001310349,-0.00025177,-0.004337311,0,
00:07.3,-0.001316071,-0.00022316,-0.004348755,0,
00:07.4,-0.001338959,-0.00022316,-0.004354477,0,
00:07.4,-0.001344681,-0.000211716,-0.004348755,0,
00:07.4,-0.001367569,-0.00022316,-0.004348755,0,
00:07.4,-0.001379013,-0.00022316,-0.004354477,0,
00:07.4,-0.001379013,-0.00019455,-0.004360199,0,
00:07.4,-0.001390457,-0.000165939,-0.004360199,0,
00:07.4,-0.001396179,-0.000160217,-0.004360199,0,
00:07.4,-0.001401901,-0.000160217,-0.004365921,0,
00:07.4,-0.001424789,-0.000165939,-0.004365921,0,
00:07.4,-0.001436234,-0.000148773,-0.004365921,0,
00:07.4,-0.001441956,-0.000143051,-0.004365921,0,
00:07.4,-0.001447678,-0.000131607,-0.004365921,0,
00:07.4,-0.001447678,-0.000120163,-0.004371643,0,
00:07.4,-0.0014534,-0.000108719,-0.004371643,0,
00:07.4,-0.00148201,-0.000102997,-0.004371643,0,
00:07.4,-0.001504898,-9.73E-05,-0.004371643,0,
00:07.4,-0.001504898,-8.01E-05,-0.004377365,0,
00:07.4,-0.001487732,-6.29E-05,-0.004377365,0,
00:07.4,-0.001493454,-5.72E-05,-0.004371643,0,
00:07.4,-0.00151062,-5.72E-05,-0.004377365,0,
00:07.4,-0.001516342,-4.58E-05,-0.004371643,0,
00:07.4,-0.001527786,-4.01E-05,-0.004371643,0,
00:07.4,-0.00153923,-4.01E-05,-0.004371643,0,
00:07.4,-0.001544952,-2.29E-05,-0.004365921,0,
00:07.4,-0.001562119,-1.72E-05,-0.004365921,0,
00:07.5,-0.001567841,-5.72E-06,-0.004365921,0,
00:07.5,-0.001573563,5.72E-06,-0.004354477,0,
00:07.5,-0.001579285,1.14E-05,-0.004348755,0,
00:07.5,-0.001585007,2.86E-05,-0.004348755,0,
00:07.5,-0.001590729,4.01E-05,-0.004343033,0,
00:07.5,-0.001607895,4.01E-05,-0.004343033,0,
00:07.5,-0.001613617,5.15E-05,-0.004337311,0,
00:07.5,-0.001625061,6.29E-05,-0.004331589,0,
00:07.5,-0.001630783,8.01E-05,-0.004331589,0,
00:07.5,-0.001625061,8.58E-05,-0.004325867,0,
00:07.5,-0.001636505,8.58E-05,-0.004320145,0,
00:07.5,-0.001659393,8.58E-05,-0.004320145,0,
00:07.5,-0.001676559,9.16E-05,-0.004314423,0,
00:07.5,-0.001676559,0.000114441,-0.004308701,0,
00:07.5,-0.001676559,0.000131607,-0.004297256,0,
00:07.5,-0.001665115,0.000160217,-0.004285812,0,
00:07.5,-0.001676559,0.000148773,-0.004285812,0,
00:07.5,-0.001688004,0.000160217,-0.004274368,0,
00:07.5,-0.001699448,0.000165939,-0.004274368,0,
00:07.5,-0.00170517,0.000177383,-0.004268646,0,
00:07.5,-0.00170517,0.000188828,-0.004268646,0,
00:07.5,-0.001710892,0.00019455,-0.004262924,0,
00:07.5,-0.001722336,0.000200272,-0.004245758,0,
00:07.5,-0.001728058,0.000211716,-0.004240036,0,
00:07.5,-0.00173378,0.000211716,-0.004228592,0,
00:07.6,-0.001745224,0.00022316,-0.00422287,0,
00:07.6,-0.001750946,0.000240326,-0.004217148,0,
00:07.6,-0.00176239,0.000240326,-0.004211426,0,
00:07.6,-0.001768112,0.000246048,-0.004199982,0,
00:07.6,-0.001768112,0.00025177,-0.00419426,0,
00:07.6,-0.001779556,0.000246048,-0.004182816,0,
00:07.6,-0.001785278,0.000257492,-0.004177094,0,
00:07.6,-0.001785278,0.00028038,-0.004171371,0,
00:07.6,-0.001785278,0.000291824,-0.004159927,0,
00:07.6,-0.001796722,0.000291824,-0.004154205,0,
00:07.6,-0.001802444,0.000314713,-0.004142761,0,
00:07.6,-0.001813889,0.000320435,-0.004125595,0,
00:07.6,-0.001819611,0.000326157,-0.004114151,0,
00:07.6,-0.001808167,0.000354767,-0.004108429,0,
00:07.6,-0.001825333,0.000354767,-0.004102707,0,
00:07.6,-0.001842499,0.000343323,-0.004085541,0,
00:07.6,-0.001842499,0.000337601,-0.004068375,0,
00:07.6,-0.001831055,0.000354767,-0.004062653,0,
00:07.6,-0.001825333,0.000383377,-0.004051208,0,
00:07.6,-0.001831055,0.000389099,-0.004039764,0,
00:07.6,-0.001842499,0.000394821,-0.00402832,0,
00:07.6,-0.001848221,0.000406265,-0.004016876,0,
00:07.6,-0.001848221,0.000417709,-0.004005432,0,
00:07.6,-0.001865387,0.000417709,-0.003993988,0,
00:07.6,-0.001876831,0.000429153,-0.003982544,0,
00:07.7,-0.001882553,0.000423431,-0.0039711,0,
00:07.7,-0.001882553,0.000429153,-0.003959656,0,
00:07.7,-0.001882553,0.000440598,-0.00394249,0,
00:07.7,-0.001899719,0.00044632,-0.003936768,0,
00:07.7,-0.001893997,0.000469208,-0.003925323,0,
00:07.7,-0.001893997,0.00047493,-0.003913879,0,
00:07.7,-0.001905441,0.00047493,-0.003890991,0,
00:07.7,-0.001911163,0.000480652,-0.003879547,0,
00:07.7,-0.001911163,0.000486374,-0.003862381,0,
00:07.7,-0.001916885,0.000497818,-0.003850937,0,
00:07.7,-0.001928329,0.00050354,-0.003839493,0,
00:07.7,-0.001922607,0.000509262,-0.003822327,0,
00:07.7,-0.001934052,0.00050354,-0.003810883,0,
00:07.7,-0.001939774,0.000509262,-0.003793716,0,
00:07.7,-0.001939774,0.000549316,-0.00377655,0,
00:07.7,-0.001945496,0.000555038,-0.003759384,0,
00:07.7,-0.00195694,0.000543594,-0.00374794,0,
00:07.7,-0.00198555,0.00053215,-0.003730774,0,
00:07.7,-0.001979828,0.000543594,-0.00371933,0,
00:07.7,-0.001934052,0.000595093,-0.003702164,0,
00:07.7,-0.001945496,0.000606537,-0.003696442,0,
00:07.7,-0.00195694,0.000606537,-0.003673553,0,
00:07.7,-0.001951218,0.000606537,-0.003650665,0,
00:07.7,-0.00195694,0.000606537,-0.003639221,0,
00:07.7,-0.001974106,0.000606537,-0.003622055,0,
00:07.8,-0.001991272,0.000629425,-0.003604889,0,
00:07.8,-0.002002716,0.000617981,-0.003593445,0,
00:07.8,-0.001979828,0.000635147,-0.003582001,0,
00:07.8,-0.001979828,0.000652313,-0.003570557,0,
00:07.8,-0.001991272,0.000652313,-0.003553391,0,
00:07.8,-0.001996994,0.000646591,-0.003541946,0,
00:07.8,-0.001991272,0.000652313,-0.003530502,0,
00:07.8,-0.00198555,0.000652313,-0.003507614,0,
00:07.8,-0.001996994,0.000646591,-0.003490448,0,
00:07.8,-0.002008438,0.000658035,-0.003473282,0,
00:07.8,-0.00201416,0.000675201,-0.003456116,0,
00:07.8,-0.002019882,0.000675201,-0.00343895,0,
00:07.8,-0.002025604,0.000663757,-0.003421783,0,
00:07.8,-0.002031326,0.000669479,-0.003410339,0,
00:07.8,-0.00201416,0.00069809,-0.003398895,0,
00:07.8,-0.002008438,0.000703812,-0.003376007,0,
00:07.8,-0.002031326,0.00069809,-0.003364563,0,
00:07.8,-0.00204277,0.000692368,-0.003347397,0,
00:07.8,-0.00204277,0.000703812,-0.003335953,0,
00:07.8,-0.002048492,0.000732422,-0.003318787,0,
00:07.8,-0.002037048,0.000732422,-0.003307343,0,
00:07.8,-0.002031326,0.000738144,-0.003290176,0,
00:07.8,-0.002031326,0.000743866,-0.00327301,0,
00:07.8,-0.002031326,0.00075531,-0.003261566,0,
00:07.8,-0.002054214,0.000749588,-0.0032444,0,
00:07.9,-0.002077103,0.00075531,-0.003227234,0,
00:07.9,-0.002059937,0.000778198,-0.003204346,0,
00:07.9,-0.002048492,0.000778198,-0.00318718,0,
00:07.9,-0.00204277,0.000806808,-0.003170013,0,
00:07.9,-0.00204277,0.000818253,-0.003152847,0,
00:07.9,-0.002048492,0.000818253,-0.003135681,0,
00:07.9,-0.002059937,0.000812531,-0.003124237,0,
00:07.9,-0.002065659,0.000818253,-0.003112793,0,
00:07.9,-0.002059937,0.000812531,-0.003095627,0,
00:07.9,-0.002059937,0.000818253,-0.003078461,0,
00:07.9,-0.002065659,0.000812531,-0.003055573,0,
00:07.9,-0.002065659,0.000818253,-0.003038406,0,
00:07.9,-0.002054214,0.000841141,-0.00302124,0,
00:07.9,-0.002059937,0.000841141,-0.003009796,0,
00:07.9,-0.002065659,0.000846863,-0.00299263,0,
00:07.9,-0.002071381,0.000846863,-0.002981186,0,
00:07.9,-0.002065659,0.000852585,-0.00296402,0,
00:07.9,-0.002071381,0.000858307,-0.002946854,0,
00:07.9,-0.002077103,0.000858307,-0.002929688,0,
00:07.9,-0.002065659,0.000875473,-0.002906799,0,
00:07.9,-0.002071381,0.000881195,-0.002895355,0,
00:07.9,-0.002071381,0.000886917,-0.002878189,0,
00:07.9,-0.002059937,0.000909805,-0.002861023,0,
00:07.9,-0.002065659,0.000898361,-0.002843857,0,
00:07.9,-0.002094269,0.000892639,-0.002826691,0,
00:08.0,-0.002094269,0.000904083,-0.002815247,0,
00:08.0,-0.002082825,0.000926971,-0.00279808,0,
00:08.0,-0.002071381,0.000926971,-0.002780914,0,
00:08.0,-0.002071381,0.000926971,-0.002763748,0,
00:08.0,-0.002082825,0.000932693,-0.002746582,0,
00:08.0,-0.002088547,0.000932693,-0.002723694,0,
00:08.0,-0.002082825,0.000926971,-0.002706528,0,
00:08.0,-0.002082825,0.000926971,-0.002689362,0,
00:08.0,-0.002082825,0.000932693,-0.002672195,0,
00:08.0,-0.002094269,0.000944138,-0.002649307,0,
00:08.0,-0.002099991,0.00094986,-0.002637863,0,
00:08.0,-0.002094269,0.00094986,-0.002620697,0,
00:00:08,-0.002099991,0.000955582,-0.002609253,0,
00:08.0,-0.002105713,0.000972748,-0.002592087,0,
00:08.0,-0.002105713,0.000972748,-0.002574921,0,
00:08.0,-0.002094269,0.000984192,-0.002552032,0,
00:08.0,-0.002099991,0.000989914,-0.002534866,0,
00:08.0,-0.002099991,0.000995636,-0.002511978,0,
00:08.0,-0.002094269,0.001001358,-0.002494812,0,
00:08.0,-0.002105713,0.000989914,-0.002477646,0,
00:08.0,-0.002117157,0.000995636,-0.002466202,0,
00:08.0,-0.002088547,0.001024246,-0.002449036,0,
00:08.0,-0.002094269,0.001029968,-0.00243187,0,
00:08.0,-0.002099991,0.001024246,-0.002414703,0,
00:08.0,-0.002099991,0.001029968,-0.002403259,0,
00:08.1,-0.002094269,0.001041412,-0.002386093,0,
00:08.1,-0.002094269,0.001047134,-0.002368927,0,
00:08.1,-0.002094269,0.001041412,-0.002346039,0,
00:08.1,-0.002099991,0.001041412,-0.002334595,0,
00:08.1,-0.002111435,0.001052856,-0.002323151,0,
00:08.1,-0.002105713,0.001058578,-0.002311707,0,
00:08.1,-0.002088547,0.001064301,-0.002288818,0,
00:08.1,-0.002082825,0.001064301,-0.002271652,0,
00:08.1,-0.002088547,0.001070023,-0.002248764,0,
00:08.1,-0.002094269,0.001075745,-0.002231598,0,
00:08.1,-0.002088547,0.001087189,-0.002214432,0,
00:08.1,-0.002082825,0.001087189,-0.002197266,0,
00:08.1,-0.002071381,0.001092911,-0.002180099,0,
00:08.1,-0.002082825,0.001092911,-0.002157211,0,
00:08.1,-0.002094269,0.001098633,-0.002140045,0,
00:08.1,-0.002094269,0.001098633,-0.002128601,0,
00:08.1,-0.002094269,0.001110077,-0.002111435,0,
00:08.1,-0.002082825,0.001121521,-0.002099991,0,
00:08.1,-0.002082825,0.001121521,-0.002082825,0,
00:08.1,-0.002094269,0.001127243,-0.002065659,0,
00:08.1,-0.002088547,0.001127243,-0.00204277,0,
00:08.1,-0.002082825,0.001121521,-0.002025604,0,
00:08.1,-0.002082825,0.001127243,-0.002002716,0,
00:08.1,-0.002071381,0.001138687,-0.00198555,0,
00:08.1,-0.002059937,0.001144409,-0.001968384,0,
00:08.2,-0.002065659,0.001150131,-0.001951218,0,
00:08.2,-0.002071381,0.001150131,-0.001934052,0,
00:08.2,-0.002065659,0.001150131,-0.001916885,0,
00:08.2,-0.002059937,0.001155853,-0.001905441,0,
00:08.2,-0.002059937,0.001161575,-0.001888275,0,
00:08.2,-0.002054214,0.001150131,-0.001865387,0,
00:08.2,-0.002054214,0.001150131,-0.001848221,0,
00:08.2,-0.002054214,0.001167297,-0.001836777,0,
00:08.2,-0.002048492,0.001178741,-0.001819611,0,
00:08.2,-0.002048492,0.001184464,-0.001802444,0,
00:08.2,-0.002054214,0.001190186,-0.001779556,0,
00:08.2,-0.00204277,0.001190186,-0.00176239,0,
00:08.2,-0.002037048,0.001184464,-0.001745224,0,
00:08.2,-0.002048492,0.001184464,-0.001728058,0,
00:08.2,-0.002054214,0.001178741,-0.001710892,0,
00:08.2,-0.002048492,0.001184464,-0.001699448,0,
00:08.2,-0.002031326,0.001195908,-0.001682281,0,
00:08.2,-0.002019882,0.001207352,-0.001665115,0,
00:08.2,-0.002019882,0.001218796,-0.001642227,0,
00:08.2,-0.002031326,0.001213074,-0.001630783,0,
00:08.2,-0.002031326,0.001207352,-0.001607895,0,
00:08.2,-0.002031326,0.001213074,-0.001590729,0,
00:08.2,-0.002025604,0.001224518,-0.001573563,0,
00:08.2,-0.002025604,0.00123024,-0.001556396,0,
00:08.2,-0.002019882,0.00123024,-0.00153923,0,
00:08.3,-0.002019882,0.001224518,-0.001527786,0,
00:08.3,-0.002008438,0.00123024,-0.00151062,0,
00:08.3,-0.002008438,0.001235962,-0.001499176,0,
00:08.3,-0.002002716,0.001247406,-0.00148201,0,
00:08.3,-0.002002716,0.001235962,-0.001464844,0,
00:08.3,-0.002008438,0.001235962,-0.0014534,0,
00:08.3,-0.002002716,0.001241684,-0.001436234,0,
00:08.3,-0.001991272,0.001247406,-0.001419067,0,
00:08.3,-0.002002716,0.001247406,-0.001401901,0,
00:08.3,-0.00201416,0.001241684,-0.001384735,0,
00:08.3,-0.002008438,0.001247406,-0.001361847,0,
00:08.3,-0.002002716,0.001253128,-0.001344681,0,
00:08.3,-0.001996994,0.001253128,-0.001333237,0,
00:08.3,-0.001991272,0.00125885,-0.001321793,0,
00:08.3,-0.001996994,0.001281738,-0.001304626,0,
00:08.3,-0.001991272,0.00128746,-0.00128746,0,
00:08.3,-0.001979828,0.001276016,-0.001276016,0,
00:08.3,-0.001991272,0.00125885,-0.00125885,0,
00:08.3,-0.002019882,0.001247406,-0.001241684,0,
00:08.3,-0.00198555,0.00125885,-0.001224518,0,
00:08.3,-0.001951218,0.001293182,-0.001207352,0,
00:08.3,-0.001951218,0.001304626,-0.001190186,0,
00:08.3,-0.001951218,0.001310349,-0.001173019,0,
00:08.3,-0.001951218,0.001304626,-0.001155853,0,
00:08.3,-0.001951218,0.001298904,-0.001144409,0,
00:08.4,-0.001951218,0.001293182,-0.001121521,0,
00:08.4,-0.001939774,0.001310349,-0.001110077,0,
00:08.4,-0.001939774,0.001316071,-0.001092911,0,
00:08.4,-0.001939774,0.001316071,-0.001081467,0,
00:08.4,-0.001939774,0.001316071,-0.001064301,0,
00:08.4,-0.001934052,0.001316071,-0.001047134,0,
00:08.4,-0.001934052,0.001316071,-0.001029968,0,
00:08.4,-0.001928329,0.001321793,-0.001018524,0,
00:08.4,-0.001928329,0.001338959,-0.000995636,0,
00:08.4,-0.001928329,0.001350403,-0.00097847,0,
00:08.4,-0.001905441,0.001356125,-0.000967026,0,
00:08.4,-0.001899719,0.001350403,-0.00094986,0,
00:08.4,-0.001899719,0.001338959,-0.000932693,0,
00:08.4,-0.001905441,0.001333237,-0.000915527,0,
00:08.4,-0.001899719,0.001350403,-0.000898361,0,
00:08.4,-0.001911163,0.001356125,-0.000881195,0,
00:08.4,-0.001916885,0.001350403,-0.000869751,0,
00:08.4,-0.001911163,0.001344681,-0.000852585,0,
00:08.4,-0.001899719,0.001367569,-0.000835419,0,
00:08.4,-0.001893997,0.001361847,-0.000818253,0,
00:08.4,-0.001893997,0.001356125,-0.000806808,0,
00:08.4,-0.001888275,0.001350403,-0.000795364,0,
00:08.4,-0.001882553,0.001356125,-0.000778198,0,
00:08.4,-0.001871109,0.001367569,-0.000766754,0,
00:08.4,-0.001871109,0.001379013,-0.00075531,0,
00:08.5,-0.001865387,0.001390457,-0.000738144,0,
00:08.5,-0.001853943,0.001367569,-0.000720978,0,
00:08.5,-0.001871109,0.001367569,-0.000703812,0,
00:08.5,-0.001882553,0.001367569,-0.000692368,0,
00:08.5,-0.001865387,0.001379013,-0.000675201,0,
00:08.5,-0.001848221,0.001390457,-0.000658035,0,
00:08.5,-0.001853943,0.001384735,-0.000646591,0,
00:08.5,-0.001842499,0.001384735,-0.000629425,0,
00:08.5,-0.001848221,0.001390457,-0.000617981,0,
00:08.5,-0.001848221,0.001396179,-0.000606537,0,
00:08.5,-0.001836777,0.001396179,-0.000595093,0,
00:08.5,-0.001831055,0.001401901,-0.000583649,0,
00:08.5,-0.001825333,0.001401901,-0.000566483,0,
00:08.5,-0.001825333,0.001407623,-0.000549316,0,
00:08.5,-0.001831055,0.001396179,-0.000543594,0,
00:08.5,-0.001825333,0.001390457,-0.000520706,0,
00:08.5,-0.001813889,0.001396179,-0.00050354,0,
00:08.5,-0.001808167,0.001401901,-0.000492096,0,
00:08.5,-0.001802444,0.001413345,-0.000480652,0,
00:08.5,-0.001796722,0.001413345,-0.000469208,0,
00:08.5,-0.001796722,0.001413345,-0.000457764,0,
00:08.5,-0.001791,0.001419067,-0.000440598,0,
00:08.5,-0.001779556,0.001419067,-0.000429153,0,
00:08.5,-0.001796722,0.001407623,-0.000417709,0,
00:08.5,-0.001779556,0.001424789,-0.000400543,0,
00:08.6,-0.00176239,0.001436234,-0.000389099,0,
00:08.6,-0.00176239,0.001419067,-0.000371933,0,
00:08.6,-0.001768112,0.001407623,-0.000360489,0,
00:08.6,-0.001756668,0.001430511,-0.000343323,0,
00:08.6,-0.001750946,0.001424789,-0.000331879,0,
00:08.6,-0.00176239,0.001419067,-0.000320435,0,
00:08.6,-0.00173378,0.001436234,-0.00030899,0,
00:08.6,-0.001710892,0.001447678,-0.000297546,0,
00:08.6,-0.001722336,0.001436234,-0.00028038,0,
00:08.6,-0.00173378,0.001430511,-0.000268936,0,
00:08.6,-0.001728058,0.001430511,-0.000257492,0,
00:08.6,-0.001710892,0.001430511,-0.000240326,0,
00:08.6,-0.00170517,0.001441956,-0.000228882,0,
00:08.6,-0.001710892,0.001441956,-0.00022316,0,
00:08.6,-0.001710892,0.001430511,-0.000205994,0,
00:08.6,-0.001699448,0.001459122,-0.00019455,0,
00:08.6,-0.001699448,0.001464844,-0.000177383,0,
00:08.6,-0.001699448,0.0014534,-0.000165939,0,
00:08.6,-0.001693726,0.001464844,-0.000154495,0,
00:08.6,-0.001688004,0.001470566,-0.000143051,0,
00:08.6,-0.001688004,0.001470566,-0.000125885,0,
00:08.6,-0.001693726,0.001459122,-0.000108719,0,
00:08.6,-0.00170517,0.0014534,-9.73E-05,0,
00:08.6,-0.001693726,0.001470566,-8.01E-05,0,
00:08.6,-0.001676559,0.001476288,-6.29E-05,0,
00:08.7,-0.001665115,0.001470566,-5.15E-05,0,
00:08.7,-0.001665115,0.001470566,-4.58E-05,0,
00:08.7,-0.001665115,0.001464844,-2.86E-05,0,
00:08.7,-0.001659393,0.001464844,-1.72E-05,0,
00:08.7,-0.001665115,0.001464844,-5.72E-06,0,
00:08.7,-0.001653671,0.001464844,1.14E-05,0,
00:08.7,-0.001642227,0.001470566,1.72E-05,0,
00:08.7,-0.001630783,0.001470566,2.86E-05,0,
00:08.7,-0.001636505,0.001464844,4.01E-05,0,
00:08.7,-0.001642227,0.001476288,5.15E-05,0,
00:08.7,-0.001642227,0.001476288,6.29E-05,0,
00:08.7,-0.001642227,0.001470566,7.44E-05,0,
00:08.7,-0.001636505,0.001470566,9.16E-05,0,
00:08.7,-0.001625061,0.001487732,0.000102997,0,
00:08.7,-0.001613617,0.001493454,0.000114441,0,
00:08.7,-0.001607895,0.001493454,0.000120163,0,
00:08.7,-0.001607895,0.00148201,0.000137329,0,
00:08.7,-0.001613617,0.001476288,0.000154495,0,
00:08.7,-0.001613617,0.001470566,0.000160217,0,
00:08.7,-0.001613617,0.001464844,0.000177383,0,
00:08.7,-0.001590729,0.00148201,0.000188828,0,
00:08.7,-0.001585007,0.00148201,0.000200272,0,
00:08.7,-0.001567841,0.00148201,0.000211716,0,
00:08.7,-0.001567841,0.001516342,0.00022316,0,
00:08.7,-0.001573563,0.001504898,0.000234604,0,
00:08.8,-0.001579285,0.001493454,0.00025177,0,
00:08.8,-0.001567841,0.001499176,0.000257492,0,
00:08.8,-0.001550674,0.00151062,0.000268936,0,
00:08.8,-0.001544952,0.00151062,0.00028038,0,
00:08.8,-0.001550674,0.001499176,0.000291824,0,
00:08.8,-0.001544952,0.001487732,0.000314713,0,
00:08.8,-0.001533508,0.001499176,0.000326157,0,
00:08.8,-0.001527786,0.001504898,0.000337601,0,
00:08.8,-0.001533508,0.001499176,0.000349045,0,
00:08.8,-0.001533508,0.001493454,0.000354767,0,
00:08.8,-0.001527786,0.001487732,0.000366211,0,
00:08.8,-0.001527786,0.001504898,0.000371933,0,
00:08.8,-0.00151062,0.001516342,0.000377655,0,
00:08.8,-0.001499176,0.00151062,0.000389099,0,
00:08.8,-0.001504898,0.001516342,0.000400543,0,
00:08.8,-0.001504898,0.001522064,0.000411987,0,
00:08.8,-0.00151062,0.001504898,0.000423431,0,
00:08.8,-0.001522064,0.00148201,0.000434875,0,
00:08.8,-0.001527786,0.00148201,0.000452042,0,
00:08.8,-0.001499176,0.001504898,0.000452042,0,
00:08.8,-0.001476288,0.00153923,0.000463486,0,
00:08.8,-0.001476288,0.001533508,0.000469208,0,
00:08.8,-0.001470566,0.001527786,0.00047493,0,
00:08.8,-0.001470566,0.001522064,0.000486374,0,
00:08.8,-0.001470566,0.001516342,0.00050354,0,
00:08.9,-0.001447678,0.001516342,0.000514984,0,
00:08.9,-0.001441956,0.001516342,0.000520706,0,
00:08.9,-0.001447678,0.001516342,0.00053215,0,
00:08.9,-0.0014534,0.001522064,0.000543594,0,
00:08.9,-0.001441956,0.001533508,0.000555038,0,
00:08.9,-0.001436234,0.001527786,0.000566483,0,
00:08.9,-0.001436234,0.00151062,0.000577927,0,
00:08.9,-0.001441956,0.001504898,0.000589371,0,
00:08.9,-0.001441956,0.00153923,0.000600815,0,
00:08.9,-0.001436234,0.001544952,0.000600815,0,
00:08.9,-0.001424789,0.001544952,0.000606537,0,
00:08.9,-0.001413345,0.001533508,0.000617981,0,
00:08.9,-0.001413345,0.001527786,0.000629425,0,
00:08.9,-0.001413345,0.00153923,0.000640869,0,
00:08.9,-0.001396179,0.001533508,0.000646591,0,
00:08.9,-0.001390457,0.001527786,0.000652313,0,
00:08.9,-0.001384735,0.001527786,0.000663757,0,
00:08.9,-0.001390457,0.001527786,0.000675201,0,
00:08.9,-0.001384735,0.001527786,0.000680923,0,
00:08.9,-0.001379013,0.00153923,0.000692368,0,
00:08.9,-0.001361847,0.00153923,0.000703812,0,
00:08.9,-0.001361847,0.001533508,0.000715256,0,
00:08.9,-0.001379013,0.001533508,0.0007267,0,
00:08.9,-0.001384735,0.001527786,0.000732422,0,
00:08.9,-0.001379013,0.001527786,0.000738144,0,
00:09.0,-0.001361847,0.001533508,0.000743866,0,
00:09.0,-0.001361847,0.00153923,0.000761032,0,
00:09.0,-0.001350403,0.001522064,0.000766754,0,
00:09.0,-0.001338959,0.001533508,0.000772476,0,
00:09.0,-0.001327515,0.001550674,0.00078392,0,
00:09.0,-0.001321793,0.001544952,0.000789642,0,
00:09.0,-0.001316071,0.001544952,0.000795364,0,
00:09.0,-0.001310349,0.001544952,0.000806808,0,
00:09.0,-0.001321793,0.001544952,0.000812531,0,
00:09.0,-0.001321793,0.001533508,0.000823975,0,
00:09.0,-0.001298904,0.001544952,0.000835419,0,
00:09.0,-0.001293182,0.001556396,0.000846863,0,
00:00:09,-0.00128746,0.001556396,0.000858307,0,
00:09.0,-0.001281738,0.001556396,0.000864029,0,
00:09.0,-0.001293182,0.001544952,0.000869751,0,
00:09.0,-0.001293182,0.001544952,0.000875473,0,
00:09.0,-0.00128746,0.001544952,0.000881195,0,
00:09.0,-0.00128746,0.001544952,0.000892639,0,
00:09.0,-0.001281738,0.001544952,0.000904083,0,
00:09.0,-0.001276016,0.001556396,0.000909805,0,
00:09.0,-0.001276016,0.001550674,0.000915527,0,
00:09.0,-0.001264572,0.001544952,0.000921249,0,
00:09.0,-0.00125885,0.001556396,0.000926971,0,
00:09.0,-0.00125885,0.001550674,0.000944138,0,
00:09.0,-0.001264572,0.001556396,0.000955582,0,
00:09.1,-0.00125885,0.001550674,0.000961304,0,
00:09.1,-0.001241684,0.001550674,0.000967026,0,
00:09.1,-0.001235962,0.001550674,0.00097847,0,
00:09.1,-0.00123024,0.001544952,0.000989914,0,
00:09.1,-0.001224518,0.001550674,0.000995636,0,
00:09.1,-0.00123024,0.001533508,0.00100708,0,
00:09.1,-0.001224518,0.001527786,0.001012802,0,
00:09.1,-0.001213074,0.001516342,0.001018524,0,
00:09.1,-0.00120163,0.001516342,0.001024246,0,
00:09.1,-0.001195908,0.001527786,0.001029968,0,
00:09.1,-0.001184464,0.001544952,0.00103569,0,
00:09.1,-0.001190186,0.00153923,0.001041412,0,
00:09.1,-0.001195908,0.001527786,0.001052856,0,
00:09.1,-0.001190186,0.001522064,0.001058578,0,
00:09.1,-0.001178741,0.001533508,0.001070023,0,
00:09.1,-0.001167297,0.001567841,0.001075745,0,
00:09.1,-0.001167297,0.001556396,0.001081467,0,
00:09.1,-0.001167297,0.00153923,0.001092911,0,
00:09.1,-0.001167297,0.00153923,0.001104355,0,
00:09.1,-0.001167297,0.00153923,0.001110077,0,
00:09.1,-0.001161575,0.001533508,0.001121521,0,
00:09.1,-0.001144409,0.00153923,0.001127243,0,
00:09.1,-0.001138687,0.00153923,0.001132965,0,
00:09.1,-0.001127243,0.00153923,0.001138687,0,
00:09.1,-0.001132965,0.00153923,0.001150131,0,
00:09.2,-0.001127243,0.00153923,0.001155853,0,
00:09.2,-0.001127243,0.001550674,0.001155853,0,
00:09.2,-0.001127243,0.001550674,0.001167297,0,
00:09.2,-0.001121521,0.001544952,0.001178741,0,
00:09.2,-0.001121521,0.001544952,0.001184464,0,
00:09.2,-0.001115799,0.001544952,0.001190186,0,
00:09.2,-0.001104355,0.001550674,0.001195908,0,
00:09.2,-0.001098633,0.001550674,0.00120163,0,
00:09.2,-0.001098633,0.00153923,0.001207352,0,
00:09.2,-0.001098633,0.00153923,0.001218796,0,
00:09.2,-0.001087189,0.00153923,0.001224518,0,
00:09.2,-0.001081467,0.001544952,0.001224518,0,
00:09.2,-0.001075745,0.001550674,0.00123024,0,
00:09.2,-0.001070023,0.00153923,0.001241684,0,
00:09.2,-0.001070023,0.00153923,0.001247406,0,
00:09.2,-0.001075745,0.00153923,0.001253128,0,
00:09.2,-0.001070023,0.001533508,0.001253128,0,
00:09.2,-0.001052856,0.001533508,0.001264572,0,
00:09.2,-0.001064301,0.001527786,0.001276016,0,
00:09.2,-0.001058578,0.001522064,0.001281738,0,
00:09.2,-0.001047134,0.001527786,0.00128746,0,
00:09.2,-0.001041412,0.001527786,0.001293182,0,
00:09.2,-0.001041412,0.001533508,0.001304626,0,
00:09.2,-0.00103569,0.00153923,0.001304626,0,
00:09.2,-0.001018524,0.001556396,0.001310349,0,
00:09.3,-0.001012802,0.001562119,0.001316071,0,
00:09.3,-0.00100708,0.001550674,0.001321793,0,
00:09.3,-0.001012802,0.001533508,0.001327515,0,
00:09.3,-0.001012802,0.001527786,0.001333237,0,
00:09.3,-0.001001358,0.00153923,0.001338959,0,
00:09.3,-0.000995636,0.001533508,0.001344681,0,
00:09.3,-0.000995636,0.001533508,0.001356125,0,
00:09.3,-0.000995636,0.001544952,0.001367569,0,
00:09.3,-0.001001358,0.001533508,0.001367569,0,
00:09.3,-0.000995636,0.001533508,0.001373291,0,
00:09.3,-0.000989914,0.001522064,0.001379013,0,
00:09.3,-0.00097847,0.001516342,0.001384735,0,
00:09.3,-0.000961304,0.001533508,0.001396179,0,
00:09.3,-0.000961304,0.001544952,0.001390457,0,
00:09.3,-0.000967026,0.001533508,0.001401901,0,
00:09.3,-0.000967026,0.001527786,0.001407623,0,
00:09.3,-0.000961304,0.001533508,0.001413345,0,
00:09.3,-0.000967026,0.001533508,0.001424789,0,
00:09.3,-0.000961304,0.001533508,0.001430511,0,
00:09.3,-0.000932693,0.00153923,0.001436234,0,
00:09.3,-0.000926971,0.00153923,0.001430511,0,
00:09.3,-0.000932693,0.001533508,0.001436234,0,
00:09.3,-0.000932693,0.001522064,0.001447678,0,
00:09.3,-0.000932693,0.001522064,0.001459122,0,
00:09.3,-0.000932693,0.001516342,0.001464844,0,
00:09.4,-0.000915527,0.001522064,0.001470566,0,
00:09.4,-0.000898361,0.001533508,0.001470566,0,
00:09.4,-0.000898361,0.001516342,0.001476288,0,
00:09.4,-0.000904083,0.001504898,0.00148201,0,
00:09.4,-0.000898361,0.001516342,0.001487732,0,
00:09.4,-0.000881195,0.00151062,0.001499176,0,
00:09.4,-0.000869751,0.00151062,0.001504898,0,
00:09.4,-0.000864029,0.001522064,0.00151062,0,
00:09.4,-0.000869751,0.001522064,0.00151062,0,
00:09.4,-0.000869751,0.001522064,0.00151062,0,
00:09.4,-0.000869751,0.001516342,0.001516342,0,
00:09.4,-0.000864029,0.00151062,0.001522064,0,
00:09.4,-0.000858307,0.001516342,0.001527786,0,
00:09.4,-0.000858307,0.001522064,0.001533508,0,
00:09.4,-0.000852585,0.001522064,0.00153923,0,
00:09.4,-0.000852585,0.001504898,0.001550674,0,
00:09.4,-0.000858307,0.001493454,0.001556396,0,
00:09.4,-0.000846863,0.001499176,0.001556396,0,
00:09.4,-0.000841141,0.001522064,0.001562119,0,
00:09.4,-0.000846863,0.001522064,0.001567841,0,
00:09.4,-0.000835419,0.001516342,0.001573563,0,
00:09.4,-0.000835419,0.00151062,0.001573563,0,
00:09.4,-0.000829697,0.001499176,0.001579285,0,
00:09.4,-0.000835419,0.001487732,0.001579285,0,
00:09.4,-0.000846863,0.00148201,0.001585007,0,
00:09.5,-0.000835419,0.001464844,0.001590729,0,
00:09.5,-0.000795364,0.001504898,0.001596451,0,
00:09.5,-0.000778198,0.00153923,0.001602173,0,
00:09.5,-0.000789642,0.001533508,0.001602173,0,
00:09.5,-0.00078392,0.001522064,0.001602173,0,
00:09.5,-0.00078392,0.001504898,0.001613617,0,
00:09.5,-0.00078392,0.001493454,0.001625061,0,
00:09.5,-0.000789642,0.001487732,0.001625061,0,
00:09.5,-0.000778198,0.00148201,0.001630783,0,
00:09.5,-0.000766754,0.00148201,0.001630783,0,
00:09.5,-0.000761032,0.001504898,0.001630783,0,
00:09.5,-0.000761032,0.001487732,0.001636505,0,
00:09.5,-0.000761032,0.001476288,0.001642227,0,
00:09.5,-0.00075531,0.00148201,0.001642227,0,
00:09.5,-0.000743866,0.001487732,0.001647949,0,
00:09.5,-0.000749588,0.001470566,0.001653671,0,
00:09.5,-0.000749588,0.001476288,0.001659393,0,
00:09.5,-0.000743866,0.001470566,0.001659393,0,
00:09.5,-0.00075531,0.00148201,0.001665115,0,
00:09.5,-0.00075531,0.001464844,0.001665115,0,
00:09.5,-0.000732422,0.001493454,0.001670837,0,
00:09.5,-0.000709534,0.00151062,0.001676559,0,
00:09.5,-0.00069809,0.001504898,0.001688004,0,
00:09.5,-0.000703812,0.001493454,0.001688004,0,
00:09.5,-0.000709534,0.00148201,0.001693726,0,
00:09.6,-0.000715256,0.001470566,0.001699448,0,
00:09.6,-0.000715256,0.001459122,0.001693726,0,
00:09.6,-0.000715256,0.001476288,0.001693726,0,
00:09.6,-0.000692368,0.001487732,0.001688004,0,
00:09.6,-0.000680923,0.001476288,0.00170517,0,
00:09.6,-0.000680923,0.001464844,0.001710892,0,
00:09.6,-0.000680923,0.001459122,0.001710892,0,
00:09.6,-0.000686646,0.001459122,0.001716614,0,
00:09.6,-0.000686646,0.001459122,0.001722336,0,
00:09.6,-0.000669479,0.001447678,0.001728058,0,
00:09.6,-0.000663757,0.001459122,0.001728058,0,
00:09.6,-0.000652313,0.001487732,0.00173378,0,
00:09.6,-0.000640869,0.001476288,0.00173378,0,
00:09.6,-0.000635147,0.001476288,0.001728058,0,
00:09.6,-0.000646591,0.001464844,0.001728058,0,
00:09.6,-0.000635147,0.001459122,0.00173378,0,
00:09.6,-0.000617981,0.001459122,0.00173378,0,
00:09.6,-0.000623703,0.001459122,0.00173378,0,
00:09.6,-0.000629425,0.001447678,0.001739502,0,
00:09.6,-0.000623703,0.0014534,0.001745224,0,
00:09.6,-0.000612259,0.0014534,0.001750946,0,
00:09.6,-0.000600815,0.001441956,0.001756668,0,
00:09.6,-0.000595093,0.001447678,0.001756668,0,
00:09.6,-0.000595093,0.0014534,0.001750946,0,
00:09.6,-0.000600815,0.001447678,0.001750946,0,
00:09.7,-0.000589371,0.001447678,0.001756668,0,
00:09.7,-0.000577927,0.001447678,0.00176239,0,
00:09.7,-0.000577927,0.001447678,0.001768112,0,
00:09.7,-0.000577927,0.001441956,0.001768112,0,
00:09.7,-0.000566483,0.0014534,0.001773834,0,
00:09.7,-0.000549316,0.001459122,0.001773834,0,
00:09.7,-0.000549316,0.001447678,0.001773834,0,
00:09.7,-0.000549316,0.001447678,0.001785278,0,
00:09.7,-0.000555038,0.001447678,0.001785278,0,
00:09.7,-0.00056076,0.001447678,0.001791,0,
00:09.7,-0.000543594,0.001441956,0.001791,0,
00:09.7,-0.00053215,0.001436234,0.001796722,0,
00:09.7,-0.000520706,0.001436234,0.001802444,0,
00:09.7,-0.00053215,0.001424789,0.001802444,0,
00:09.7,-0.000537872,0.001413345,0.001802444,0,
00:09.7,-0.000526428,0.001424789,0.001808167,0,
00:09.7,-0.000520706,0.001430511,0.001808167,0,
00:09.7,-0.000520706,0.001424789,0.001813889,0,
00:09.7,-0.000520706,0.001413345,0.001813889,0,
00:09.7,-0.000509262,0.001424789,0.001813889,0,
00:09.7,-0.000509262,0.001430511,0.001819611,0,
00:09.7,-0.000492096,0.001424789,0.001819611,0,
00:09.7,-0.000492096,0.001424789,0.001819611,0,
00:09.7,-0.00050354,0.001419067,0.001819611,0,
00:09.7,-0.00050354,0.001413345,0.001819611,0,
00:09.8,-0.000497818,0.001407623,0.001819611,0,
00:09.8,-0.000486374,0.001401901,0.001825333,0,
00:09.8,-0.000480652,0.001407623,0.001831055,0,
00:09.8,-0.000469208,0.001413345,0.001831055,0,
00:09.8,-0.000480652,0.001401901,0.001831055,0,
00:09.8,-0.00047493,0.001396179,0.001836777,0,
00:09.8,-0.000469208,0.001396179,0.001842499,0,
00:09.8,-0.000463486,0.001396179,0.001836777,0,
00:09.8,-0.000463486,0.001390457,0.001842499,0,
00:09.8,-0.00044632,0.001401901,0.001842499,0,
00:09.8,-0.000440598,0.001407623,0.001848221,0,
00:09.8,-0.00044632,0.001390457,0.001848221,0,
00:09.8,-0.000440598,0.001384735,0.001853943,0,
00:09.8,-0.000434875,0.001413345,0.001853943,0,
00:09.8,-0.000440598,0.001401901,0.001853943,0,
00:09.8,-0.000434875,0.001401901,0.001853943,0,
00:09.8,-0.000417709,0.001396179,0.001865387,0,
00:09.8,-0.000411987,0.001396179,0.001871109,0,
00:09.8,-0.000411987,0.001390457,0.001871109,0,
00:09.8,-0.000406265,0.001396179,0.001865387,0,
00:09.8,-0.000400543,0.001390457,0.001865387,0,
00:09.8,-0.000400543,0.001379013,0.001871109,0,
00:09.8,-0.000383377,0.001384735,0.001871109,0,
00:09.8,-0.000377655,0.001384735,0.001871109,0,
00:09.8,-0.000377655,0.001373291,0.001876831,0,
00:09.9,-0.000377655,0.001379013,0.001876831,0,
00:09.9,-0.000377655,0.001379013,0.001876831,0,
00:09.9,-0.000371933,0.001373291,0.001882553,0,
00:09.9,-0.000371933,0.001356125,0.001882553,0,
00:09.9,-0.000360489,0.001361847,0.001882553,0,
00:09.9,-0.000360489,0.001367569,0.001876831,0,
00:09.9,-0.000360489,0.001373291,0.001882553,0,
00:09.9,-0.000366211,0.001379013,0.001888275,0,
00:09.9,-0.000366211,0.001361847,0.001893997,0,
00:09.9,-0.000349045,0.001367569,0.001893997,0,
00:09.9,-0.000349045,0.001361847,0.001893997,0,
00:09.9,-0.000349045,0.001373291,0.001893997,0,
00:09.9,-0.000343323,0.001367569,0.001905441,0,
