Elapsed_Time,EMG1,EMG2,EMG3,BioRadio Event,Unnamed: 5
00:00:00,0.001436234,-0.000961304,0.003879547,0,
00:00.0,0.001504898,-0.000921249,0.003833771,0,
00:00.0,0.001464844,-0.000944138,0.003856659,0,
00:00.0,0.001459122,-0.000972748,0.003890991,0,
00:00.0,0.001487732,-0.000989914,0.003810883,0,
00:00.0,0.001424789,-0.00100708,0.003816605,0,
00:00.0,0.001390457,-0.000995636,0.003868103,0,
00:00.0,0.001464844,-0.000938416,0.003885269,0,
00:00.0,0.001499176,-0.000926971,0.003868103,0,
00:00.0,0.001493454,-0.000926971,0.003816605,0,
00:00.0,0.0014534,-0.000938416,0.003833771,0,
00:00.0,0.001464844,-0.000955582,0.003833771,0,
00:00.0,0.001487732,-0.000972748,0.003833771,0,
00:00.1,0.001464844,-0.000972748,0.003850937,0,
00:00.1,0.001424789,-0.000961304,0.003868103,0,
00:00.1,0.001424789,-0.00097847,0.003890991,0,
00:00.1,0.001493454,-0.00097847,0.003862381,0,
00:00.1,0.001470566,-0.000984192,0.003822327,0,
00:00.1,0.0014534,-0.000972748,0.003850937,0,
00:00.1,0.001436234,-0.00094986,0.003873825,0,
00:00.1,0.001476288,-0.00094986,0.003850937,0,
00:00.1,0.0014534,-0.00094986,0.003850937,0,
00:00.1,0.001441956,-0.000961304,0.003868103,0,
00:00.1,0.001430511,-0.000995636,0.003885269,0,
00:00.1,0.001476288,-0.00097847,0.003862381,0,
00:00.1,0.00148201,-0.00094986,0.003822327,0,
00:00.1,0.001493454,-0.000955582,0.003828049,0,
00:00.1,0.001476288,-0.000984192,0.003845215,0,
00:00.1,0.001441956,-0.000972748,0.003885269,0,
00:00.1,0.001476288,-0.000932693,0.003862381,0,
00:00.1,0.001487732,-0.000938416,0.003845215,0,
00:00.1,0.001464844,-0.000967026,0.003839493,0,
00:00.1,0.001459122,-0.000972748,0.003839493,0,
00:00.1,0.001430511,-0.00097847,0.003873825,0,
00:00.1,0.001476288,-0.000972748,0.003879547,0,
00:00.1,0.001476288,-0.000932693,0.003828049,0,
00:00.1,0.001464844,-0.000955582,0.003833771,0,
00:00.1,0.001424789,-0.000989914,0.003868103,0,
00:00.2,0.001350403,-0.000984192,0.003908157,0,
00:00.2,0.001459122,-0.00094986,0.003862381,0,
00:00.2,0.001556396,-0.000915527,0.003799438,0,
00:00.2,0.001464844,-0.000972748,0.003862381,0,
00:00.2,0.001436234,-0.000995636,0.003936768,0,
00:00.2,0.001504898,-0.000961304,0.003828049,0,
00:00.2,0.0014534,-0.000961304,0.003850937,0,
00:00.2,0.001516342,-0.000944138,0.003833771,0,
00:00.2,0.001487732,-0.00094986,0.003833771,0,
00:00.2,0.00148201,-0.000961304,0.003862381,0,
00:00.2,0.001441956,-0.001001358,0.003862381,0,
00:00.2,0.001419067,-0.00100708,0.003868103,0,
00:00.2,0.001493454,-0.000932693,0.003845215,0,
00:00.2,0.001424789,-0.000938416,0.003862381,0,
00:00.2,0.001459122,-0.000967026,0.003845215,0,
00:00.2,0.001533508,-0.00097847,0.003856659,0,
00:00.2,0.001476288,-0.000961304,0.003845215,0,
00:00.2,0.00148201,-0.000955582,0.003845215,0,
00:00.2,0.001470566,-0.000967026,0.003850937,0,
00:00.2,0.0014534,-0.000967026,0.003890991,0,
00:00.2,0.001373291,-0.000967026,0.003925323,0,
00:00.2,0.001430511,-0.000955582,0.003902435,0,
00:00.2,0.001522064,-0.000944138,0.003845215,0,
00:00.2,0.001522064,-0.000938416,0.003799438,0,
00:00.2,0.001476288,-0.000972748,0.003873825,0,
00:00.3,0.001470566,-0.000995636,0.003845215,0,
00:00.3,0.001447678,-0.000972748,0.003839493,0,
00:00.3,0.001459122,-0.000938416,0.003873825,0,
00:00.3,0.001499176,-0.00094986,0.003845215,0,
00:00.3,0.001447678,-0.000989914,0.003868103,0,
00:00.3,0.001493454,-0.000967026,0.003833771,0,
00:00.3,0.001436234,-0.000955582,0.003856659,0,
00:00.3,0.001413345,-0.000961304,0.003902435,0,
00:00.3,0.001499176,-0.000972748,0.003879547,0,
00:00.3,0.001533508,-0.000932693,0.003839493,0,
00:00.3,0.001504898,-0.000921249,0.003793716,0,
00:00.3,0.001470566,-0.000972748,0.003850937,0,
00:00.3,0.001470566,-0.001001358,0.003856659,0,
00:00.3,0.00148201,-0.000961304,0.003839493,0,
00:00.3,0.001476288,-0.000932693,0.003850937,0,
00:00.3,0.001459122,-0.000944138,0.003873825,0,
00:00.3,0.001464844,-0.000955582,0.003885269,0,
00:00.3,0.001436234,-0.000984192,0.003868103,0,
00:00.3,0.001419067,-0.000989914,0.003890991,0,
00:00.3,0.001470566,-0.00097847,0.003833771,0,
00:00.3,0.00148201,-0.000972748,0.003845215,0,
00:00.3,0.001459122,-0.000961304,0.003862381,0,
00:00.3,0.001533508,-0.000955582,0.003833771,0,
00:00.3,0.001459122,-0.000984192,0.003896713,0,
00:00.3,0.001499176,-0.000932693,0.003816605,0,
00:00.4,0.001522064,-0.000921249,0.003805161,0,
00:00.4,0.001493454,-0.000944138,0.003833771,0,
00:00.4,0.001464844,-0.000955582,0.003850937,0,
00:00.4,0.001476288,-0.000967026,0.003879547,0,
00:00.4,0.001487732,-0.001001358,0.003856659,0,
00:00.4,0.001476288,-0.000972748,0.003828049,0,
00:00.4,0.001504898,-0.000921249,0.003845215,0,
00:00.4,0.001493454,-0.00094986,0.003845215,0,
00:00.4,0.001464844,-0.00094986,0.003850937,0,
00:00.4,0.001441956,-0.000944138,0.003856659,0,
00:00.4,0.001430511,-0.000955582,0.003856659,0,
00:00.4,0.0014534,-0.000989914,0.003845215,0,
00:00.4,0.001470566,-0.000972748,0.003890991,0,
00:00.4,0.00153923,-0.000944138,0.003850937,0,
00:00.4,0.001522064,-0.000944138,0.003816605,0,
00:00.4,0.001487732,-0.000961304,0.003862381,0,
00:00.4,0.001470566,-0.000967026,0.003856659,0,
00:00.4,0.001436234,-0.001001358,0.003890991,0,
00:00.4,0.001430511,-0.000995636,0.003873825,0,
00:00.4,0.001533508,-0.00094986,0.003805161,0,
00:00.4,0.001533508,-0.000915527,0.003810883,0,
00:00.4,0.00151062,-0.000932693,0.003833771,0,
00:00.4,0.001493454,-0.000955582,0.003850937,0,
00:00.4,0.001470566,-0.00094986,0.003839493,0,
00:00.4,0.001470566,-0.000967026,0.003868103,0,
00:00.5,0.001419067,-0.000995636,0.003868103,0,
00:00.5,0.001470566,-0.000995636,0.003839493,0,
00:00.5,0.001493454,-0.000972748,0.003845215,0,
00:00.5,0.001499176,-0.000921249,0.003828049,0,
00:00.5,0.001499176,-0.00094986,0.003839493,0,
00:00.5,0.001516342,-0.000972748,0.003862381,0,
00:00.5,0.001476288,-0.000961304,0.003845215,0,
00:00.5,0.001487732,-0.000932693,0.003856659,0,
00:00.5,0.001476288,-0.000961304,0.003862381,0,
00:00.5,0.001470566,-0.000967026,0.003885269,0,
00:00.5,0.001436234,-0.001012802,0.003885269,0,
00:00.5,0.001419067,-0.001001358,0.003839493,0,
00:00.5,0.00151062,-0.000932693,0.003850937,0,
00:00.5,0.001556396,-0.000915527,0.003799438,0,
00:00.5,0.00151062,-0.000944138,0.003787994,0,
00:00.5,0.001499176,-0.000955582,0.003816605,0,
00:00.5,0.001470566,-0.000955582,0.003828049,0,
00:00.5,0.001493454,-0.000944138,0.003862381,0,
00:00.5,0.001499176,-0.000955582,0.003868103,0,
00:00.5,0.00148201,-0.00097847,0.003828049,0,
00:00.5,0.00148201,-0.000972748,0.003850937,0,
00:00.5,0.001516342,-0.000955582,0.003833771,0,
00:00.5,0.001504898,-0.000984192,0.003828049,0,
00:00.5,0.00148201,-0.000961304,0.003833771,0,
00:00.5,0.0014534,-0.00094986,0.003873825,0,
00:00.6,0.001487732,-0.000944138,0.003868103,0,
00:00.6,0.001504898,-0.000938416,0.003833771,0,
00:00.6,0.001470566,-0.000961304,0.003896713,0,
00:00.6,0.00151062,-0.000961304,0.003856659,0,
00:00.6,0.001499176,-0.000972748,0.003787994,0,
00:00.6,0.001493454,-0.000989914,0.003828049,0,
00:00.6,0.001499176,-0.000972748,0.003828049,0,
00:00.6,0.001476288,-0.000967026,0.003850937,0,
00:00.6,0.001476288,-0.000944138,0.003845215,0,
00:00.6,0.001516342,-0.000938416,0.003828049,0,
00:00.6,0.001476288,-0.000967026,0.003862381,0,
00:00.6,0.001476288,-0.00097847,0.003816605,0,
00:00.6,0.001527786,-0.00094986,0.003816605,0,
00:00.6,0.00151062,-0.000972748,0.003828049,0,
00:00.6,0.001504898,-0.00097847,0.003833771,0,
00:00.6,0.00151062,-0.000955582,0.003822327,0,
00:00.6,0.001464844,-0.00094986,0.003856659,0,
00:00.6,0.001407623,-0.000972748,0.003879547,0,
00:00.6,0.001499176,-0.000989914,0.003850937,0,
00:00.6,0.001476288,-0.000972748,0.003873825,0,
00:00.6,0.001562119,-0.000938416,0.003822327,0,
00:00.6,0.001556396,-0.000955582,0.003816605,0,
00:00.6,0.00148201,-0.000955582,0.003810883,0,
00:00.6,0.001447678,-0.000961304,0.003873825,0,
00:00.6,0.001544952,-0.000944138,0.003810883,0,
00:00.7,0.001516342,-0.000932693,0.003810883,0,
00:00.7,0.001504898,-0.000938416,0.003828049,0,
00:00.7,0.001487732,-0.000961304,0.003828049,0,
00:00.7,0.001476288,-0.000961304,0.003845215,0,
00:00.7,0.001527786,-0.000972748,0.003845215,0,
00:00.7,0.00151062,-0.000972748,0.003816605,0,
00:00.7,0.00148201,-0.000955582,0.003839493,0,
00:00.7,0.0014534,-0.000955582,0.003856659,0,
00:00.7,0.001499176,-0.000967026,0.003839493,0,
00:00.7,0.00153923,-0.000944138,0.003787994,0,
00:00.7,0.001504898,-0.000967026,0.003816605,0,
00:00.7,0.001504898,-0.000989914,0.003833771,0,
00:00.7,0.001499176,-0.000955582,0.003822327,0,
00:00.7,0.00151062,-0.000944138,0.003833771,0,
00:00.7,0.001476288,-0.000989914,0.003868103,0,
00:00.7,0.001487732,-0.000984192,0.003862381,0,
00:00.7,0.001499176,-0.000944138,0.003816605,0,
00:00.7,0.001522064,-0.000921249,0.003799438,0,
00:00.7,0.001384735,-0.000955582,0.003862381,0,
00:00.7,0.001436234,-0.000984192,0.003885269,0,
00:00.7,0.001596451,-0.000944138,0.003805161,0,
00:00.7,0.001544952,-0.000926971,0.003793716,0,
00:00.7,0.00153923,-0.000944138,0.003805161,0,
00:00.7,0.001522064,-0.000955582,0.003828049,0,
00:00.7,0.00151062,-0.000955582,0.003816605,0,
00:00.8,0.001516342,-0.00094986,0.003822327,0,
00:00.8,0.001522064,-0.000961304,0.003839493,0,
00:00.8,0.001487732,-0.00094986,0.003822327,0,
00:00.8,0.001476288,-0.000955582,0.003833771,0,
00:00.8,0.001487732,-0.000989914,0.003833771,0,
00:00.8,0.001493454,-0.000984192,0.003822327,0,
00:00.8,0.001447678,-0.001001358,0.003850937,0,
00:00.8,0.001516342,-0.000926971,0.003799438,0,
00:00.8,0.0014534,-0.000944138,0.003902435,0,
00:00.8,0.001407623,-0.000955582,0.003931046,0,
00:00.8,0.001567841,-0.000932693,0.003787994,0,
00:00.8,0.001596451,-0.000944138,0.003736496,0,
00:00.8,0.001527786,-0.000944138,0.003787994,0,
00:00.8,0.001504898,-0.000944138,0.003799438,0,
00:00.8,0.001487732,-0.000961304,0.003828049,0,
00:00.8,0.001516342,-0.000955582,0.003845215,0,
00:00.8,0.001516342,-0.000955582,0.003828049,0,
00:00.8,0.00151062,-0.00094986,0.003810883,0,
00:00.8,0.001499176,-0.000955582,0.003833771,0,
00:00.8,0.00148201,-0.000961304,0.003850937,0,
00:00.8,0.001504898,-0.000955582,0.003822327,0,
00:00.8,0.001493454,-0.00094986,0.003805161,0,
00:00.8,0.001493454,-0.00100708,0.003822327,0,
00:00.8,0.001487732,-0.000984192,0.003845215,0,
00:00.8,0.001464844,-0.00094986,0.003845215,0,
00:00.9,0.001499176,-0.000926971,0.003816605,0,
00:00.9,0.001487732,-0.000938416,0.003862381,0,
00:00.9,0.001527786,-0.000932693,0.003833771,0,
00:00.9,0.001527786,-0.00094986,0.00377655,0,
00:00.9,0.00148201,-0.000995636,0.003822327,0,
00:00.9,0.001527786,-0.000961304,0.003787994,0,
00:00.9,0.001522064,-0.000921249,0.003782272,0,
00:00.9,0.001516342,-0.000955582,0.003810883,0,
00:00.9,0.001504898,-0.000961304,0.003839493,0,
00:00.9,0.001493454,-0.000932693,0.003828049,0,
00:00.9,0.001441956,-0.000961304,0.003873825,0,
00:00.9,0.0014534,-0.000972748,0.003856659,0,
00:00.9,0.001550674,-0.00094986,0.003770828,0,
00:00.9,0.001544952,-0.000955582,0.003782272,0,
00:00.9,0.001516342,-0.000944138,0.003805161,0,
00:00.9,0.00151062,-0.000938416,0.003822327,0,
00:00.9,0.001533508,-0.000961304,0.003816605,0,
00:00.9,0.001493454,-0.00094986,0.003839493,0,
00:00.9,0.001464844,-0.000961304,0.003879547,0,
00:00.9,0.001516342,-0.000955582,0.003833771,0,
00:00.9,0.001533508,-0.000944138,0.003793716,0,
00:00.9,0.00151062,-0.000972748,0.003805161,0,
00:00.9,0.001499176,-0.000984192,0.003810883,0,
00:00.9,0.001499176,-0.000961304,0.003810883,0,
00:00.9,0.001487732,-0.000938416,0.003839493,0,
00:01.0,0.001441956,-0.000926971,0.003856659,0,
00:01.0,0.001464844,-0.000944138,0.003862381,0,
00:01.0,0.001573563,-0.000944138,0.003770828,0,
00:01.0,0.001556396,-0.000955582,0.003765106,0,
00:01.0,0.001504898,-0.00094986,0.003810883,0,
00:01.0,0.001493454,-0.000944138,0.003822327,0,
00:01.0,0.001504898,-0.000967026,0.003828049,0,
00:01.0,0.001487732,-0.000972748,0.003816605,0,
00:01.0,0.001527786,-0.000944138,0.003828049,0,
00:01.0,0.001487732,-0.000926971,0.003856659,0,
00:01.0,0.001516342,-0.000961304,0.003873825,0,
00:01.0,0.00151062,-0.000955582,0.003822327,0,
00:00:01,0.001504898,-0.00094986,0.003799438,0,
00:01.0,0.001499176,-0.000955582,0.003810883,0,
00:01.0,0.001441956,-0.000961304,0.003845215,0,
00:01.0,0.001424789,-0.000967026,0.003856659,0,
00:01.0,0.001596451,-0.000926971,0.003765106,0,
00:01.0,0.00153923,-0.000938416,0.003793716,0,
00:01.0,0.001522064,-0.000967026,0.003816605,0,
00:01.0,0.001493454,-0.00097847,0.003828049,0,
00:01.0,0.001470566,-0.00094986,0.003828049,0,
00:01.0,0.001459122,-0.000926971,0.003873825,0,
00:01.0,0.00151062,-0.00094986,0.003862381,0,
00:01.0,0.001556396,-0.000955582,0.003759384,0,
00:01.0,0.00151062,-0.000961304,0.003793716,0,
00:01.1,0.00148201,-0.000967026,0.003833771,0,
00:01.1,0.001504898,-0.000955582,0.003816605,0,
00:01.1,0.001516342,-0.000967026,0.003805161,0,
00:01.1,0.001504898,-0.000938416,0.003810883,0,
00:01.1,0.001504898,-0.000944138,0.003839493,0,
00:01.1,0.001504898,-0.00094986,0.003810883,0,
00:01.1,0.001522064,-0.000944138,0.003810883,0,
00:01.1,0.001476288,-0.000972748,0.003828049,0,
00:01.1,0.001401901,-0.000967026,0.003879547,0,
00:01.1,0.001556396,-0.000961304,0.003856659,0,
00:01.1,0.001562119,-0.000932693,0.00377655,0,
00:01.1,0.001459122,-0.000961304,0.003810883,0,
00:01.1,0.001441956,-0.000961304,0.003850937,0,
00:01.1,0.00151062,-0.000932693,0.003845215,0,
00:01.1,0.001585007,-0.000944138,0.003787994,0,
00:01.1,0.001516342,-0.000967026,0.00377655,0,
00:01.1,0.001493454,-0.000984192,0.003828049,0,
00:01.1,0.001470566,-0.000955582,0.003810883,0,
00:01.1,0.001424789,-0.00094986,0.003862381,0,
00:01.1,0.001550674,-0.000938416,0.003793716,0,
00:01.1,0.001550674,-0.000955582,0.003782272,0,
00:01.1,0.001516342,-0.000955582,0.003799438,0,
00:01.1,0.001504898,-0.000932693,0.003816605,0,
00:01.1,0.00151062,-0.000938416,0.003816605,0,
00:01.1,0.001522064,-0.000955582,0.003816605,0,
00:01.2,0.001527786,-0.000972748,0.003816605,0,
00:01.2,0.001504898,-0.000961304,0.003816605,0,
00:01.2,0.00148201,-0.000967026,0.003822327,0,
00:01.2,0.001499176,-0.000955582,0.003816605,0,
00:01.2,0.00151062,-0.00094986,0.003799438,0,
00:01.2,0.001516342,-0.000944138,0.003810883,0,
00:01.2,0.001441956,-0.000972748,0.003879547,0,
00:01.2,0.001436234,-0.000955582,0.003902435,0,
00:01.2,0.001527786,-0.000938416,0.003793716,0,
00:01.2,0.001567841,-0.000932693,0.003753662,0,
00:01.2,0.00153923,-0.000932693,0.003787994,0,
00:01.2,0.001464844,-0.000984192,0.003845215,0,
00:01.2,0.001499176,-0.001018524,0.003822327,0,
00:01.2,0.001533508,-0.00100708,0.003765106,0,
00:01.2,0.001493454,-0.000961304,0.003793716,0,
00:01.2,0.001504898,-0.000909805,0.003850937,0,
00:01.2,0.001522064,-0.000926971,0.003850937,0,
00:01.2,0.001556396,-0.000932693,0.003759384,0,
00:01.2,0.001522064,-0.000944138,0.003787994,0,
00:01.2,0.001476288,-0.000961304,0.003810883,0,
00:01.2,0.001487732,-0.000989914,0.003805161,0,
00:01.2,0.00153923,-0.000984192,0.003793716,0,
00:01.2,0.00153923,-0.000921249,0.003805161,0,
00:01.2,0.001522064,-0.000915527,0.003799438,0,
00:01.2,0.001499176,-0.000944138,0.003816605,0,
00:01.3,0.001516342,-0.00097847,0.003850937,0,
00:01.3,0.001493454,-0.000972748,0.00377655,0,
00:01.3,0.001447678,-0.000972748,0.003822327,0,
00:01.3,0.001413345,-0.00097847,0.003868103,0,
00:01.3,0.00153923,-0.00094986,0.003810883,0,
00:01.3,0.001550674,-0.000938416,0.003765106,0,
00:01.3,0.001487732,-0.00094986,0.003839493,0,
00:01.3,0.001533508,-0.000938416,0.003839493,0,
00:01.3,0.001562119,-0.00094986,0.003765106,0,
00:01.3,0.001522064,-0.000967026,0.003770828,0,
00:01.3,0.00151062,-0.000972748,0.003782272,0,
00:01.3,0.001516342,-0.000972748,0.003793716,0,
00:01.3,0.001487732,-0.000938416,0.003810883,0,
00:01.3,0.0014534,-0.000967026,0.003828049,0,
00:01.3,0.001504898,-0.000972748,0.003822327,0,
00:01.3,0.001556396,-0.000932693,0.003787994,0,
00:01.3,0.001533508,-0.000932693,0.003782272,0,
00:01.3,0.001527786,-0.000932693,0.003793716,0,
00:01.3,0.001493454,-0.00094986,0.003833771,0,
00:01.3,0.001476288,-0.000995636,0.003850937,0,
00:01.3,0.001476288,-0.00100708,0.003822327,0,
00:01.3,0.001493454,-0.000972748,0.003765106,0,
00:01.3,0.001499176,-0.00094986,0.003782272,0,
00:01.3,0.00153923,-0.000926971,0.003765106,0,
00:01.3,0.001562119,-0.000944138,0.003793716,0,
00:01.4,0.001504898,-0.000972748,0.003833771,0,
00:01.4,0.0014534,-0.00094986,0.003833771,0,
00:01.4,0.001522064,-0.000955582,0.003816605,0,
00:01.4,0.001544952,-0.00094986,0.003753662,0,
00:01.4,0.001516342,-0.00094986,0.003770828,0,
00:01.4,0.00151062,-0.000972748,0.003787994,0,
00:01.4,0.001522064,-0.000967026,0.003799438,0,
00:01.4,0.001504898,-0.00097847,0.003793716,0,
00:01.4,0.001493454,-0.000961304,0.003805161,0,
00:01.4,0.001504898,-0.000944138,0.003805161,0,
00:01.4,0.001493454,-0.00094986,0.003828049,0,
00:01.4,0.001544952,-0.000944138,0.003839493,0,
00:01.4,0.00153923,-0.000972748,0.003770828,0,
00:01.4,0.001499176,-0.00097847,0.003759384,0,
00:01.4,0.001504898,-0.00094986,0.003793716,0,
00:01.4,0.0014534,-0.000961304,0.003839493,0,
00:01.4,0.001504898,-0.000955582,0.003816605,0,
00:01.4,0.001556396,-0.00094986,0.00374794,0,
00:01.4,0.001487732,-0.00097847,0.003810883,0,
00:01.4,0.001493454,-0.000955582,0.003845215,0,
00:01.4,0.001550674,-0.000932693,0.003770828,0,
00:01.4,0.00153923,-0.00094986,0.003759384,0,
00:01.4,0.001476288,-0.000967026,0.003805161,0,
00:01.4,0.0014534,-0.00094986,0.003868103,0,
00:01.4,0.001562119,-0.000967026,0.003828049,0,
00:01.5,0.001550674,-0.000989914,0.00374794,0,
00:01.5,0.001504898,-0.000972748,0.003765106,0,
00:01.5,0.001476288,-0.000955582,0.003799438,0,
00:01.5,0.001527786,-0.000938416,0.003822327,0,
00:01.5,0.001550674,-0.00094986,0.003787994,0,
00:01.5,0.001499176,-0.000995636,0.003787994,0,
00:01.5,0.001493454,-0.000967026,0.003799438,0,
00:01.5,0.001464844,-0.00094986,0.003822327,0,
00:01.5,0.00151062,-0.000967026,0.003805161,0,
00:01.5,0.001567841,-0.000932693,0.003765106,0,
00:01.5,0.001522064,-0.00094986,0.003810883,0,
00:01.5,0.00151062,-0.000967026,0.003782272,0,
00:01.5,0.00151062,-0.000989914,0.003770828,0,
00:01.5,0.001504898,-0.000967026,0.003793716,0,
00:01.5,0.001493454,-0.000944138,0.003822327,0,
00:01.5,0.001447678,-0.00094986,0.003862381,0,
00:01.5,0.001516342,-0.000967026,0.003845215,0,
00:01.5,0.001556396,-0.000955582,0.003782272,0,
00:01.5,0.001470566,-0.000944138,0.003765106,0,
00:01.5,0.001493454,-0.000967026,0.003810883,0,
00:01.5,0.001579285,-0.00094986,0.003782272,0,
00:01.5,0.001550674,-0.000938416,0.003759384,0,
00:01.5,0.001504898,-0.000967026,0.003782272,0,
00:01.5,0.00151062,-0.00097847,0.003787994,0,
00:01.5,0.001487732,-0.000989914,0.003810883,0,
00:01.6,0.001516342,-0.000972748,0.003828049,0,
00:01.6,0.00153923,-0.00094986,0.003782272,0,
00:01.6,0.001522064,-0.000932693,0.003787994,0,
00:01.6,0.001470566,-0.000961304,0.003816605,0,
00:01.6,0.001516342,-0.000967026,0.003810883,0,
00:01.6,0.001562119,-0.000961304,0.00377655,0,
00:01.6,0.001527786,-0.000967026,0.00377655,0,
00:01.6,0.001504898,-0.000961304,0.003799438,0,
00:01.6,0.00148201,-0.00097847,0.003845215,0,
00:01.6,0.001476288,-0.00097847,0.003833771,0,
00:01.6,0.001516342,-0.000967026,0.003799438,0,
00:01.6,0.001544952,-0.000944138,0.00374794,0,
00:01.6,0.00148201,-0.000944138,0.003828049,0,
00:01.6,0.00148201,-0.000961304,0.003896713,0,
00:01.6,0.001550674,-0.000955582,0.003753662,0,
00:01.6,0.001562119,-0.000967026,0.00374794,0,
00:01.6,0.001527786,-0.000961304,0.003770828,0,
00:01.6,0.001527786,-0.000955582,0.00377655,0,
00:01.6,0.001516342,-0.000961304,0.003793716,0,
00:01.6,0.001499176,-0.000961304,0.003805161,0,
00:01.6,0.001379013,-0.000989914,0.003890991,0,
00:01.6,0.001476288,-0.00100708,0.00394249,0,
00:01.6,0.001642227,-0.000944138,0.003707886,0,
00:01.6,0.001556396,-0.000932693,0.00371933,0,
00:01.6,0.00153923,-0.000938416,0.003770828,0,
00:01.7,0.001533508,-0.00094986,0.00377655,0,
00:01.7,0.001516342,-0.000989914,0.003787994,0,
00:01.7,0.001487732,-0.000995636,0.003810883,0,
00:01.7,0.00148201,-0.000961304,0.003822327,0,
00:01.7,0.001550674,-0.000938416,0.003793716,0,
00:01.7,0.001556396,-0.00094986,0.003793716,0,
00:01.7,0.00153923,-0.000967026,0.003805161,0,
00:01.7,0.001504898,-0.000972748,0.003787994,0,
00:01.7,0.00148201,-0.00094986,0.003805161,0,
00:01.7,0.001430511,-0.000938416,0.003850937,0,
00:01.7,0.001436234,-0.000984192,0.003873825,0,
00:01.7,0.001596451,-0.00097847,0.003730774,0,
00:01.7,0.001556396,-0.000961304,0.003753662,0,
00:01.7,0.00153923,-0.000944138,0.003782272,0,
00:01.7,0.001487732,-0.000944138,0.003816605,0,
00:01.7,0.001493454,-0.000961304,0.003885269,0,
00:01.7,0.001585007,-0.00094986,0.003782272,0,
00:01.7,0.001533508,-0.000955582,0.003730774,0,
00:01.7,0.001533508,-0.000932693,0.003765106,0,
00:01.7,0.001522064,-0.000944138,0.00377655,0,
00:01.7,0.001516342,-0.00097847,0.003793716,0,
00:01.7,0.001499176,-0.001001358,0.003787994,0,
00:01.7,0.001493454,-0.001018524,0.003799438,0,
00:01.7,0.001522064,-0.000967026,0.003799438,0,
00:01.7,0.001516342,-0.000938416,0.003793716,0,
00:01.8,0.001533508,-0.000944138,0.003793716,0,
00:01.8,0.001527786,-0.000932693,0.003822327,0,
00:01.8,0.001390457,-0.00094986,0.003839493,0,
00:01.8,0.00148201,-0.000995636,0.003879547,0,
00:01.8,0.001585007,-0.000955582,0.003742218,0,
00:01.8,0.00151062,-0.000944138,0.003765106,0,
00:01.8,0.001544952,-0.000938416,0.003782272,0,
00:01.8,0.001527786,-0.00094986,0.003782272,0,
00:01.8,0.001499176,-0.000967026,0.003839493,0,
00:01.8,0.001504898,-0.000989914,0.003850937,0,
00:01.8,0.00153923,-0.000989914,0.003730774,0,
00:01.8,0.00153923,-0.000944138,0.003753662,0,
00:01.8,0.001522064,-0.000938416,0.003782272,0,
00:01.8,0.001522064,-0.000955582,0.003787994,0,
00:01.8,0.001516342,-0.000961304,0.003793716,0,
00:01.8,0.001544952,-0.00094986,0.003805161,0,
00:01.8,0.001516342,-0.000972748,0.003805161,0,
00:01.8,0.001476288,-0.000961304,0.003810883,0,
00:01.8,0.001459122,-0.000995636,0.003839493,0,
00:01.8,0.001556396,-0.000961304,0.00377655,0,
00:01.8,0.001522064,-0.000961304,0.003770828,0,
00:01.8,0.001544952,-0.00094986,0.003782272,0,
00:01.8,0.001522064,-0.000932693,0.003787994,0,
00:01.8,0.001487732,-0.000955582,0.003828049,0,
00:01.8,0.001544952,-0.000955582,0.003816605,0,
00:01.9,0.00151062,-0.00094986,0.003770828,0,
00:01.9,0.001470566,-0.00097847,0.003816605,0,
00:01.9,0.001550674,-0.000967026,0.003822327,0,
00:01.9,0.001522064,-0.000972748,0.00377655,0,
00:01.9,0.001544952,-0.000961304,0.003759384,0,
00:01.9,0.001499176,-0.00094986,0.003787994,0,
00:01.9,0.001470566,-0.000955582,0.003810883,0,
00:01.9,0.001499176,-0.000967026,0.003816605,0,
00:01.9,0.001544952,-0.000972748,0.003770828,0,
00:01.9,0.001527786,-0.000995636,0.003753662,0,
00:01.9,0.001499176,-0.000972748,0.003787994,0,
00:01.9,0.001459122,-0.00094986,0.003845215,0,
00:01.9,0.001470566,-0.000967026,0.003845215,0,
00:01.9,0.001556396,-0.000972748,0.003782272,0,
00:01.9,0.001550674,-0.000972748,0.003736496,0,
00:01.9,0.001522064,-0.00097847,0.003765106,0,
00:01.9,0.001516342,-0.000955582,0.00377655,0,
00:01.9,0.001522064,-0.000944138,0.003782272,0,
00:01.9,0.0014534,-0.000944138,0.003839493,0,
00:01.9,0.001470566,-0.00097847,0.003845215,0,
00:01.9,0.001550674,-0.000984192,0.003725052,0,
00:01.9,0.001527786,-0.00097847,0.003753662,0,
00:01.9,0.001504898,-0.000938416,0.003793716,0,
00:01.9,0.00148201,-0.000932693,0.003822327,0,
00:01.9,0.00153923,-0.000944138,0.003816605,0,
00:02.0,0.00151062,-0.000961304,0.003787994,0,
00:02.0,0.001522064,-0.00097847,0.003770828,0,
00:02.0,0.001522064,-0.000967026,0.003770828,0,
00:02.0,0.001516342,-0.000961304,0.003765106,0,
00:02.0,0.00148201,-0.000967026,0.003787994,0,
00:02.0,0.001487732,-0.000989914,0.003810883,0,
00:02.0,0.001522064,-0.000989914,0.003787994,0,
00:02.0,0.001522064,-0.000967026,0.003782272,0,
00:02.0,0.001487732,-0.000972748,0.003810883,0,
00:02.0,0.001441956,-0.000961304,0.003810883,0,
00:02.0,0.00153923,-0.00094986,0.003765106,0,
00:02.0,0.001499176,-0.00094986,0.003793716,0,
00:00:02,0.001424789,-0.000972748,0.003896713,0,
00:02.0,0.001579285,-0.000961304,0.00377655,0,
00:02.0,0.001556396,-0.00097847,0.003725052,0,
00:02.0,0.001522064,-0.000972748,0.003759384,0,
00:02.0,0.001499176,-0.000984192,0.00377655,0,
00:02.0,0.001487732,-0.000961304,0.003787994,0,
00:02.0,0.001527786,-0.00094986,0.003805161,0,
00:02.0,0.00153923,-0.000961304,0.003787994,0,
00:02.0,0.001504898,-0.000961304,0.003770828,0,
00:02.0,0.00151062,-0.000955582,0.003787994,0,
00:02.0,0.001504898,-0.000955582,0.003799438,0,
00:02.0,0.001504898,-0.000955582,0.003787994,0,
00:02.0,0.001476288,-0.00100708,0.003810883,0,
00:02.1,0.001413345,-0.001024246,0.003833771,0,
00:02.1,0.001516342,-0.000955582,0.00377655,0,
00:02.1,0.00153923,-0.000961304,0.003765106,0,
00:02.1,0.001504898,-0.000944138,0.003787994,0,
00:02.1,0.001436234,-0.00094986,0.003856659,0,
00:02.1,0.001533508,-0.000972748,0.003845215,0,
00:02.1,0.001562119,-0.000972748,0.00374794,0,
00:02.1,0.001516342,-0.00097847,0.003742218,0,
00:02.1,0.001476288,-0.00097847,0.00377655,0,
00:02.1,0.001504898,-0.000944138,0.003805161,0,
00:02.1,0.001533508,-0.000944138,0.003810883,0,
00:02.1,0.001533508,-0.000984192,0.003770828,0,
00:02.1,0.001522064,-0.000961304,0.00377655,0,
00:02.1,0.001516342,-0.000961304,0.003787994,0,
00:02.1,0.00151062,-0.00097847,0.003787994,0,
00:02.1,0.001499176,-0.000984192,0.003787994,0,
00:02.1,0.001493454,-0.000989914,0.003787994,0,
00:02.1,0.00151062,-0.000955582,0.003782272,0,
00:02.1,0.001493454,-0.000938416,0.003799438,0,
00:02.1,0.00148201,-0.00097847,0.003822327,0,
00:02.1,0.00148201,-0.000995636,0.003885269,0,
00:02.1,0.00151062,-0.00097847,0.003770828,0,
00:02.1,0.001464844,-0.000984192,0.003753662,0,
00:02.1,0.001487732,-0.000972748,0.003787994,0,
00:02.1,0.001522064,-0.000944138,0.003828049,0,
00:02.2,0.001516342,-0.000961304,0.003770828,0,
00:02.2,0.001504898,-0.000989914,0.003787994,0,
00:02.2,0.001522064,-0.000984192,0.003782272,0,
00:02.2,0.001499176,-0.000972748,0.003782272,0,
00:02.2,0.001464844,-0.000967026,0.003816605,0,
00:02.2,0.001499176,-0.000932693,0.003787994,0,
00:02.2,0.00153923,-0.000944138,0.00377655,0,
00:02.2,0.001544952,-0.000955582,0.003770828,0,
00:02.2,0.001516342,-0.000967026,0.003782272,0,
00:02.2,0.001504898,-0.000972748,0.003787994,0,
00:02.2,0.001504898,-0.000972748,0.003793716,0,
00:02.2,0.00151062,-0.000984192,0.003793716,0,
00:02.2,0.001516342,-0.00100708,0.003799438,0,
00:02.2,0.001436234,-0.000995636,0.003828049,0,
00:02.2,0.001356125,-0.000955582,0.003879547,0,
00:02.2,0.001567841,-0.000972748,0.003799438,0,
00:02.2,0.001556396,-0.00094986,0.003707886,0,
00:02.2,0.001493454,-0.00094986,0.003787994,0,
00:02.2,0.001516342,-0.000955582,0.003793716,0,
00:02.2,0.001527786,-0.000972748,0.00377655,0,
00:02.2,0.001499176,-0.001001358,0.003793716,0,
00:02.2,0.001487732,-0.000989914,0.003833771,0,
00:02.2,0.001522064,-0.000955582,0.003787994,0,
00:02.2,0.001527786,-0.000932693,0.003759384,0,
00:02.2,0.00151062,-0.000955582,0.00377655,0,
00:02.3,0.001476288,-0.000995636,0.003793716,0,
00:02.3,0.001487732,-0.001001358,0.003793716,0,
00:02.3,0.001516342,-0.000961304,0.003770828,0,
00:02.3,0.001527786,-0.000955582,0.00377655,0,
00:02.3,0.00153923,-0.000944138,0.003799438,0,
00:02.3,0.001493454,-0.000955582,0.003833771,0,
00:02.3,0.0014534,-0.000972748,0.003787994,0,
00:02.3,0.00148201,-0.000995636,0.003787994,0,
00:02.3,0.001504898,-0.001001358,0.003793716,0,
00:02.3,0.001459122,-0.000972748,0.003799438,0,
00:02.3,0.001413345,-0.000955582,0.003833771,0,
00:02.3,0.001459122,-0.000972748,0.003845215,0,
00:02.3,0.001579285,-0.000961304,0.003782272,0,
00:02.3,0.001562119,-0.000961304,0.003725052,0,
00:02.3,0.00151062,-0.00097847,0.003770828,0,
00:02.3,0.001533508,-0.000972748,0.003816605,0,
00:02.3,0.001499176,-0.000955582,0.003839493,0,
00:02.3,0.001470566,-0.000961304,0.003753662,0,
00:02.3,0.001516342,-0.00097847,0.003765106,0,
00:02.3,0.001499176,-0.00097847,0.00377655,0,
00:02.3,0.001504898,-0.000967026,0.003782272,0,
00:02.3,0.001504898,-0.000961304,0.003770828,0,
00:02.3,0.001487732,-0.000967026,0.003787994,0,
00:02.3,0.001487732,-0.000984192,0.003799438,0,
00:02.3,0.001527786,-0.00094986,0.003799438,0,
00:02.4,0.001487732,-0.000961304,0.003799438,0,
00:02.4,0.001459122,-0.000989914,0.003816605,0,
00:02.4,0.001493454,-0.000989914,0.003816605,0,
00:02.4,0.001533508,-0.00097847,0.003765106,0,
00:02.4,0.001476288,-0.000972748,0.003787994,0,
00:02.4,0.001396179,-0.00097847,0.003862381,0,
00:02.4,0.001550674,-0.000989914,0.003793716,0,
00:02.4,0.001544952,-0.000972748,0.003725052,0,
00:02.4,0.001504898,-0.000967026,0.003770828,0,
00:02.4,0.001499176,-0.000955582,0.003793716,0,
00:02.4,0.001516342,-0.000972748,0.003782272,0,
00:02.4,0.001499176,-0.00097847,0.003793716,0,
00:02.4,0.001493454,-0.00097847,0.003787994,0,
00:02.4,0.001493454,-0.000961304,0.003782272,0,
00:02.4,0.001516342,-0.000961304,0.003793716,0,
00:02.4,0.0014534,-0.000967026,0.003799438,0,
00:02.4,0.001504898,-0.000967026,0.003787994,0,
00:02.4,0.001499176,-0.000961304,0.003799438,0,
00:02.4,0.001516342,-0.000972748,0.003833771,0,
00:02.4,0.001527786,-0.00097847,0.003770828,0,
00:02.4,0.001522064,-0.00097847,0.003759384,0,
00:02.4,0.001493454,-0.000995636,0.003787994,0,
00:02.4,0.00148201,-0.00097847,0.003782272,0,
00:02.4,0.001447678,-0.000967026,0.003805161,0,
00:02.4,0.001487732,-0.000955582,0.003805161,0,
00:02.5,0.00153923,-0.000944138,0.003759384,0,
00:02.5,0.001533508,-0.000961304,0.00377655,0,
00:02.5,0.001516342,-0.00097847,0.003799438,0,
00:02.5,0.0014534,-0.001001358,0.003799438,0,
00:02.5,0.001367569,-0.001047134,0.003810883,0,
00:02.5,0.001459122,-0.001001358,0.003793716,0,
00:02.5,0.001596451,-0.000921249,0.003730774,0,
00:02.5,0.001516342,-0.000926971,0.003770828,0,
00:02.5,0.001464844,-0.00094986,0.003810883,0,
00:02.5,0.001516342,-0.000984192,0.003799438,0,
00:02.5,0.00153923,-0.000967026,0.003759384,0,
00:02.5,0.001522064,-0.000972748,0.003787994,0,
00:02.5,0.001499176,-0.000967026,0.003770828,0,
00:02.5,0.001487732,-0.000972748,0.003787994,0,
00:02.5,0.001487732,-0.000961304,0.003805161,0,
00:02.5,0.001459122,-0.000972748,0.003782272,0,
00:02.5,0.001487732,-0.00097847,0.003787994,0,
00:02.5,0.001544952,-0.000967026,0.003793716,0,
00:02.5,0.00151062,-0.000967026,0.003742218,0,
00:02.5,0.001487732,-0.000984192,0.003759384,0,
00:02.5,0.001436234,-0.000984192,0.003793716,0,
00:02.5,0.001430511,-0.000972748,0.003833771,0,
00:02.5,0.001562119,-0.000955582,0.003793716,0,
00:02.5,0.00153923,-0.00097847,0.003742218,0,
00:02.5,0.001493454,-0.000967026,0.003753662,0,
00:02.6,0.001447678,-0.000989914,0.003787994,0,
00:02.6,0.001476288,-0.001012802,0.003787994,0,
00:02.6,0.001499176,-0.00097847,0.003770828,0,
00:02.6,0.001533508,-0.000955582,0.003765106,0,
00:02.6,0.001522064,-0.000984192,0.003782272,0,
00:02.6,0.001493454,-0.000989914,0.003828049,0,
00:02.6,0.001504898,-0.000967026,0.003787994,0,
00:02.6,0.001493454,-0.000961304,0.003736496,0,
00:02.6,0.001493454,-0.000967026,0.003765106,0,
00:02.6,0.001504898,-0.000967026,0.003770828,0,
00:02.6,0.001504898,-0.000944138,0.003765106,0,
00:02.6,0.001504898,-0.00094986,0.003770828,0,
00:02.6,0.001493454,-0.000967026,0.00377655,0,
00:02.6,0.001367569,-0.00097847,0.003822327,0,
00:02.6,0.001373291,-0.000995636,0.003885269,0,
00:02.6,0.001590729,-0.000972748,0.003765106,0,
00:02.6,0.001550674,-0.000961304,0.003730774,0,
00:02.6,0.00151062,-0.001001358,0.003742218,0,
00:02.6,0.001476288,-0.001012802,0.003759384,0,
00:02.6,0.001493454,-0.000972748,0.003787994,0,
00:02.6,0.001464844,-0.000955582,0.003822327,0,
00:02.6,0.001516342,-0.000955582,0.003765106,0,
00:02.6,0.001504898,-0.000972748,0.00374794,0,
00:02.6,0.00148201,-0.000984192,0.003765106,0,
00:02.6,0.00151062,-0.000984192,0.003793716,0,
00:02.7,0.001504898,-0.000972748,0.003793716,0,
00:02.7,0.001493454,-0.00097847,0.003759384,0,
00:02.7,0.001493454,-0.00097847,0.003759384,0,
00:02.7,0.001487732,-0.000961304,0.00377655,0,
00:02.7,0.001493454,-0.000955582,0.003787994,0,
00:02.7,0.001470566,-0.00097847,0.003782272,0,
00:02.7,0.001447678,-0.000995636,0.003816605,0,
00:02.7,0.001447678,-0.000967026,0.003822327,0,
00:02.7,0.001493454,-0.000967026,0.00377655,0,
00:02.7,0.001522064,-0.000989914,0.003725052,0,
00:02.7,0.001493454,-0.000984192,0.003787994,0,
00:02.7,0.001493454,-0.000967026,0.003839493,0,
00:02.7,0.001516342,-0.000955582,0.003736496,0,
00:02.7,0.001527786,-0.000961304,0.003742218,0,
00:02.7,0.001504898,-0.000989914,0.003765106,0,
00:02.7,0.001504898,-0.000989914,0.003765106,0,
00:02.7,0.001487732,-0.000967026,0.003782272,0,
00:02.7,0.001476288,-0.000967026,0.003805161,0,
00:02.7,0.00151062,-0.000984192,0.003799438,0,
00:02.7,0.001470566,-0.000967026,0.003753662,0,
00:02.7,0.00148201,-0.000984192,0.003753662,0,
00:02.7,0.001441956,-0.000989914,0.003793716,0,
00:02.7,0.001516342,-0.000961304,0.003765106,0,
00:02.7,0.001527786,-0.000955582,0.003736496,0,
00:02.7,0.001504898,-0.000967026,0.003770828,0,
00:02.8,0.001470566,-0.000961304,0.003787994,0,
00:02.8,0.001459122,-0.000972748,0.003805161,0,
00:02.8,0.001493454,-0.000972748,0.003793716,0,
00:02.8,0.001487732,-0.000967026,0.003765106,0,
00:02.8,0.001459122,-0.000972748,0.003793716,0,
00:02.8,0.001499176,-0.000995636,0.003787994,0,
00:02.8,0.001516342,-0.001018524,0.003782272,0,
00:02.8,0.001487732,-0.00100708,0.003742218,0,
00:02.8,0.001504898,-0.000972748,0.003765106,0,
00:02.8,0.001476288,-0.000955582,0.003839493,0,
00:02.8,0.001527786,-0.000944138,0.00374794,0,
00:02.8,0.001522064,-0.000944138,0.003725052,0,
00:02.8,0.00151062,-0.000961304,0.003753662,0,
00:02.8,0.001499176,-0.000967026,0.003782272,0,
00:02.8,0.001504898,-0.000984192,0.00374794,0,
00:02.8,0.001493454,-0.000972748,0.003759384,0,
00:02.8,0.001487732,-0.000967026,0.003770828,0,
00:02.8,0.001464844,-0.000989914,0.003782272,0,
00:02.8,0.001470566,-0.000995636,0.003787994,0,
00:02.8,0.001459122,-0.000984192,0.00377655,0,
00:02.8,0.001430511,-0.000972748,0.003793716,0,
00:02.8,0.001493454,-0.000955582,0.003759384,0,
00:02.8,0.001493454,-0.00097847,0.00377655,0,
00:02.8,0.001464844,-0.000984192,0.003805161,0,
00:02.8,0.001476288,-0.000972748,0.003833771,0,
00:02.9,0.001544952,-0.00097847,0.003765106,0,
00:02.9,0.00153923,-0.000972748,0.003702164,0,
00:02.9,0.001504898,-0.000967026,0.003736496,0,
00:02.9,0.001493454,-0.000961304,0.003765106,0,
00:02.9,0.001470566,-0.00097847,0.003770828,0,
00:02.9,0.001504898,-0.000989914,0.003759384,0,
00:02.9,0.001487732,-0.001001358,0.003742218,0,
00:02.9,0.001493454,-0.00097847,0.00377655,0,
00:02.9,0.001499176,-0.000961304,0.003782272,0,
00:02.9,0.001504898,-0.000961304,0.003759384,0,
00:02.9,0.001499176,-0.000961304,0.003759384,0,
00:02.9,0.001487732,-0.00094986,0.003765106,0,
00:02.9,0.001470566,-0.000972748,0.003782272,0,
00:02.9,0.001476288,-0.000989914,0.003799438,0,
00:02.9,0.001499176,-0.00097847,0.00374794,0,
00:02.9,0.00148201,-0.000961304,0.00374794,0,
00:02.9,0.001356125,-0.001001358,0.003810883,0,
00:02.9,0.001413345,-0.001041412,0.003862381,0,
00:02.9,0.001567841,-0.00097847,0.003725052,0,
00:02.9,0.001544952,-0.000955582,0.003713608,0,
00:02.9,0.001516342,-0.000955582,0.00377655,0,
00:02.9,0.001476288,-0.00097847,0.003787994,0,
00:02.9,0.001493454,-0.000972748,0.003753662,0,
00:02.9,0.001504898,-0.000961304,0.003753662,0,
00:02.9,0.001464844,-0.000984192,0.00377655,0,
00:03.0,0.001476288,-0.000989914,0.003765106,0,
00:03.0,0.001516342,-0.000961304,0.00374794,0,
00:03.0,0.001499176,-0.000967026,0.003736496,0,
00:03.0,0.001493454,-0.000984192,0.003759384,0,
00:03.0,0.001493454,-0.000989914,0.003759384,0,
00:03.0,0.001493454,-0.00097847,0.003759384,0,
00:03.0,0.001470566,-0.000955582,0.003770828,0,
00:03.0,0.001487732,-0.000972748,0.003770828,0,
00:03.0,0.001464844,-0.000984192,0.00377655,0,
00:03.0,0.001464844,-0.001001358,0.003759384,0,
00:03.0,0.001470566,-0.001001358,0.003770828,0,
00:03.0,0.001441956,-0.00097847,0.003782272,0,
00:00:03,0.001441956,-0.000989914,0.003822327,0,
00:03.0,0.001527786,-0.00097847,0.003753662,0,
00:03.0,0.001504898,-0.000984192,0.003742218,0,
00:03.0,0.001476288,-0.000955582,0.003759384,0,
00:03.0,0.001504898,-0.000938416,0.003770828,0,
00:03.0,0.00151062,-0.000967026,0.003759384,0,
00:03.0,0.001487732,-0.000984192,0.003730774,0,
00:03.0,0.00148201,-0.00097847,0.003759384,0,
00:03.0,0.001441956,-0.00097847,0.003799438,0,
00:03.0,0.001476288,-0.000972748,0.003742218,0,
00:03.0,0.001493454,-0.000972748,0.003753662,0,
00:03.0,0.001476288,-0.00097847,0.003759384,0,
00:03.0,0.00148201,-0.00097847,0.00374794,0,
00:03.1,0.001464844,-0.00097847,0.003765106,0,
00:03.1,0.001447678,-0.000995636,0.003799438,0,
00:03.1,0.00153923,-0.000989914,0.00374794,0,
00:03.1,0.00151062,-0.000972748,0.003736496,0,
00:03.1,0.001499176,-0.000961304,0.003753662,0,
00:03.1,0.001493454,-0.000984192,0.003793716,0,
00:03.1,0.001459122,-0.000989914,0.00377655,0,
00:03.1,0.001424789,-0.001012802,0.003799438,0,
00:03.1,0.001504898,-0.001024246,0.003730774,0,
00:03.1,0.001493454,-0.001001358,0.003725052,0,
00:03.1,0.001487732,-0.000961304,0.00374794,0,
00:03.1,0.001447678,-0.00094986,0.00377655,0,
00:03.1,0.001487732,-0.00094986,0.003765106,0,
00:03.1,0.00148201,-0.00094986,0.003770828,0,
00:03.1,0.001441956,-0.000989914,0.003822327,0,
00:03.1,0.001499176,-0.00097847,0.003759384,0,
00:03.1,0.001419067,-0.000984192,0.00374794,0,
00:03.1,0.001476288,-0.000989914,0.003753662,0,
00:03.1,0.001562119,-0.000955582,0.003742218,0,
00:03.1,0.001533508,-0.000972748,0.00377655,0,
00:03.1,0.001504898,-0.000995636,0.003787994,0,
00:03.1,0.0014534,-0.00097847,0.003770828,0,
00:03.1,0.001464844,-0.000967026,0.003759384,0,
00:03.1,0.00148201,-0.00097847,0.00374794,0,
00:03.1,0.00148201,-0.000995636,0.003742218,0,
00:03.2,0.00148201,-0.00097847,0.003759384,0,
00:03.2,0.00148201,-0.000967026,0.003782272,0,
00:03.2,0.00148201,-0.000972748,0.003770828,0,
00:03.2,0.0014534,-0.000989914,0.003742218,0,
00:03.2,0.001459122,-0.000984192,0.003770828,0,
00:03.2,0.001499176,-0.001001358,0.003770828,0,
00:03.2,0.001493454,-0.001029968,0.00374794,0,
00:03.2,0.001476288,-0.001024246,0.003759384,0,
00:03.2,0.001499176,-0.000955582,0.003765106,0,
00:03.2,0.001470566,-0.000938416,0.003770828,0,
00:03.2,0.001441956,-0.000955582,0.003782272,0,
00:03.2,0.00148201,-0.000984192,0.003822327,0,
00:03.2,0.001499176,-0.000955582,0.00371933,0,
00:03.2,0.001487732,-0.000984192,0.003782272,0,
00:03.2,0.001447678,-0.000995636,0.003816605,0,
00:03.2,0.001459122,-0.000972748,0.003730774,0,
00:03.2,0.001476288,-0.000984192,0.00374794,0,
00:03.2,0.001487732,-0.000984192,0.003753662,0,
00:03.2,0.001527786,-0.00097847,0.003753662,0,
00:03.2,0.00151062,-0.000984192,0.003759384,0,
00:03.2,0.001470566,-0.000972748,0.00377655,0,
00:03.2,0.0014534,-0.00097847,0.003765106,0,
00:03.2,0.001470566,-0.000984192,0.003736496,0,
00:03.2,0.001504898,-0.00097847,0.003759384,0,
00:03.2,0.001499176,-0.000989914,0.003759384,0,
00:03.3,0.001487732,-0.000995636,0.003759384,0,
00:03.3,0.00148201,-0.001001358,0.003759384,0,
00:03.3,0.001493454,-0.000955582,0.003765106,0,
00:03.3,0.001487732,-0.000961304,0.003765106,0,
00:03.3,0.001476288,-0.001001358,0.003759384,0,
00:03.3,0.001470566,-0.001024246,0.003753662,0,
00:03.3,0.001441956,-0.00100708,0.003770828,0,
00:03.3,0.001384735,-0.000967026,0.003822327,0,
00:03.3,0.001459122,-0.000967026,0.003896713,0,
00:03.3,0.001487732,-0.000967026,0.00374794,0,
00:03.3,0.00151062,-0.000972748,0.003684998,0,
00:03.3,0.001487732,-0.000972748,0.003730774,0,
00:03.3,0.00148201,-0.000972748,0.00374794,0,
00:03.3,0.001413345,-0.000995636,0.00377655,0,
00:03.3,0.001476288,-0.001012802,0.003759384,0,
00:03.3,0.001527786,-0.000989914,0.003759384,0,
00:03.3,0.001487732,-0.00097847,0.003742218,0,
00:03.3,0.001499176,-0.000961304,0.003759384,0,
00:03.3,0.001487732,-0.000967026,0.003759384,0,
00:03.3,0.001476288,-0.000984192,0.003759384,0,
00:03.3,0.001459122,-0.000995636,0.003770828,0,
00:03.3,0.00148201,-0.00100708,0.003782272,0,
00:03.3,0.001476288,-0.000984192,0.00374794,0,
00:03.3,0.001476288,-0.000984192,0.00374794,0,
00:03.3,0.0014534,-0.000995636,0.003759384,0,
00:03.4,0.001419067,-0.000972748,0.003787994,0,
00:03.4,0.00148201,-0.00097847,0.003787994,0,
00:03.4,0.001447678,-0.001001358,0.00374794,0,
00:03.4,0.001419067,-0.001018524,0.003810883,0,
00:03.4,0.001493454,-0.000955582,0.00377655,0,
00:03.4,0.00148201,-0.00094986,0.003753662,0,
00:03.4,0.00151062,-0.000984192,0.003742218,0,
00:03.4,0.001487732,-0.00100708,0.003753662,0,
00:03.4,0.001470566,-0.000961304,0.00377655,0,
00:03.4,0.00148201,-0.000972748,0.003787994,0,
00:03.4,0.001487732,-0.000989914,0.003730774,0,
00:03.4,0.001487732,-0.000995636,0.00374794,0,
00:03.4,0.001504898,-0.000967026,0.003765106,0,
00:03.4,0.001493454,-0.000984192,0.00377655,0,
00:03.4,0.001430511,-0.000995636,0.003770828,0,
00:03.4,0.001430511,-0.001018524,0.003793716,0,
00:03.4,0.001470566,-0.00100708,0.00377655,0,
00:03.4,0.001470566,-0.001001358,0.003736496,0,
00:03.4,0.001470566,-0.000995636,0.00374794,0,
00:03.4,0.001436234,-0.000961304,0.003770828,0,
00:03.4,0.001470566,-0.000967026,0.003770828,0,
00:03.4,0.001476288,-0.000995636,0.003770828,0,
00:03.4,0.00148201,-0.001012802,0.003799438,0,
00:03.4,0.001464844,-0.000967026,0.003759384,0,
00:03.4,0.001487732,-0.000967026,0.003765106,0,
00:03.5,0.001476288,-0.000995636,0.003770828,0,
00:03.5,0.001487732,-0.000989914,0.003742218,0,
00:03.5,0.001464844,-0.000967026,0.003770828,0,
00:03.5,0.001419067,-0.00097847,0.003822327,0,
00:03.5,0.001504898,-0.001001358,0.003770828,0,
00:03.5,0.00151062,-0.000984192,0.003713608,0,
00:03.5,0.001487732,-0.000967026,0.003742218,0,
00:03.5,0.001470566,-0.000967026,0.003765106,0,
00:03.5,0.001470566,-0.00097847,0.003753662,0,
00:03.5,0.001493454,-0.00097847,0.003759384,0,
00:03.5,0.00148201,-0.000984192,0.003753662,0,
00:03.5,0.001470566,-0.001001358,0.003765106,0,
00:03.5,0.0014534,-0.001012802,0.003770828,0,
00:03.5,0.001464844,-0.000989914,0.003770828,0,
00:03.5,0.001476288,-0.000972748,0.003759384,0,
00:03.5,0.0014534,-0.00097847,0.003759384,0,
00:03.5,0.001459122,-0.000972748,0.00377655,0,
00:03.5,0.0014534,-0.00097847,0.003782272,0,
00:03.5,0.001487732,-0.001001358,0.003765106,0,
00:03.5,0.001419067,-0.001012802,0.003782272,0,
00:03.5,0.001413345,-0.001001358,0.003850937,0,
00:03.5,0.001373291,-0.001012802,0.003902435,0,
00:03.5,0.001567841,-0.000961304,0.003679276,0,
00:03.5,0.001544952,-0.000938416,0.003656387,0,
00:03.5,0.001499176,-0.000967026,0.003725052,0,
00:03.6,0.00148201,-0.000989914,0.003753662,0,
00:03.6,0.001470566,-0.00100708,0.003765106,0,
00:03.6,0.001470566,-0.000989914,0.003759384,0,
00:03.6,0.001459122,-0.00097847,0.003759384,0,
00:03.6,0.001464844,-0.000967026,0.003765106,0,
00:03.6,0.00148201,-0.000972748,0.003759384,0,
00:03.6,0.001470566,-0.000989914,0.003770828,0,
00:03.6,0.001441956,-0.000989914,0.003765106,0,
00:03.6,0.001384735,-0.000995636,0.003782272,0,
00:03.6,0.00151062,-0.001018524,0.003787994,0,
00:03.6,0.001504898,-0.00100708,0.003742218,0,
00:03.6,0.001476288,-0.00097847,0.003759384,0,
00:03.6,0.001464844,-0.00097847,0.003759384,0,
00:03.6,0.001447678,-0.000984192,0.003770828,0,
00:03.6,0.001419067,-0.00097847,0.003793716,0,
00:03.6,0.001401901,-0.000972748,0.003839493,0,
00:03.6,0.001504898,-0.000972748,0.003765106,0,
00:03.6,0.001499176,-0.000984192,0.003730774,0,
00:03.6,0.001476288,-0.001001358,0.003730774,0,
00:03.6,0.0014534,-0.000995636,0.003759384,0,
00:03.6,0.001487732,-0.000984192,0.003770828,0,
00:03.6,0.001487732,-0.000961304,0.00377655,0,
00:03.6,0.001413345,-0.000984192,0.003765106,0,
00:03.6,0.001413345,-0.001012802,0.003787994,0,
00:03.6,0.001493454,-0.000989914,0.00374794,0,
00:03.7,0.001487732,-0.00097847,0.003753662,0,
00:03.7,0.001470566,-0.000989914,0.003765106,0,
00:03.7,0.001447678,-0.00097847,0.003787994,0,
00:03.7,0.001464844,-0.000995636,0.003782272,0,
00:03.7,0.001470566,-0.00100708,0.00374794,0,
00:03.7,0.001430511,-0.001001358,0.003765106,0,
00:03.7,0.001441956,-0.00100708,0.003787994,0,
00:03.7,0.001476288,-0.00100708,0.003753662,0,
00:03.7,0.001464844,-0.000961304,0.003765106,0,
00:03.7,0.001413345,-0.000955582,0.003799438,0,
00:03.7,0.001459122,-0.000972748,0.00377655,0,
00:03.7,0.001504898,-0.000972748,0.003730774,0,
00:03.7,0.00148201,-0.000989914,0.003759384,0,
00:03.7,0.001470566,-0.001012802,0.003770828,0,
00:03.7,0.0014534,-0.000995636,0.003753662,0,
00:03.7,0.001419067,-0.00097847,0.003782272,0,
00:03.7,0.001459122,-0.000972748,0.003765106,0,
00:03.7,0.001499176,-0.000972748,0.003753662,0,
00:03.7,0.001464844,-0.000984192,0.003770828,0,
00:03.7,0.001470566,-0.000995636,0.003765106,0,
00:03.7,0.001447678,-0.000989914,0.003782272,0,
00:03.7,0.001441956,-0.000984192,0.003850937,0,
00:03.7,0.001436234,-0.000989914,0.003793716,0,
00:03.7,0.001447678,-0.00100708,0.003713608,0,
00:03.7,0.001493454,-0.001001358,0.003753662,0,
00:03.8,0.0014534,-0.000984192,0.003770828,0,
00:03.8,0.001407623,-0.00097847,0.00377655,0,
00:03.8,0.001430511,-0.00097847,0.00377655,0,
00:03.8,0.001499176,-0.001001358,0.003742218,0,
00:03.8,0.00148201,-0.001024246,0.003753662,0,
00:03.8,0.0014534,-0.001001358,0.003765106,0,
00:03.8,0.001459122,-0.000984192,0.003770828,0,
00:03.8,0.001447678,-0.000995636,0.003770828,0,
00:03.8,0.0014534,-0.001001358,0.003770828,0,
00:03.8,0.001470566,-0.00097847,0.003765106,0,
00:03.8,0.001470566,-0.000955582,0.003787994,0,
00:03.8,0.001470566,-0.000989914,0.003787994,0,
00:03.8,0.001436234,-0.001024246,0.003759384,0,
00:03.8,0.001419067,-0.001012802,0.003805161,0,
00:03.8,0.001487732,-0.000961304,0.003805161,0,
00:03.8,0.001464844,-0.000961304,0.00374794,0,
00:03.8,0.001390457,-0.000989914,0.003787994,0,
00:03.8,0.001419067,-0.001012802,0.003793716,0,
00:03.8,0.001527786,-0.000989914,0.00374794,0,
00:03.8,0.001470566,-0.000972748,0.003753662,0,
00:03.8,0.001390457,-0.000984192,0.00377655,0,
00:03.8,0.001441956,-0.000984192,0.003770828,0,
00:03.8,0.001493454,-0.000989914,0.003742218,0,
00:03.8,0.001476288,-0.000989914,0.003759384,0,
00:03.8,0.001470566,-0.000989914,0.003770828,0,
00:03.9,0.001447678,-0.00097847,0.003770828,0,
00:03.9,0.001459122,-0.000984192,0.003770828,0,
00:03.9,0.001470566,-0.00097847,0.003765106,0,
00:03.9,0.001459122,-0.000984192,0.003765106,0,
00:03.9,0.001459122,-0.000984192,0.003765106,0,
00:03.9,0.0014534,-0.000995636,0.00377655,0,
00:03.9,0.001430511,-0.001018524,0.003799438,0,
00:03.9,0.001424789,-0.001018524,0.003793716,0,
00:03.9,0.001441956,-0.000984192,0.003770828,0,
00:03.9,0.001419067,-0.000995636,0.003805161,0,
00:03.9,0.001447678,-0.00100708,0.003782272,0,
00:03.9,0.001476288,-0.00100708,0.003742218,0,
00:03.9,0.001459122,-0.000972748,0.003770828,0,
00:03.9,0.001401901,-0.00097847,0.003770828,0,
00:03.9,0.001493454,-0.001001358,0.00374794,0,
00:03.9,0.001499176,-0.00097847,0.00374794,0,
00:03.9,0.001464844,-0.000995636,0.003765106,0,
00:03.9,0.0014534,-0.001012802,0.003770828,0,
00:03.9,0.001476288,-0.000972748,0.003770828,0,
00:03.9,0.001464844,-0.000955582,0.003759384,0,
00:03.9,0.001459122,-0.00097847,0.00377655,0,
00:03.9,0.001441956,-0.000984192,0.003765106,0,
00:03.9,0.001401901,-0.00100708,0.00377655,0,
00:03.9,0.001419067,-0.001001358,0.003782272,0,
00:03.9,0.0014534,-0.000995636,0.003787994,0,
00:04.0,0.001447678,-0.000989914,0.00374794,0,
00:04.0,0.001430511,-0.00100708,0.003822327,0,
00:04.0,0.001459122,-0.000995636,0.003805161,0,
00:04.0,0.001464844,-0.000989914,0.003753662,0,
00:04.0,0.001436234,-0.001018524,0.003742218,0,
00:04.0,0.001476288,-0.001012802,0.003742218,0,
00:04.0,0.001470566,-0.000961304,0.003759384,0,
00:04.0,0.0014534,-0.000961304,0.00377655,0,
00:04.0,0.001487732,-0.00097847,0.003770828,0,
00:04.0,0.001470566,-0.000984192,0.003742218,0,
00:04.0,0.001459122,-0.001001358,0.00374794,0,
00:04.0,0.001459122,-0.001012802,0.003765106,0,
00:00:04,0.001447678,-0.000989914,0.003770828,0,
00:04.0,0.001441956,-0.001001358,0.00377655,0,
00:04.0,0.001441956,-0.001029968,0.003770828,0,
00:04.0,0.001447678,-0.00097847,0.003765106,0,
00:04.0,0.001413345,-0.000961304,0.003793716,0,
00:04.0,0.0014534,-0.000984192,0.003805161,0,
00:04.0,0.001441956,-0.000989914,0.00377655,0,
00:04.0,0.001493454,-0.001001358,0.003787994,0,
00:04.0,0.001459122,-0.000984192,0.003702164,0,
00:04.0,0.001424789,-0.000989914,0.003759384,0,
00:04.0,0.0014534,-0.000989914,0.003770828,0,
00:04.0,0.001476288,-0.000972748,0.003759384,0,
00:04.0,0.001459122,-0.001018524,0.003770828,0,
00:04.1,0.001441956,-0.001001358,0.003765106,0,
00:04.1,0.001430511,-0.001001358,0.003759384,0,
00:04.1,0.001470566,-0.000967026,0.003753662,0,
00:04.1,0.00148201,-0.000967026,0.003759384,0,
00:04.1,0.001430511,-0.00100708,0.003782272,0,
00:04.1,0.001384735,-0.001024246,0.003782272,0,
00:04.1,0.001407623,-0.000995636,0.003828049,0,
00:04.1,0.001464844,-0.000961304,0.003759384,0,
00:04.1,0.001487732,-0.000989914,0.003742218,0,
00:04.1,0.001459122,-0.000984192,0.00371933,0,
00:04.1,0.001464844,-0.000984192,0.003759384,0,
00:04.1,0.001470566,-0.000995636,0.003765106,0,
00:04.1,0.001459122,-0.001001358,0.003753662,0,
00:04.1,0.001459122,-0.000989914,0.003753662,0,
00:04.1,0.001476288,-0.000984192,0.003770828,0,
00:04.1,0.001441956,-0.000995636,0.003782272,0,
00:04.1,0.001441956,-0.000995636,0.003770828,0,
00:04.1,0.001459122,-0.000984192,0.003753662,0,
00:04.1,0.0014534,-0.000972748,0.003765106,0,
00:04.1,0.001441956,-0.000989914,0.003765106,0,
00:04.1,0.001441956,-0.001001358,0.003770828,0,
00:04.1,0.001424789,-0.000995636,0.003782272,0,
00:04.1,0.001373291,-0.000995636,0.003828049,0,
00:04.1,0.001447678,-0.001012802,0.003793716,0,
00:04.1,0.001476288,-0.001029968,0.003736496,0,
00:04.2,0.001470566,-0.00103569,0.003753662,0,
00:04.2,0.001419067,-0.000967026,0.003736496,0,
00:04.2,0.001430511,-0.00097847,0.003770828,0,
00:04.2,0.001476288,-0.00100708,0.003759384,0,
00:04.2,0.001476288,-0.000984192,0.003753662,0,
00:04.2,0.001459122,-0.000984192,0.003753662,0,
00:04.2,0.0014534,-0.00097847,0.003753662,0,
00:04.2,0.001459122,-0.000972748,0.003753662,0,
00:04.2,0.001441956,-0.00100708,0.003770828,0,
00:04.2,0.001424789,-0.001001358,0.003770828,0,
00:04.2,0.001430511,-0.00100708,0.003770828,0,
00:04.2,0.001430511,-0.000989914,0.003799438,0,
00:04.2,0.001413345,-0.000984192,0.003810883,0,
00:04.2,0.001436234,-0.000989914,0.00377655,0,
00:04.2,0.001459122,-0.001001358,0.003736496,0,
00:04.2,0.001407623,-0.000989914,0.003742218,0,
00:04.2,0.001436234,-0.000989914,0.003810883,0,
00:04.2,0.001487732,-0.00100708,0.003765106,0,
00:04.2,0.001464844,-0.000995636,0.003725052,0,
00:04.2,0.001441956,-0.00097847,0.003753662,0,
00:04.2,0.001441956,-0.000995636,0.003759384,0,
00:04.2,0.001430511,-0.001018524,0.003759384,0,
00:04.2,0.001436234,-0.00103569,0.003765106,0,
00:04.2,0.001464844,-0.001018524,0.003770828,0,
00:04.2,0.0014534,-0.00097847,0.003759384,0,
00:04.3,0.001447678,-0.00094986,0.003753662,0,
00:04.3,0.001441956,-0.000961304,0.003765106,0,
00:04.3,0.001447678,-0.000989914,0.003765106,0,
00:04.3,0.001436234,-0.001012802,0.003765106,0,
00:04.3,0.001436234,-0.001012802,0.003759384,0,
00:04.3,0.001436234,-0.001001358,0.003765106,0,
00:04.3,0.001424789,-0.000989914,0.003793716,0,
00:04.3,0.001447678,-0.00100708,0.003805161,0,
00:04.3,0.0014534,-0.000995636,0.003730774,0,
00:04.3,0.001441956,-0.00100708,0.00374794,0,
00:04.3,0.001384735,-0.001001358,0.003782272,0,
00:04.3,0.001419067,-0.000989914,0.003805161,0,
00:04.3,0.001476288,-0.000955582,0.003736496,0,
00:04.3,0.001470566,-0.00097847,0.00374794,0,
00:04.3,0.001419067,-0.001001358,0.003759384,0,
00:04.3,0.001396179,-0.000989914,0.003759384,0,
00:04.3,0.0014534,-0.001001358,0.003770828,0,
00:04.3,0.001464844,-0.001018524,0.003753662,0,
00:04.3,0.001436234,-0.001018524,0.00374794,0,
00:04.3,0.001436234,-0.00100708,0.003753662,0,
00:04.3,0.0014534,-0.000972748,0.003759384,0,
00:04.3,0.0014534,-0.00097847,0.003782272,0,
00:04.3,0.001447678,-0.000967026,0.003799438,0,
00:04.3,0.0014534,-0.00097847,0.003765106,0,
00:04.3,0.001430511,-0.001001358,0.00374794,0,
00:04.4,0.001424789,-0.001018524,0.00374794,0,
00:04.4,0.001441956,-0.000995636,0.003753662,0,
00:04.4,0.001441956,-0.000989914,0.00377655,0,
00:04.4,0.001384735,-0.000984192,0.003787994,0,
00:04.4,0.001361847,-0.000995636,0.003828049,0,
00:04.4,0.001447678,-0.001024246,0.00377655,0,
00:04.4,0.0014534,-0.00100708,0.003742218,0,
00:04.4,0.001470566,-0.000972748,0.003730774,0,
00:04.4,0.001464844,-0.000972748,0.003736496,0,
00:04.4,0.001436234,-0.001001358,0.003753662,0,
00:04.4,0.001430511,-0.000995636,0.003765106,0,
00:04.4,0.0014534,-0.00097847,0.003770828,0,
00:04.4,0.001459122,-0.000972748,0.003753662,0,
00:04.4,0.001447678,-0.000995636,0.003759384,0,
00:04.4,0.001441956,-0.000972748,0.003770828,0,
00:04.4,0.001413345,-0.00097847,0.003810883,0,
00:04.4,0.001424789,-0.00100708,0.003753662,0,
00:04.4,0.001401901,-0.001058578,0.003736496,0,
00:04.4,0.001419067,-0.001041412,0.003765106,0,
00:04.4,0.001401901,-0.000989914,0.003805161,0,
00:04.4,0.001476288,-0.000961304,0.003770828,0,
00:04.4,0.001476288,-0.00094986,0.003730774,0,
00:04.4,0.001441956,-0.00097847,0.003759384,0,
00:04.4,0.001396179,-0.001018524,0.003753662,0,
00:04.4,0.001436234,-0.001012802,0.00374794,0,
00:04.5,0.0014534,-0.000972748,0.003753662,0,
00:04.5,0.001441956,-0.000967026,0.003770828,0,
00:04.5,0.001436234,-0.000995636,0.003770828,0,
00:04.5,0.001419067,-0.001018524,0.003787994,0,
00:04.5,0.001344681,-0.001052856,0.003810883,0,
00:04.5,0.001316071,-0.001075745,0.003793716,0,
00:04.5,0.001504898,-0.000967026,0.00371933,0,
00:04.5,0.001499176,-0.000938416,0.003725052,0,
00:04.5,0.001459122,-0.000961304,0.00374794,0,
00:04.5,0.001447678,-0.000984192,0.003759384,0,
00:04.5,0.001436234,-0.001001358,0.003765106,0,
00:04.5,0.001424789,-0.001018524,0.003759384,0,
00:04.5,0.001424789,-0.00100708,0.003753662,0,
00:04.5,0.001407623,-0.000995636,0.003770828,0,
00:04.5,0.001424789,-0.001012802,0.003787994,0,
00:04.5,0.0014534,-0.00097847,0.00377655,0,
00:04.5,0.001441956,-0.000972748,0.003753662,0,
00:04.5,0.001413345,-0.001012802,0.003742218,0,
00:04.5,0.001424789,-0.001001358,0.003765106,0,
00:04.5,0.001384735,-0.000984192,0.003765106,0,
00:04.5,0.001333237,-0.001018524,0.003868103,0,
00:04.5,0.001493454,-0.001012802,0.003787994,0,
00:04.5,0.001470566,-0.000984192,0.003684998,0,
00:04.5,0.001447678,-0.000972748,0.003742218,0,
00:04.5,0.001441956,-0.000972748,0.003759384,0,
00:04.6,0.001436234,-0.000989914,0.003753662,0,
00:04.6,0.001413345,-0.001029968,0.003765106,0,
00:04.6,0.001396179,-0.001024246,0.003770828,0,
00:04.6,0.001333237,-0.001012802,0.003787994,0,
00:04.6,0.001413345,-0.000989914,0.003793716,0,
00:04.6,0.00151062,-0.000984192,0.003759384,0,
00:04.6,0.001447678,-0.000989914,0.003742218,0,
00:04.6,0.001447678,-0.000972748,0.00374794,0,
00:04.6,0.001436234,-0.000989914,0.003753662,0,
00:04.6,0.001424789,-0.001018524,0.00377655,0,
00:04.6,0.001424789,-0.001024246,0.003765106,0,
00:04.6,0.001430511,-0.000989914,0.003759384,0,
00:04.6,0.001436234,-0.00097847,0.003759384,0,
00:04.6,0.001413345,-0.001001358,0.003770828,0,
00:04.6,0.001396179,-0.001001358,0.003787994,0,
00:04.6,0.001419067,-0.001001358,0.003765106,0,
00:04.6,0.001379013,-0.001012802,0.003787994,0,
00:04.6,0.001413345,-0.001001358,0.003805161,0,
00:04.6,0.0014534,-0.000995636,0.00374794,0,
00:04.6,0.001441956,-0.00100708,0.003736496,0,
00:04.6,0.001424789,-0.001018524,0.00374794,0,
00:04.6,0.001384735,-0.000995636,0.00377655,0,
00:04.6,0.001424789,-0.000972748,0.00377655,0,
00:04.6,0.001447678,-0.000989914,0.003765106,0,
00:04.6,0.001447678,-0.001018524,0.003799438,0,
00:04.7,0.001441956,-0.000984192,0.003787994,0,
00:04.7,0.001430511,-0.000984192,0.003782272,0,
00:04.7,0.001430511,-0.000984192,0.003742218,0,
00:04.7,0.001413345,-0.001001358,0.003753662,0,
00:04.7,0.001407623,-0.001012802,0.003765106,0,
00:04.7,0.001379013,-0.00100708,0.003810883,0,
00:04.7,0.001419067,-0.001018524,0.003787994,0,
00:04.7,0.001464844,-0.001024246,0.00374794,0,
00:04.7,0.001441956,-0.001001358,0.00374794,0,
00:04.7,0.001430511,-0.000989914,0.00377655,0,
00:04.7,0.001430511,-0.00097847,0.003770828,0,
00:04.7,0.001419067,-0.00097847,0.00374794,0,
00:04.7,0.001430511,-0.001001358,0.003759384,0,
00:04.7,0.001413345,-0.00100708,0.003765106,0,
00:04.7,0.001413345,-0.000995636,0.003759384,0,
00:04.7,0.001407623,-0.001024246,0.00377655,0,
00:04.7,0.001430511,-0.000995636,0.003770828,0,
00:04.7,0.001447678,-0.000961304,0.003787994,0,
00:04.7,0.001441956,-0.000989914,0.003787994,0,
00:04.7,0.001373291,-0.001018524,0.003770828,0,
00:04.7,0.001384735,-0.00097847,0.003793716,0,
00:04.7,0.001390457,-0.00100708,0.003810883,0,
00:04.7,0.001401901,-0.00103569,0.003730774,0,
00:04.7,0.00148201,-0.000995636,0.003730774,0,
00:04.7,0.001441956,-0.000989914,0.003765106,0,
00:04.8,0.001419067,-0.001001358,0.003787994,0,
00:04.8,0.001424789,-0.000984192,0.003770828,0,
00:04.8,0.001401901,-0.000989914,0.003765106,0,
00:04.8,0.001424789,-0.00100708,0.003753662,0,
00:04.8,0.001424789,-0.000984192,0.003765106,0,
00:04.8,0.001424789,-0.00097847,0.003770828,0,
00:04.8,0.001447678,-0.00100708,0.003770828,0,
00:04.8,0.001430511,-0.00100708,0.003759384,0,
00:04.8,0.001424789,-0.00100708,0.003759384,0,
00:04.8,0.001407623,-0.001018524,0.003765106,0,
00:04.8,0.001407623,-0.000995636,0.003787994,0,
00:04.8,0.001424789,-0.00100708,0.003782272,0,
00:04.8,0.001441956,-0.000995636,0.003782272,0,
00:04.8,0.001384735,-0.000995636,0.003799438,0,
00:04.8,0.001344681,-0.001018524,0.003828049,0,
00:04.8,0.001430511,-0.001001358,0.003765106,0,
00:04.8,0.0014534,-0.000989914,0.00371933,0,
00:04.8,0.001401901,-0.000995636,0.003787994,0,
00:04.8,0.001447678,-0.000995636,0.003742218,0,
00:04.8,0.001441956,-0.000989914,0.003770828,0,
00:04.8,0.001379013,-0.001024246,0.003799438,0,
00:04.8,0.001430511,-0.001012802,0.003765106,0,
00:04.8,0.001441956,-0.000984192,0.00374794,0,
00:04.8,0.001424789,-0.000972748,0.003759384,0,
00:04.8,0.001373291,-0.000984192,0.00377655,0,
00:04.9,0.001396179,-0.001018524,0.003828049,0,
00:04.9,0.001464844,-0.001018524,0.003770828,0,
00:04.9,0.001424789,-0.000995636,0.003725052,0,
00:04.9,0.001436234,-0.00097847,0.003759384,0,
00:04.9,0.001407623,-0.000989914,0.003770828,0,
00:04.9,0.001396179,-0.001024246,0.00377655,0,
00:04.9,0.001379013,-0.001041412,0.003782272,0,
00:04.9,0.001327515,-0.001041412,0.003793716,0,
00:04.9,0.001419067,-0.00100708,0.003810883,0,
00:04.9,0.001430511,-0.00097847,0.003753662,0,
00:04.9,0.001401901,-0.000989914,0.003759384,0,
00:04.9,0.0014534,-0.001001358,0.003765106,0,
00:04.9,0.001441956,-0.000995636,0.00374794,0,
00:04.9,0.001441956,-0.00097847,0.003753662,0,
00:04.9,0.001407623,-0.001001358,0.003765106,0,
00:04.9,0.001396179,-0.001024246,0.003782272,0,
00:04.9,0.001441956,-0.000995636,0.003782272,0,
00:04.9,0.001430511,-0.000972748,0.003765106,0,
00:04.9,0.001419067,-0.000984192,0.003765106,0,
00:04.9,0.001413345,-0.001012802,0.003759384,0,
00:04.9,0.001424789,-0.001012802,0.003787994,0,
00:04.9,0.001413345,-0.001024246,0.003822327,0,
00:04.9,0.001373291,-0.000989914,0.00377655,0,
00:04.9,0.001361847,-0.000989914,0.003765106,0,
00:04.9,0.001379013,-0.001012802,0.003782272,0,
00:05.0,0.001373291,-0.001001358,0.003759384,0,
00:05.0,0.001424789,-0.00100708,0.003793716,0,
00:05.0,0.001424789,-0.001024246,0.003759384,0,
00:05.0,0.001436234,-0.001012802,0.003753662,0,
00:05.0,0.001384735,-0.001024246,0.003787994,0,
00:05.0,0.001419067,-0.001018524,0.00377655,0,
00:05.0,0.0014534,-0.000984192,0.003742218,0,
00:05.0,0.001424789,-0.000972748,0.003753662,0,
00:05.0,0.001419067,-0.000995636,0.003765106,0,
00:05.0,0.001407623,-0.001012802,0.00377655,0,
00:05.0,0.001396179,-0.001029968,0.003782272,0,
00:05.0,0.001419067,-0.001018524,0.003793716,0,
00:00:05,0.001436234,-0.000989914,0.003787994,0,
00:05.0,0.001424789,-0.000967026,0.003753662,0,
00:05.0,0.001407623,-0.00097847,0.003770828,0,
00:05.0,0.001361847,-0.00100708,0.003782272,0,
00:05.0,0.001419067,-0.001029968,0.003765106,0,
00:05.0,0.001413345,-0.001001358,0.003759384,0,
00:05.0,0.001367569,-0.001001358,0.003787994,0,
00:05.0,0.001361847,-0.00103569,0.003787994,0,
00:05.0,0.001373291,-0.00100708,0.003805161,0,
00:05.0,0.001361847,-0.00100708,0.003839493,0,
00:05.0,0.001487732,-0.001018524,0.003713608,0,
00:05.0,0.001447678,-0.00100708,0.003730774,0,
00:05.0,0.001419067,-0.000989914,0.00377655,0,
00:05.1,0.001390457,-0.00097847,0.003805161,0,
00:05.1,0.001419067,-0.000989914,0.003765106,0,
00:05.1,0.001419067,-0.001001358,0.00377655,0,
00:05.1,0.001430511,-0.001001358,0.003759384,0,
00:05.1,0.001407623,-0.00100708,0.00377655,0,
00:05.1,0.001350403,-0.001018524,0.00377655,0,
00:05.1,0.001413345,-0.000995636,0.003770828,0,
00:05.1,0.001407623,-0.00097847,0.003770828,0,
00:05.1,0.001384735,-0.001001358,0.00377655,0,
00:05.1,0.001367569,-0.001029968,0.003787994,0,
00:05.1,0.001379013,-0.001018524,0.003816605,0,
00:05.1,0.001373291,-0.000995636,0.003839493,0,
00:05.1,0.001459122,-0.001001358,0.003787994,0,
00:05.1,0.001447678,-0.001012802,0.003713608,0,
00:05.1,0.001413345,-0.00100708,0.003736496,0,
00:05.1,0.001390457,-0.000967026,0.003810883,0,
00:05.1,0.001253128,-0.000995636,0.003816605,0,
00:05.1,0.001430511,-0.001012802,0.00374794,0,
00:05.1,0.001493454,-0.000995636,0.003736496,0,
00:05.1,0.001441956,-0.000989914,0.003759384,0,
00:05.1,0.001390457,-0.000984192,0.003787994,0,
00:05.1,0.001333237,-0.00100708,0.003890991,0,
00:05.1,0.001441956,-0.000989914,0.003765106,0,
00:05.1,0.001447678,-0.001001358,0.003702164,0,
00:05.1,0.001419067,-0.001024246,0.003753662,0,
00:05.2,0.001419067,-0.000989914,0.003770828,0,
00:05.2,0.001424789,-0.00097847,0.003753662,0,
00:05.2,0.001407623,-0.001024246,0.00377655,0,
00:05.2,0.001401901,-0.00103569,0.003782272,0,
00:05.2,0.001413345,-0.00100708,0.003770828,0,
00:05.2,0.001401901,-0.00097847,0.003770828,0,
00:05.2,0.001390457,-0.001041412,0.003782272,0,
00:05.2,0.001390457,-0.001047134,0.00377655,0,
00:05.2,0.001413345,-0.000995636,0.003782272,0,
00:05.2,0.001424789,-0.000989914,0.003793716,0,
00:05.2,0.001396179,-0.00100708,0.003787994,0,
00:05.2,0.001338959,-0.001001358,0.003810883,0,
00:05.2,0.001379013,-0.000972748,0.003805161,0,
00:05.2,0.001390457,-0.00097847,0.003753662,0,
00:05.2,0.001396179,-0.000995636,0.003799438,0,
00:05.2,0.001367569,-0.001012802,0.003816605,0,
00:05.2,0.001441956,-0.001024246,0.003782272,0,
00:05.2,0.0014534,-0.001001358,0.003730774,0,
00:05.2,0.001436234,-0.000984192,0.00374794,0,
00:05.2,0.001413345,-0.000989914,0.003759384,0,
00:05.2,0.001407623,-0.00100708,0.003765106,0,
00:05.2,0.001396179,-0.001012802,0.003765106,0,
00:05.2,0.001401901,-0.001024246,0.00377655,0,
00:05.2,0.001401901,-0.001024246,0.003770828,0,
00:05.2,0.001396179,-0.001024246,0.003770828,0,
00:05.3,0.001384735,-0.001024246,0.00377655,0,
00:05.3,0.001407623,-0.001001358,0.003793716,0,
00:05.3,0.001413345,-0.000984192,0.003765106,0,
00:05.3,0.001413345,-0.00100708,0.003759384,0,
00:05.3,0.001401901,-0.000995636,0.003770828,0,
00:05.3,0.001390457,-0.000989914,0.003782272,0,
00:05.3,0.001413345,-0.00100708,0.003793716,0,
00:05.3,0.001401901,-0.00100708,0.003793716,0,
00:05.3,0.001350403,-0.000995636,0.003759384,0,
00:05.3,0.001321793,-0.001001358,0.003805161,0,
00:05.3,0.001350403,-0.00100708,0.003845215,0,
00:05.3,0.00148201,-0.000995636,0.003805161,0,
00:05.3,0.001447678,-0.00100708,0.003713608,0,
00:05.3,0.001361847,-0.001024246,0.003770828,0,
00:05.3,0.001379013,-0.001012802,0.003787994,0,
00:05.3,0.0014534,-0.00097847,0.003742218,0,
00:05.3,0.001413345,-0.00100708,0.003753662,0,
00:05.3,0.001401901,-0.001041412,0.003770828,0,
00:05.3,0.001401901,-0.001018524,0.00377655,0,
00:05.3,0.001390457,-0.001024246,0.003782272,0,
00:05.3,0.001407623,-0.001029968,0.003782272,0,
00:05.3,0.001401901,-0.000984192,0.003782272,0,
00:05.3,0.001413345,-0.000967026,0.003759384,0,
00:05.3,0.001407623,-0.001012802,0.003765106,0,
00:05.3,0.001396179,-0.001047134,0.003782272,0,
00:05.4,0.001350403,-0.001024246,0.003793716,0,
00:05.4,0.001344681,-0.000989914,0.003810883,0,
00:05.4,0.001430511,-0.00097847,0.003770828,0,
00:05.4,0.001419067,-0.000995636,0.003753662,0,
00:05.4,0.001361847,-0.001001358,0.003770828,0,
00:05.4,0.001333237,-0.001001358,0.003833771,0,
00:05.4,0.001407623,-0.001012802,0.003862381,0,
00:05.4,0.001430511,-0.001001358,0.00374794,0,
00:05.4,0.001424789,-0.00100708,0.003742218,0,
00:05.4,0.001424789,-0.001001358,0.003730774,0,
00:05.4,0.001407623,-0.001024246,0.003753662,0,
00:05.4,0.001396179,-0.001018524,0.003770828,0,
00:05.4,0.001361847,-0.00100708,0.003822327,0,
00:05.4,0.001373291,-0.001018524,0.003793716,0,
00:05.4,0.001407623,-0.000984192,0.003736496,0,
00:05.4,0.001419067,-0.000972748,0.003753662,0,
00:05.4,0.001401901,-0.001001358,0.003765106,0,
00:05.4,0.001407623,-0.001001358,0.00377655,0,
00:05.4,0.001384735,-0.001024246,0.003759384,0,
00:05.4,0.001361847,-0.001047134,0.00377655,0,
00:05.4,0.001401901,-0.001029968,0.003782272,0,
00:05.4,0.001407623,-0.000995636,0.00377655,0,
00:05.4,0.001401901,-0.000995636,0.003787994,0,
00:05.4,0.001401901,-0.000984192,0.003793716,0,
00:05.4,0.001361847,-0.001001358,0.003770828,0,
00:05.5,0.001384735,-0.001018524,0.003765106,0,
00:05.5,0.001401901,-0.001012802,0.003770828,0,
00:05.5,0.001373291,-0.00100708,0.003782272,0,
00:05.5,0.001338959,-0.001001358,0.003822327,0,
00:05.5,0.001413345,-0.00100708,0.003845215,0,
00:05.5,0.001436234,-0.000995636,0.003742218,0,
00:05.5,0.001413345,-0.000989914,0.003713608,0,
00:05.5,0.001361847,-0.001001358,0.00374794,0,
00:05.5,0.001361847,-0.001012802,0.003770828,0,
00:05.5,0.001396179,-0.001024246,0.003765106,0,
00:05.5,0.001413345,-0.001018524,0.003759384,0,
00:05.5,0.001419067,-0.000995636,0.003753662,0,
00:05.5,0.001407623,-0.00097847,0.003759384,0,
00:05.5,0.001401901,-0.000995636,0.003765106,0,
00:05.5,0.001384735,-0.001012802,0.00377655,0,
00:05.5,0.001396179,-0.001012802,0.003793716,0,
00:05.5,0.001373291,-0.001041412,0.00377655,0,
00:05.5,0.001384735,-0.001024246,0.003765106,0,
00:05.5,0.001401901,-0.001029968,0.003765106,0,
00:05.5,0.001407623,-0.00097847,0.00377655,0,
00:05.5,0.001384735,-0.000984192,0.003770828,0,
00:05.5,0.001338959,-0.001001358,0.00377655,0,
00:05.5,0.001390457,-0.001012802,0.00377655,0,
00:05.5,0.001390457,-0.001012802,0.003805161,0,
00:05.5,0.001333237,-0.001029968,0.003856659,0,
00:05.6,0.00128746,-0.001029968,0.003828049,0,
00:05.6,0.001476288,-0.000984192,0.003707886,0,
00:05.6,0.001441956,-0.000984192,0.003713608,0,
00:05.6,0.001413345,-0.000989914,0.003759384,0,
00:05.6,0.001350403,-0.001012802,0.003810883,0,
00:05.6,0.001367569,-0.001041412,0.003770828,0,
00:05.6,0.001424789,-0.001018524,0.003736496,0,
00:05.6,0.001419067,-0.000989914,0.003753662,0,
00:05.6,0.001413345,-0.000989914,0.003765106,0,
00:05.6,0.001396179,-0.001001358,0.003770828,0,
00:05.6,0.001396179,-0.001018524,0.003765106,0,
00:05.6,0.001390457,-0.001001358,0.003765106,0,
00:05.6,0.001356125,-0.00100708,0.003787994,0,
00:05.6,0.001367569,-0.001024246,0.003793716,0,
00:05.6,0.001384735,-0.001018524,0.003765106,0,
00:05.6,0.001419067,-0.001001358,0.003759384,0,
00:05.6,0.001407623,-0.000989914,0.003759384,0,
00:05.6,0.001401901,-0.001001358,0.003770828,0,
00:05.6,0.001373291,-0.001018524,0.003782272,0,
00:05.6,0.001390457,-0.00100708,0.003793716,0,
00:05.6,0.001407623,-0.000984192,0.003805161,0,
00:05.6,0.001373291,-0.001018524,0.00377655,0,
00:05.6,0.001356125,-0.001012802,0.003742218,0,
00:05.6,0.001293182,-0.001018524,0.00377655,0,
00:05.6,0.001390457,-0.001018524,0.003793716,0,
00:05.7,0.001419067,-0.000989914,0.00374794,0,
00:05.7,0.001407623,-0.000995636,0.003765106,0,
00:05.7,0.001373291,-0.000995636,0.003787994,0,
00:05.7,0.001379013,-0.00100708,0.003787994,0,
00:05.7,0.001419067,-0.00100708,0.00374794,0,
00:05.7,0.001401901,-0.000995636,0.003759384,0,
00:05.7,0.001384735,-0.000989914,0.003782272,0,
00:05.7,0.001401901,-0.001012802,0.003787994,0,
00:05.7,0.001384735,-0.001018524,0.003765106,0,
00:05.7,0.001396179,-0.001018524,0.003765106,0,
00:05.7,0.001390457,-0.001029968,0.003770828,0,
00:05.7,0.001384735,-0.001012802,0.003782272,0,
00:05.7,0.001396179,-0.000995636,0.003782272,0,
00:05.7,0.001384735,-0.001018524,0.003753662,0,
00:05.7,0.001361847,-0.001064301,0.003765106,0,
00:05.7,0.001373291,-0.001024246,0.003770828,0,
00:05.7,0.001373291,-0.000967026,0.00377655,0,
00:05.7,0.001384735,-0.000967026,0.003787994,0,
00:05.7,0.001373291,-0.000995636,0.003839493,0,
00:05.7,0.001298904,-0.001012802,0.003845215,0,
00:05.7,0.001361847,-0.001024246,0.003770828,0,
00:05.7,0.0014534,-0.001018524,0.003696442,0,
00:05.7,0.001413345,-0.001001358,0.003742218,0,
00:05.7,0.001384735,-0.000995636,0.003765106,0,
00:05.7,0.001373291,-0.000989914,0.003782272,0,
00:05.8,0.001407623,-0.001024246,0.003782272,0,
00:05.8,0.001384735,-0.001041412,0.003770828,0,
00:05.8,0.001384735,-0.001029968,0.003782272,0,
00:05.8,0.001396179,-0.000961304,0.003770828,0,
00:05.8,0.001373291,-0.00097847,0.003765106,0,
00:05.8,0.001356125,-0.001047134,0.003770828,0,
00:05.8,0.001401901,-0.001024246,0.003770828,0,
00:05.8,0.001407623,-0.000972748,0.003765106,0,
00:05.8,0.001396179,-0.000972748,0.003759384,0,
00:05.8,0.001367569,-0.000995636,0.003770828,0,
00:05.8,0.001384735,-0.001024246,0.003787994,0,
00:05.8,0.001373291,-0.001018524,0.003799438,0,
00:05.8,0.001367569,-0.000989914,0.003782272,0,
00:05.8,0.001327515,-0.00100708,0.003822327,0,
00:05.8,0.001379013,-0.00100708,0.003787994,0,
00:05.8,0.001390457,-0.000995636,0.003730774,0,
00:05.8,0.001379013,-0.001012802,0.003765106,0,
00:05.8,0.001361847,-0.001024246,0.003770828,0,
00:05.8,0.001390457,-0.001001358,0.003782272,0,
00:05.8,0.001390457,-0.000995636,0.003759384,0,
00:05.8,0.001384735,-0.001012802,0.003759384,0,
00:05.8,0.001384735,-0.001012802,0.00377655,0,
00:05.8,0.001401901,-0.001012802,0.00377655,0,
00:05.8,0.001401901,-0.000984192,0.003753662,0,
00:05.8,0.001396179,-0.000984192,0.003759384,0,
00:05.9,0.001390457,-0.000995636,0.003765106,0,
00:05.9,0.001384735,-0.001001358,0.003765106,0,
00:05.9,0.001367569,-0.001047134,0.003782272,0,
00:05.9,0.001361847,-0.001070023,0.003770828,0,
00:05.9,0.001373291,-0.001012802,0.00377655,0,
00:05.9,0.001356125,-0.000955582,0.003816605,0,
00:05.9,0.001310349,-0.001001358,0.003845215,0,
00:05.9,0.00128746,-0.001029968,0.003828049,0,
00:05.9,0.001470566,-0.000989914,0.003702164,0,
00:05.9,0.001407623,-0.000995636,0.00371933,0,
00:05.9,0.001396179,-0.000995636,0.003765106,0,
00:05.9,0.001356125,-0.001018524,0.00377655,0,
00:05.9,0.001344681,-0.001024246,0.003770828,0,
00:05.9,0.001396179,-0.00100708,0.003765106,0,
00:05.9,0.001407623,-0.000989914,0.003759384,0,
00:05.9,0.001396179,-0.001001358,0.003770828,0,
00:05.9,0.001396179,-0.001001358,0.00377655,0,
00:05.9,0.001390457,-0.001018524,0.003765106,0,
00:05.9,0.001379013,-0.00103569,0.003770828,0,
00:05.9,0.001379013,-0.000989914,0.003765106,0,
00:05.9,0.001384735,-0.000995636,0.003770828,0,
00:05.9,0.001373291,-0.001024246,0.003782272,0,
00:05.9,0.001356125,-0.001018524,0.003810883,0,
00:05.9,0.001344681,-0.000984192,0.003765106,0,
00:05.9,0.001379013,-0.000989914,0.00377655,0,
00:06.0,0.001401901,-0.00100708,0.003759384,0,
00:06.0,0.001401901,-0.001018524,0.003765106,0,
00:06.0,0.001356125,-0.00100708,0.003759384,0,
00:06.0,0.001333237,-0.001001358,0.003787994,0,
00:06.0,0.001356125,-0.000995636,0.003805161,0,
00:06.0,0.001396179,-0.001001358,0.003810883,0,
00:06.0,0.001424789,-0.001012802,0.003730774,0,
00:06.0,0.001379013,-0.00103569,0.003736496,0,
00:06.0,0.001373291,-0.00103569,0.003753662,0,
00:06.0,0.001384735,-0.001018524,0.003765106,0,
00:06.0,0.001379013,-0.001001358,0.003765106,0,
00:06.0,0.001367569,-0.00100708,0.003770828,0,
00:00:06,0.001379013,-0.00100708,0.003765106,0,
00:06.0,0.001373291,-0.000989914,0.003759384,0,
00:06.0,0.001361847,-0.000989914,0.003770828,0,
00:06.0,0.001390457,-0.000995636,0.003770828,0,
00:06.0,0.001379013,-0.001018524,0.003787994,0,
00:06.0,0.001379013,-0.001024246,0.003793716,0,
00:06.0,0.001367569,-0.00100708,0.003753662,0,
00:06.0,0.001350403,-0.00100708,0.00377655,0,
00:06.0,0.001327515,-0.001029968,0.003787994,0,
00:06.0,0.001338959,-0.00103569,0.003765106,0,
00:06.0,0.001396179,-0.00100708,0.003765106,0,
00:06.0,0.001396179,-0.001001358,0.003816605,0,
00:06.0,0.001316071,-0.001024246,0.003816605,0,
00:06.1,0.001396179,-0.000984192,0.00377655,0,
00:06.1,0.001430511,-0.000989914,0.003713608,0,
00:06.1,0.001384735,-0.00100708,0.00374794,0,
00:06.1,0.001361847,-0.001024246,0.003753662,0,
00:06.1,0.001384735,-0.001029968,0.003753662,0,
00:06.1,0.001396179,-0.001012802,0.003770828,0,
00:06.1,0.001379013,-0.00100708,0.003765106,0,
00:06.1,0.001373291,-0.00100708,0.003770828,0,
00:06.1,0.001384735,-0.000995636,0.003765106,0,
00:06.1,0.001379013,-0.001001358,0.003770828,0,
00:06.1,0.001350403,-0.001024246,0.003782272,0,
00:06.1,0.001361847,-0.001024246,0.003770828,0,
00:06.1,0.001384735,-0.000989914,0.003759384,0,
00:06.1,0.001367569,-0.00100708,0.003770828,0,
00:06.1,0.001361847,-0.001001358,0.003770828,0,
00:06.1,0.001396179,-0.001001358,0.003770828,0,
00:06.1,0.001373291,-0.001001358,0.003770828,0,
00:06.1,0.001304626,-0.001001358,0.003799438,0,
00:06.1,0.001316071,-0.001024246,0.003890991,0,
00:06.1,0.001413345,-0.00103569,0.00377655,0,
00:06.1,0.001419067,-0.001029968,0.00369072,0,
00:06.1,0.001384735,-0.00103569,0.003736496,0,
00:06.1,0.001327515,-0.001012802,0.003782272,0,
00:06.1,0.001367569,-0.001024246,0.003770828,0,
00:06.1,0.001419067,-0.00100708,0.003730774,0,
00:06.2,0.001396179,-0.000995636,0.003759384,0,
00:06.2,0.001384735,-0.00097847,0.003765106,0,
00:06.2,0.001384735,-0.000989914,0.003759384,0,
00:06.2,0.001379013,-0.00100708,0.003759384,0,
00:06.2,0.001356125,-0.001024246,0.003770828,0,
00:06.2,0.001344681,-0.00103569,0.00377655,0,
00:06.2,0.001373291,-0.00100708,0.003770828,0,
00:06.2,0.001367569,-0.001018524,0.003770828,0,
00:06.2,0.001384735,-0.001024246,0.003759384,0,
00:06.2,0.001384735,-0.000989914,0.003759384,0,
00:06.2,0.001373291,-0.000995636,0.003759384,0,
00:06.2,0.001361847,-0.001001358,0.003770828,0,
00:06.2,0.001270294,-0.00100708,0.003833771,0,
00:06.2,0.00128746,-0.001052856,0.003885269,0,
00:06.2,0.001407623,-0.001012802,0.003730774,0,
00:06.2,0.001441956,-0.001001358,0.003707886,0,
00:06.2,0.001413345,-0.001024246,0.003742218,0,
00:06.2,0.001379013,-0.001029968,0.003765106,0,
00:06.2,0.001361847,-0.001024246,0.003770828,0,
00:06.2,0.001379013,-0.001012802,0.003787994,0,
00:06.2,0.001361847,-0.001029968,0.00377655,0,
00:06.2,0.001361847,-0.001029968,0.003753662,0,
00:06.2,0.001356125,-0.00100708,0.00377655,0,
00:06.2,0.001396179,-0.000972748,0.003753662,0,
00:06.2,0.001379013,-0.000995636,0.003759384,0,
00:06.3,0.001367569,-0.001018524,0.003770828,0,
00:06.3,0.001367569,-0.001029968,0.003770828,0,
00:06.3,0.001361847,-0.001001358,0.003759384,0,
00:06.3,0.001384735,-0.00097847,0.00377655,0,
00:06.3,0.001390457,-0.001001358,0.00377655,0,
00:06.3,0.001361847,-0.001012802,0.003759384,0,
00:06.3,0.001281738,-0.001041412,0.003782272,0,
00:06.3,0.001333237,-0.001024246,0.003828049,0,
00:06.3,0.001384735,-0.001001358,0.00377655,0,
00:06.3,0.001356125,-0.000995636,0.003787994,0,
00:06.3,0.001356125,-0.00100708,0.003782272,0,
00:06.3,0.001401901,-0.001018524,0.003707886,0,
00:06.3,0.001379013,-0.001052856,0.00374794,0,
00:06.3,0.001333237,-0.001047134,0.00377655,0,
00:06.3,0.001327515,-0.000995636,0.003822327,0,
00:06.3,0.001407623,-0.000995636,0.003765106,0,
00:06.3,0.001413345,-0.00100708,0.003753662,0,
00:06.3,0.001379013,-0.001018524,0.003765106,0,
00:06.3,0.001367569,-0.000995636,0.00374794,0,
00:06.3,0.001356125,-0.00100708,0.003770828,0,
00:06.3,0.001356125,-0.001029968,0.00377655,0,
00:06.3,0.001361847,-0.001018524,0.003765106,0,
00:06.3,0.001367569,-0.001012802,0.003753662,0,
00:06.3,0.001367569,-0.00100708,0.003770828,0,
00:06.3,0.001361847,-0.00100708,0.003770828,0,
00:06.4,0.001350403,-0.001012802,0.003770828,0,
00:06.4,0.001321793,-0.001024246,0.003787994,0,
00:06.4,0.001361847,-0.001012802,0.003822327,0,
00:06.4,0.001379013,-0.000995636,0.00377655,0,
00:06.4,0.001321793,-0.001024246,0.003759384,0,
00:06.4,0.001276016,-0.001047134,0.003799438,0,
00:06.4,0.001338959,-0.001029968,0.003787994,0,
00:06.4,0.001407623,-0.001001358,0.003753662,0,
00:06.4,0.001424789,-0.000984192,0.003713608,0,
00:06.4,0.001384735,-0.001001358,0.003742218,0,
00:06.4,0.001356125,-0.001041412,0.003765106,0,
00:06.4,0.001350403,-0.001052856,0.00377655,0,
00:06.4,0.001367569,-0.001024246,0.003753662,0,
00:06.4,0.001379013,-0.00097847,0.003759384,0,
00:06.4,0.001379013,-0.000972748,0.003753662,0,
00:06.4,0.001367569,-0.000984192,0.003770828,0,
00:06.4,0.001356125,-0.000995636,0.003770828,0,
00:06.4,0.001361847,-0.001024246,0.003765106,0,
00:06.4,0.001356125,-0.001029968,0.003759384,0,
00:06.4,0.001333237,-0.001024246,0.003782272,0,
00:06.4,0.001310349,-0.001047134,0.003822327,0,
00:06.4,0.001298904,-0.001029968,0.003868103,0,
00:06.4,0.001361847,-0.001001358,0.003742218,0,
00:06.4,0.001384735,-0.000984192,0.003696442,0,
00:06.4,0.001401901,-0.00100708,0.003742218,0,
00:06.5,0.001379013,-0.001024246,0.00374794,0,
00:06.5,0.001333237,-0.00103569,0.00377655,0,
00:06.5,0.001321793,-0.001047134,0.003805161,0,
00:06.5,0.001379013,-0.001012802,0.003736496,0,
00:06.5,0.001367569,-0.00100708,0.00374794,0,
00:06.5,0.001356125,-0.000995636,0.003770828,0,
00:06.5,0.001373291,-0.000995636,0.003765106,0,
00:06.5,0.001379013,-0.001018524,0.003753662,0,
00:06.5,0.001361847,-0.001018524,0.003759384,0,
00:06.5,0.001350403,-0.00103569,0.003770828,0,
00:06.5,0.001327515,-0.001087189,0.003770828,0,
00:06.5,0.001350403,-0.00100708,0.003765106,0,
00:06.5,0.001356125,-0.00097847,0.003765106,0,
00:06.5,0.001304626,-0.00097847,0.003805161,0,
00:06.5,0.001321793,-0.001018524,0.003833771,0,
00:06.5,0.001373291,-0.001018524,0.003770828,0,
00:06.5,0.001379013,-0.00100708,0.003765106,0,
00:06.5,0.001338959,-0.001018524,0.003753662,0,
00:06.5,0.001270294,-0.001024246,0.00374794,0,
00:06.5,0.001396179,-0.001012802,0.003759384,0,
00:06.5,0.001367569,-0.001012802,0.00374794,0,
00:06.5,0.001338959,-0.00103569,0.003770828,0,
00:06.5,0.001384735,-0.001024246,0.003759384,0,
00:06.5,0.001373291,-0.001012802,0.003753662,0,
00:06.5,0.001350403,-0.001024246,0.003759384,0,
00:06.6,0.001344681,-0.00103569,0.003759384,0,
00:06.6,0.001350403,-0.001024246,0.003770828,0,
00:06.6,0.001356125,-0.00100708,0.003770828,0,
00:06.6,0.001361847,-0.001001358,0.003770828,0,
00:06.6,0.001310349,-0.001024246,0.003793716,0,
00:06.6,0.001327515,-0.001052856,0.00377655,0,
00:06.6,0.001379013,-0.001012802,0.003759384,0,
00:06.6,0.001361847,-0.000989914,0.003765106,0,
00:06.6,0.001356125,-0.001001358,0.003793716,0,
00:06.6,0.001356125,-0.000995636,0.003787994,0,
00:06.6,0.001379013,-0.00100708,0.00374794,0,
00:06.6,0.001361847,-0.001018524,0.00374794,0,
00:06.6,0.001356125,-0.00100708,0.003782272,0,
00:06.6,0.001316071,-0.001012802,0.003782272,0,
00:06.6,0.001281738,-0.001041412,0.003770828,0,
00:06.6,0.001310349,-0.001018524,0.003753662,0,
00:06.6,0.001379013,-0.001012802,0.00377655,0,
00:06.6,0.001356125,-0.001012802,0.003765106,0,
00:06.6,0.001350403,-0.001018524,0.003770828,0,
00:06.6,0.001384735,-0.001018524,0.003765106,0,
00:06.6,0.001350403,-0.001029968,0.003782272,0,
00:06.6,0.001310349,-0.001029968,0.003787994,0,
00:06.6,0.001350403,-0.001024246,0.00374794,0,
00:06.6,0.001356125,-0.00103569,0.00374794,0,
00:06.6,0.001338959,-0.001029968,0.00377655,0,
00:06.7,0.001338959,-0.001012802,0.003799438,0,
00:06.7,0.001350403,-0.001012802,0.003805161,0,
00:06.7,0.001333237,-0.001024246,0.003770828,0,
00:06.7,0.001361847,-0.00100708,0.003770828,0,
00:06.7,0.001373291,-0.000995636,0.003753662,0,
00:06.7,0.001350403,-0.001012802,0.003742218,0,
00:06.7,0.001333237,-0.00103569,0.003765106,0,
00:06.7,0.001241684,-0.001052856,0.003816605,0,
00:06.7,0.001298904,-0.001024246,0.003793716,0,
00:06.7,0.001407623,-0.000989914,0.003759384,0,
00:06.7,0.001379013,-0.001012802,0.003765106,0,
00:06.7,0.001344681,-0.001012802,0.003759384,0,
00:06.7,0.001356125,-0.00100708,0.003753662,0,
00:06.7,0.001367569,-0.001018524,0.003759384,0,
00:06.7,0.001344681,-0.00103569,0.003782272,0,
00:06.7,0.001350403,-0.001018524,0.003782272,0,
00:06.7,0.001333237,-0.001012802,0.003765106,0,
00:06.7,0.001344681,-0.00103569,0.003770828,0,
00:06.7,0.001361847,-0.001029968,0.003770828,0,
00:06.7,0.001333237,-0.001018524,0.003759384,0,
00:06.7,0.001344681,-0.001012802,0.00377655,0,
00:06.7,0.001321793,-0.001001358,0.003799438,0,
00:06.7,0.001338959,-0.00100708,0.003793716,0,
00:06.7,0.001350403,-0.00100708,0.003759384,0,
00:06.7,0.001293182,-0.001058578,0.003770828,0,
00:06.8,0.001316071,-0.001052856,0.003765106,0,
00:06.8,0.001350403,-0.001018524,0.003759384,0,
00:06.8,0.001327515,-0.001001358,0.003753662,0,
00:06.8,0.001367569,-0.001012802,0.003759384,0,
00:06.8,0.001367569,-0.001024246,0.003759384,0,
00:06.8,0.001356125,-0.001018524,0.00374794,0,
00:06.8,0.001350403,-0.00100708,0.003759384,0,
00:06.8,0.001350403,-0.001012802,0.00377655,0,
00:06.8,0.001338959,-0.001024246,0.003770828,0,
00:06.8,0.001316071,-0.001029968,0.003793716,0,
00:06.8,0.001304626,-0.001024246,0.003799438,0,
00:06.8,0.001321793,-0.001047134,0.003799438,0,
00:06.8,0.001344681,-0.001041412,0.003753662,0,
00:06.8,0.001356125,-0.000984192,0.00374794,0,
00:06.8,0.001344681,-0.000989914,0.003759384,0,
00:06.8,0.001316071,-0.00100708,0.003759384,0,
00:06.8,0.001373291,-0.001018524,0.003799438,0,
00:06.8,0.001344681,-0.001041412,0.00374794,0,
00:06.8,0.001321793,-0.001052856,0.003759384,0,
00:06.8,0.00128746,-0.001041412,0.00377655,0,
00:06.8,0.001367569,-0.000984192,0.003753662,0,
00:06.8,0.001361847,-0.000995636,0.003753662,0,
00:06.8,0.001310349,-0.001018524,0.003770828,0,
00:06.8,0.001310349,-0.001024246,0.003787994,0,
00:06.8,0.001327515,-0.001024246,0.003765106,0,
00:06.9,0.001356125,-0.001024246,0.003759384,0,
00:06.9,0.001367569,-0.001012802,0.003753662,0,
00:06.9,0.001327515,-0.001029968,0.00377655,0,
00:06.9,0.001344681,-0.001024246,0.003765106,0,
00:06.9,0.001344681,-0.001024246,0.003765106,0,
00:06.9,0.001310349,-0.001024246,0.003770828,0,
00:06.9,0.001281738,-0.001024246,0.003828049,0,
00:06.9,0.001344681,-0.001012802,0.003765106,0,
00:06.9,0.001344681,-0.001047134,0.003736496,0,
00:06.9,0.001350403,-0.001041412,0.003753662,0,
00:06.9,0.001327515,-0.001001358,0.003753662,0,
00:06.9,0.001338959,-0.000995636,0.003770828,0,
00:06.9,0.001304626,-0.001024246,0.003799438,0,
00:06.9,0.001276016,-0.001047134,0.003799438,0,
00:06.9,0.001361847,-0.001024246,0.003765106,0,
00:06.9,0.001367569,-0.000984192,0.003713608,0,
00:06.9,0.001338959,-0.000995636,0.003736496,0,
00:06.9,0.001356125,-0.000995636,0.003742218,0,
00:06.9,0.001327515,-0.00100708,0.003753662,0,
00:06.9,0.001356125,-0.001024246,0.003753662,0,
00:06.9,0.001350403,-0.001024246,0.003742218,0,
00:06.9,0.001333237,-0.001024246,0.00374794,0,
00:06.9,0.001321793,-0.00103569,0.003753662,0,
00:06.9,0.001321793,-0.001041412,0.00374794,0,
00:06.9,0.001338959,-0.001012802,0.00374794,0,
00:07.0,0.001350403,-0.001012802,0.00374794,0,
00:07.0,0.001327515,-0.001012802,0.003759384,0,
00:07.0,0.001321793,-0.001018524,0.00374794,0,
00:07.0,0.001344681,-0.001047134,0.00374794,0,
00:07.0,0.001338959,-0.001041412,0.003765106,0,
00:07.0,0.001304626,-0.001018524,0.003765106,0,
00:07.0,0.001224518,-0.001012802,0.003787994,0,
00:07.0,0.001344681,-0.001029968,0.003805161,0,
00:07.0,0.001384735,-0.00100708,0.003707886,0,
00:07.0,0.001304626,-0.001001358,0.003725052,0,
00:07.0,0.001333237,-0.001018524,0.003782272,0,
00:07.0,0.001379013,-0.000995636,0.003707886,0,
00:00:07,0.001361847,-0.001001358,0.003713608,0,
00:07.0,0.001344681,-0.001024246,0.003736496,0,
00:07.0,0.001327515,-0.00103569,0.003742218,0,
00:07.0,0.001321793,-0.001024246,0.003736496,0,
00:07.0,0.001321793,-0.00100708,0.003753662,0,
00:07.0,0.001344681,-0.001012802,0.00374794,0,
00:07.0,0.001350403,-0.001018524,0.003736496,0,
00:07.0,0.001310349,-0.001024246,0.003770828,0,
00:07.0,0.001213074,-0.001052856,0.00377655,0,
00:07.0,0.001350403,-0.001064301,0.00374794,0,
00:07.0,0.001361847,-0.001018524,0.003725052,0,
00:07.0,0.001344681,-0.000972748,0.003753662,0,
00:07.0,0.001350403,-0.001001358,0.003759384,0,
00:07.1,0.001310349,-0.001058578,0.003742218,0,
00:07.1,0.001327515,-0.001029968,0.003799438,0,
00:07.1,0.001356125,-0.001012802,0.003725052,0,
00:07.1,0.001338959,-0.001029968,0.003707886,0,
00:07.1,0.001338959,-0.001018524,0.003730774,0,
00:07.1,0.001327515,-0.001018524,0.003736496,0,
00:07.1,0.001327515,-0.001018524,0.003736496,0,
00:07.1,0.001333237,-0.001001358,0.003730774,0,
00:07.1,0.001344681,-0.001018524,0.00374794,0,
00:07.1,0.001327515,-0.001047134,0.00374794,0,
00:07.1,0.001321793,-0.001041412,0.00374794,0,
00:07.1,0.001310349,-0.00103569,0.003730774,0,
00:07.1,0.001304626,-0.001024246,0.00374794,0,
00:07.1,0.001304626,-0.001018524,0.003759384,0,
00:07.1,0.001293182,-0.00100708,0.003787994,0,
00:07.1,0.001310349,-0.001012802,0.00377655,0,
00:07.1,0.001356125,-0.001018524,0.003725052,0,
00:07.1,0.001350403,-0.00103569,0.003725052,0,
00:07.1,0.001316071,-0.001041412,0.003725052,0,
00:07.1,0.001344681,-0.001041412,0.003725052,0,
00:07.1,0.001350403,-0.00103569,0.003736496,0,
00:07.1,0.001321793,-0.001041412,0.003759384,0,
00:07.1,0.001304626,-0.001024246,0.003736496,0,
00:07.1,0.001344681,-0.00100708,0.00371933,0,
00:07.1,0.001321793,-0.001018524,0.003725052,0,
00:07.2,0.001321793,-0.001029968,0.00371933,0,
00:07.2,0.001321793,-0.001029968,0.003742218,0,
00:07.2,0.001333237,-0.001024246,0.003742218,0,
00:07.2,0.001333237,-0.001029968,0.003736496,0,
00:07.2,0.001327515,-0.001047134,0.003736496,0,
00:07.2,0.001321793,-0.001024246,0.003736496,0,
00:07.2,0.001327515,-0.001024246,0.003759384,0,
00:07.2,0.001321793,-0.001024246,0.00377655,0,
00:07.2,0.001316071,-0.00100708,0.003736496,0,
00:07.2,0.001333237,-0.001012802,0.003713608,0,
00:07.2,0.001333237,-0.001018524,0.003725052,0,
00:07.2,0.001270294,-0.001029968,0.003736496,0,
00:07.2,0.00128746,-0.001024246,0.003782272,0,
00:07.2,0.001350403,-0.001041412,0.003730774,0,
00:07.2,0.001298904,-0.001047134,0.003736496,0,
00:07.2,0.001264572,-0.001041412,0.003839493,0,
00:07.2,0.001344681,-0.001029968,0.003725052,0,
00:07.2,0.001373291,-0.001018524,0.003662109,0,
00:07.2,0.001356125,-0.001018524,0.00371933,0,
00:07.2,0.001333237,-0.001024246,0.003730774,0,
00:07.2,0.001316071,-0.001024246,0.003765106,0,
00:07.2,0.001316071,-0.001012802,0.00374794,0,
00:07.2,0.001344681,-0.001001358,0.003707886,0,
00:07.2,0.001327515,-0.001029968,0.003730774,0,
00:07.2,0.001316071,-0.001047134,0.003736496,0,
00:07.3,0.001310349,-0.001052856,0.003736496,0,
00:07.3,0.001316071,-0.001052856,0.00374794,0,
00:07.3,0.001316071,-0.00103569,0.003742218,0,
00:07.3,0.001298904,-0.001029968,0.003736496,0,
00:07.3,0.001310349,-0.001001358,0.003759384,0,
00:07.3,0.001338959,-0.001012802,0.003736496,0,
00:07.3,0.001333237,-0.001018524,0.00371933,0,
00:07.3,0.001327515,-0.001018524,0.003736496,0,
00:07.3,0.001304626,-0.00103569,0.003742218,0,
00:07.3,0.001316071,-0.001024246,0.00374794,0,
00:07.3,0.001338959,-0.001018524,0.00374794,0,
00:07.3,0.001310349,-0.00103569,0.00374794,0,
00:07.3,0.001235962,-0.001047134,0.003787994,0,
00:07.3,0.001310349,-0.001047134,0.003770828,0,
00:07.3,0.001379013,-0.00100708,0.003673553,0,
00:07.3,0.001361847,-0.001001358,0.003707886,0,
00:07.3,0.001333237,-0.001029968,0.003736496,0,
00:07.3,0.001304626,-0.001047134,0.003713608,0,
00:07.3,0.00128746,-0.00103569,0.003753662,0,
00:07.3,0.001298904,-0.001012802,0.003765106,0,
00:07.3,0.001361847,-0.00100708,0.003713608,0,
00:07.3,0.001327515,-0.001018524,0.003730774,0,
00:07.3,0.001293182,-0.001041412,0.003730774,0,
00:07.3,0.001310349,-0.001052856,0.003725052,0,
00:07.3,0.001321793,-0.001052856,0.003730774,0,
00:07.4,0.001316071,-0.001029968,0.003725052,0,
00:07.4,0.001310349,-0.001029968,0.003730774,0,
00:07.4,0.001338959,-0.001024246,0.003742218,0,
00:07.4,0.001333237,-0.001001358,0.003736496,0,
00:07.4,0.001304626,-0.001018524,0.003730774,0,
00:07.4,0.00125885,-0.00103569,0.003742218,0,
00:07.4,0.001276016,-0.001052856,0.003765106,0,
00:07.4,0.001327515,-0.001064301,0.003787994,0,
00:07.4,0.001327515,-0.001047134,0.003742218,0,
00:07.4,0.00128746,-0.001012802,0.00369072,0,
00:07.4,0.00128746,-0.001018524,0.00374794,0,
00:07.4,0.001316071,-0.001012802,0.003736496,0,
00:07.4,0.001316071,-0.001024246,0.003759384,0,
00:07.4,0.001356125,-0.001024246,0.00371933,0,
00:07.4,0.001350403,-0.00100708,0.003702164,0,
00:07.4,0.001321793,-0.001024246,0.00371933,0,
00:07.4,0.001310349,-0.001047134,0.003725052,0,
00:07.4,0.001310349,-0.00103569,0.003730774,0,
00:07.4,0.001310349,-0.001029968,0.003730774,0,
00:07.4,0.001321793,-0.001024246,0.003730774,0,
00:07.4,0.001321793,-0.001029968,0.003725052,0,
00:07.4,0.001310349,-0.001029968,0.003736496,0,
00:07.4,0.00128746,-0.001052856,0.003759384,0,
00:07.4,0.001281738,-0.001075745,0.003753662,0,
00:07.4,0.001293182,-0.001087189,0.003713608,0,
00:07.5,0.001316071,-0.001047134,0.003742218,0,
00:07.5,0.001333237,-0.000989914,0.003753662,0,
00:07.5,0.001298904,-0.000995636,0.003787994,0,
00:07.5,0.001264572,-0.001024246,0.003742218,0,
00:07.5,0.001276016,-0.00103569,0.003730774,0,
00:07.5,0.001361847,-0.001024246,0.003702164,0,
00:07.5,0.001310349,-0.001047134,0.003713608,0,
00:07.5,0.00128746,-0.001041412,0.003742218,0,
00:07.5,0.001310349,-0.001018524,0.003730774,0,
00:07.5,0.001356125,-0.001024246,0.003725052,0,
00:07.5,0.001333237,-0.001024246,0.003713608,0,
00:07.5,0.001333237,-0.001018524,0.003742218,0,
00:07.5,0.001304626,-0.001029968,0.00374794,0,
00:07.5,0.001281738,-0.001041412,0.003730774,0,
00:07.5,0.001321793,-0.00103569,0.00371933,0,
00:07.5,0.001316071,-0.00103569,0.003725052,0,
00:07.5,0.001316071,-0.001047134,0.003730774,0,
00:07.5,0.001304626,-0.001052856,0.003742218,0,
00:07.5,0.00128746,-0.001052856,0.003725052,0,
00:07.5,0.001310349,-0.00103569,0.003725052,0,
00:07.5,0.001321793,-0.001012802,0.003730774,0,
00:07.5,0.001293182,-0.001024246,0.003753662,0,
00:07.5,0.001264572,-0.001029968,0.003787994,0,
00:07.5,0.001281738,-0.001041412,0.003793716,0,
00:07.5,0.001293182,-0.001024246,0.00371933,0,
00:07.6,0.001298904,-0.001047134,0.00371933,0,
00:07.6,0.001293182,-0.001047134,0.003713608,0,
00:07.6,0.001350403,-0.001029968,0.003713608,0,
00:07.6,0.001327515,-0.001029968,0.003707886,0,
00:07.6,0.001304626,-0.001024246,0.00371933,0,
00:07.6,0.001321793,-0.001012802,0.003713608,0,
00:07.6,0.001304626,-0.001024246,0.003759384,0,
00:07.6,0.001293182,-0.001052856,0.003753662,0,
00:07.6,0.001298904,-0.001041412,0.003713608,0,
00:07.6,0.001270294,-0.001024246,0.003742218,0,
00:07.6,0.001293182,-0.001012802,0.003753662,0,
00:07.6,0.00128746,-0.001024246,0.003730774,0,
00:07.6,0.001304626,-0.001047134,0.003759384,0,
00:07.6,0.001344681,-0.00103569,0.00374794,0,
00:07.6,0.001321793,-0.001029968,0.003702164,0,
00:07.6,0.001304626,-0.001041412,0.003713608,0,
00:07.6,0.001281738,-0.001052856,0.00374794,0,
00:07.6,0.001310349,-0.001058578,0.003736496,0,
00:07.6,0.001270294,-0.001012802,0.003770828,0,
00:07.6,0.001293182,-0.000995636,0.003736496,0,
00:07.6,0.001344681,-0.001024246,0.003702164,0,
00:07.6,0.001327515,-0.001024246,0.003702164,0,
00:07.6,0.001310349,-0.001041412,0.00371933,0,
00:07.6,0.00128746,-0.001064301,0.003725052,0,
00:07.6,0.001253128,-0.001047134,0.003730774,0,
00:07.7,0.001310349,-0.001012802,0.003730774,0,
00:07.7,0.001338959,-0.000995636,0.003713608,0,
00:07.7,0.001316071,-0.001029968,0.003730774,0,
00:07.7,0.001310349,-0.001041412,0.003725052,0,
00:07.7,0.001304626,-0.001041412,0.003736496,0,
00:07.7,0.001298904,-0.001024246,0.003742218,0,
00:07.7,0.001281738,-0.001012802,0.003736496,0,
00:07.7,0.001276016,-0.001024246,0.003753662,0,
00:07.7,0.001241684,-0.001041412,0.003759384,0,
00:07.7,0.001264572,-0.001052856,0.00377655,0,
00:07.7,0.001298904,-0.00103569,0.003753662,0,
00:07.7,0.001327515,-0.00103569,0.003753662,0,
00:07.7,0.001304626,-0.001041412,0.003696442,0,
00:07.7,0.001304626,-0.001041412,0.003679276,0,
00:07.7,0.001304626,-0.001041412,0.00371933,0,
00:07.7,0.001281738,-0.00103569,0.003730774,0,
00:07.7,0.001218796,-0.001041412,0.00374794,0,
00:07.7,0.001264572,-0.001052856,0.00377655,0,
00:07.7,0.001327515,-0.001029968,0.00371933,0,
00:07.7,0.001293182,-0.001012802,0.00371933,0,
00:07.7,0.001304626,-0.001041412,0.003730774,0,
00:07.7,0.001281738,-0.001070023,0.003753662,0,
00:07.7,0.001310349,-0.001081467,0.003759384,0,
00:07.7,0.001276016,-0.00103569,0.003707886,0,
00:07.7,0.001310349,-0.001018524,0.003725052,0,
00:07.8,0.001327515,-0.00103569,0.003707886,0,
00:07.8,0.00125885,-0.001058578,0.00371933,0,
00:07.8,0.001298904,-0.00103569,0.003707886,0,
00:07.8,0.001327515,-0.001001358,0.00371933,0,
00:07.8,0.001321793,-0.001001358,0.00371933,0,
00:07.8,0.00128746,-0.001012802,0.003725052,0,
00:07.8,0.001224518,-0.001058578,0.003736496,0,
00:07.8,0.001276016,-0.001052856,0.003725052,0,
00:07.8,0.001321793,-0.001018524,0.003713608,0,
00:07.8,0.001304626,-0.00103569,0.003753662,0,
00:07.8,0.001298904,-0.001029968,0.003742218,0,
00:07.8,0.001321793,-0.001012802,0.003696442,0,
00:07.8,0.00128746,-0.00103569,0.003713608,0,
00:07.8,0.001298904,-0.001052856,0.00371933,0,
00:07.8,0.00125885,-0.001041412,0.00374794,0,
00:07.8,0.00125885,-0.001058578,0.003793716,0,
00:07.8,0.001327515,-0.00100708,0.003713608,0,
00:07.8,0.001310349,-0.001018524,0.003725052,0,
00:07.8,0.001264572,-0.001047134,0.00371933,0,
00:07.8,0.001293182,-0.001052856,0.00371933,0,
00:07.8,0.001316071,-0.001052856,0.003702164,0,
00:07.8,0.001224518,-0.001064301,0.00371933,0,
00:07.8,0.001241684,-0.001058578,0.003765106,0,
00:07.8,0.001379013,-0.001001358,0.003713608,0,
00:07.8,0.001321793,-0.00100708,0.003696442,0,
00:07.9,0.001304626,-0.001041412,0.003707886,0,
00:07.9,0.001304626,-0.001058578,0.003713608,0,
00:07.9,0.001298904,-0.001041412,0.003725052,0,
00:07.9,0.001304626,-0.001024246,0.003730774,0,
00:07.9,0.001310349,-0.00100708,0.003713608,0,
00:07.9,0.001293182,-0.001018524,0.003713608,0,
00:07.9,0.001276016,-0.001029968,0.00371933,0,
00:07.9,0.001264572,-0.001052856,0.003736496,0,
00:07.9,0.001276016,-0.001029968,0.003736496,0,
00:07.9,0.001264572,-0.00103569,0.00377655,0,
00:07.9,0.001270294,-0.001064301,0.003702164,0,
00:07.9,0.001281738,-0.00103569,0.003725052,0,
00:07.9,0.001213074,-0.001012802,0.00374794,0,
00:07.9,0.001350403,-0.001024246,0.003736496,0,
00:07.9,0.001390457,-0.001029968,0.003684998,0,
00:07.9,0.001304626,-0.001075745,0.003673553,0,
00:07.9,0.001298904,-0.001047134,0.003673553,0,
00:07.9,0.001298904,-0.001029968,0.003713608,0,
00:07.9,0.001304626,-0.001018524,0.003736496,0,
00:07.9,0.001304626,-0.001018524,0.003725052,0,
00:07.9,0.001298904,-0.001024246,0.003725052,0,
00:07.9,0.00128746,-0.001070023,0.003736496,0,
00:07.9,0.00128746,-0.001087189,0.003725052,0,
00:07.9,0.001293182,-0.001047134,0.003713608,0,
00:07.9,0.001310349,-0.000972748,0.003713608,0,
00:08.0,0.001304626,-0.000989914,0.003713608,0,
00:08.0,0.001276016,-0.00103569,0.003713608,0,
00:08.0,0.001281738,-0.001058578,0.00371933,0,
00:08.0,0.001298904,-0.001024246,0.003725052,0,
00:08.0,0.001293182,-0.001029968,0.00371933,0,
00:08.0,0.001253128,-0.001041412,0.003736496,0,
00:08.0,0.001235962,-0.001064301,0.00377655,0,
00:08.0,0.001264572,-0.001052856,0.003736496,0,
00:08.0,0.001195908,-0.001041412,0.00371933,0,
00:08.0,0.001304626,-0.00103569,0.003753662,0,
00:08.0,0.001310349,-0.001018524,0.003736496,0,
00:08.0,0.001338959,-0.00103569,0.00369072,0,
00:00:08,0.001310349,-0.001064301,0.003684998,0,
00:08.0,0.00128746,-0.001052856,0.003702164,0,
00:08.0,0.001304626,-0.001018524,0.003696442,0,
00:08.0,0.001293182,-0.00103569,0.00371933,0,
00:08.0,0.001281738,-0.001029968,0.003730774,0,
00:08.0,0.001276016,-0.001024246,0.003730774,0,
00:08.0,0.001276016,-0.001058578,0.003713608,0,
00:08.0,0.001304626,-0.001052856,0.003702164,0,
00:08.0,0.001293182,-0.001024246,0.003707886,0,
00:08.0,0.00123024,-0.001029968,0.003736496,0,
00:08.0,0.001218796,-0.001047134,0.003793716,0,
00:08.0,0.001338959,-0.001029968,0.003679276,0,
00:08.0,0.00128746,-0.001041412,0.00369072,0,
00:08.1,0.001247406,-0.001018524,0.003742218,0,
00:08.1,0.001270294,-0.00103569,0.003759384,0,
00:08.1,0.001321793,-0.001041412,0.003696442,0,
00:08.1,0.001293182,-0.001064301,0.003696442,0,
00:08.1,0.00125885,-0.001041412,0.003702164,0,
00:08.1,0.00123024,-0.001024246,0.003753662,0,
00:08.1,0.001281738,-0.00103569,0.00374794,0,
00:08.1,0.001316071,-0.001064301,0.00369072,0,
00:08.1,0.00128746,-0.001075745,0.003713608,0,
00:08.1,0.001264572,-0.001058578,0.00374794,0,
00:08.1,0.001327515,-0.001018524,0.003696442,0,
00:08.1,0.00128746,-0.001012802,0.003696442,0,
00:08.1,0.001281738,-0.001024246,0.003742218,0,
00:08.1,0.001310349,-0.001047134,0.003702164,0,
00:08.1,0.001276016,-0.001047134,0.003702164,0,
00:08.1,0.001264572,-0.00103569,0.003713608,0,
00:08.1,0.00128746,-0.001041412,0.00371933,0,
00:08.1,0.001247406,-0.001058578,0.003742218,0,
00:08.1,0.001235962,-0.001052856,0.00374794,0,
00:08.1,0.001316071,-0.001001358,0.003707886,0,
00:08.1,0.001316071,-0.001024246,0.003713608,0,
00:08.1,0.001276016,-0.001058578,0.003742218,0,
00:08.1,0.001281738,-0.001058578,0.003707886,0,
00:08.1,0.001247406,-0.001024246,0.003725052,0,
00:08.1,0.00123024,-0.00103569,0.003736496,0,
00:08.2,0.001310349,-0.001041412,0.003725052,0,
00:08.2,0.001327515,-0.001041412,0.00371933,0,
00:08.2,0.001270294,-0.00103569,0.003730774,0,
00:08.2,0.001247406,-0.00103569,0.003725052,0,
00:08.2,0.001276016,-0.001047134,0.003713608,0,
00:08.2,0.001316071,-0.001052856,0.00369072,0,
00:08.2,0.00128746,-0.001064301,0.003725052,0,
00:08.2,0.001224518,-0.001075745,0.00371933,0,
00:08.2,0.001241684,-0.001064301,0.00371933,0,
00:08.2,0.001327515,-0.001029968,0.003725052,0,
00:08.2,0.001316071,-0.001018524,0.003713608,0,
00:08.2,0.001298904,-0.001018524,0.003713608,0,
00:08.2,0.001276016,-0.001041412,0.003730774,0,
00:08.2,0.001276016,-0.001047134,0.003736496,0,
00:08.2,0.001281738,-0.00103569,0.003696442,0,
00:08.2,0.001276016,-0.001029968,0.003702164,0,
00:08.2,0.001276016,-0.001041412,0.00371933,0,
00:08.2,0.001281738,-0.00103569,0.003713608,0,
00:08.2,0.00128746,-0.00103569,0.00371933,0,
00:08.2,0.001235962,-0.001064301,0.003730774,0,
00:08.2,0.001253128,-0.001058578,0.00374794,0,
00:08.2,0.001310349,-0.001029968,0.003725052,0,
00:08.2,0.001298904,-0.001024246,0.003702164,0,
00:08.2,0.001241684,-0.001041412,0.00374794,0,
00:08.2,0.001264572,-0.001041412,0.003753662,0,
00:08.3,0.001310349,-0.001029968,0.003673553,0,
00:08.3,0.001304626,-0.00103569,0.00369072,0,
00:08.3,0.001270294,-0.00103569,0.003707886,0,
00:08.3,0.001264572,-0.001029968,0.00371933,0,
00:08.3,0.001281738,-0.001029968,0.003702164,0,
00:08.3,0.00128746,-0.001041412,0.003707886,0,
00:08.3,0.00125885,-0.00103569,0.003730774,0,
00:08.3,0.001264572,-0.001058578,0.003730774,0,
00:08.3,0.001264572,-0.00103569,0.003736496,0,
00:08.3,0.001253128,-0.001058578,0.00374794,0,
00:08.3,0.001276016,-0.001064301,0.003713608,0,
00:08.3,0.001281738,-0.001041412,0.003684998,0,
00:08.3,0.001270294,-0.001052856,0.003696442,0,
00:08.3,0.00120163,-0.001041412,0.003742218,0,
00:08.3,0.001241684,-0.001047134,0.003753662,0,
00:08.3,0.001344681,-0.001024246,0.003684998,0,
00:08.3,0.001293182,-0.001052856,0.003702164,0,
00:08.3,0.001281738,-0.001047134,0.00371933,0,
00:08.3,0.001264572,-0.001041412,0.003736496,0,
00:08.3,0.00125885,-0.001029968,0.003730774,0,
00:08.3,0.001293182,-0.001052856,0.003684998,0,
00:08.3,0.001293182,-0.001029968,0.00369072,0,
00:08.3,0.001281738,-0.001012802,0.00371933,0,
00:08.3,0.001293182,-0.001029968,0.00371933,0,
00:08.3,0.001270294,-0.00103569,0.003707886,0,
00:08.4,0.001276016,-0.00103569,0.003707886,0,
00:08.4,0.00125885,-0.00103569,0.003713608,0,
00:08.4,0.001264572,-0.001058578,0.00371933,0,
00:08.4,0.001264572,-0.001064301,0.00371933,0,
00:08.4,0.00125885,-0.001058578,0.003725052,0,
00:08.4,0.001270294,-0.00103569,0.003707886,0,
00:08.4,0.001270294,-0.00103569,0.003725052,0,
00:08.4,0.00125885,-0.00103569,0.003730774,0,
00:08.4,0.001276016,-0.001041412,0.003713608,0,
00:08.4,0.001241684,-0.001041412,0.003696442,0,
00:08.4,0.00128746,-0.001041412,0.003707886,0,
00:08.4,0.001253128,-0.001064301,0.003713608,0,
00:08.4,0.001235962,-0.001098633,0.003736496,0,
00:08.4,0.001281738,-0.001047134,0.003707886,0,
00:08.4,0.001276016,-0.001012802,0.003707886,0,
00:08.4,0.001293182,-0.001018524,0.003684998,0,
00:08.4,0.00128746,-0.001029968,0.003696442,0,
00:08.4,0.00128746,-0.001029968,0.003696442,0,
00:08.4,0.001276016,-0.001052856,0.003707886,0,
00:08.4,0.001281738,-0.00103569,0.003707886,0,
00:08.4,0.00128746,-0.001024246,0.003707886,0,
00:08.4,0.00125885,-0.001041412,0.003725052,0,
00:08.4,0.00123024,-0.001070023,0.003736496,0,
00:08.4,0.001247406,-0.001075745,0.003713608,0,
00:08.4,0.001276016,-0.001041412,0.003702164,0,
00:08.5,0.001298904,-0.001029968,0.003684998,0,
00:08.5,0.001276016,-0.001018524,0.003707886,0,
00:08.5,0.00125885,-0.00103569,0.003730774,0,
00:08.5,0.001213074,-0.001047134,0.003730774,0,
00:08.5,0.001167297,-0.001064301,0.003753662,0,
00:08.5,0.001281738,-0.001075745,0.003725052,0,
00:08.5,0.001310349,-0.001041412,0.003656387,0,
00:08.5,0.001304626,-0.001041412,0.00369072,0,
00:08.5,0.001241684,-0.001058578,0.003730774,0,
00:08.5,0.001270294,-0.001058578,0.00371933,0,
00:08.5,0.001293182,-0.00103569,0.00369072,0,
00:08.5,0.001276016,-0.00103569,0.00369072,0,
00:08.5,0.001276016,-0.001041412,0.003702164,0,
00:08.5,0.001276016,-0.001024246,0.003702164,0,
00:08.5,0.001281738,-0.001029968,0.003713608,0,
00:08.5,0.001281738,-0.001018524,0.003707886,0,
00:08.5,0.001270294,-0.00103569,0.00371933,0,
00:08.5,0.001247406,-0.001075745,0.003725052,0,
00:08.5,0.001241684,-0.001064301,0.003707886,0,
00:08.5,0.001270294,-0.001029968,0.00371933,0,
00:08.5,0.001207352,-0.001052856,0.003759384,0,
00:08.5,0.001235962,-0.001041412,0.003753662,0,
00:08.5,0.001310349,-0.001024246,0.003673553,0,
00:08.5,0.001304626,-0.001024246,0.003667831,0,
00:08.5,0.001270294,-0.00103569,0.003684998,0,
00:08.6,0.001213074,-0.001070023,0.003742218,0,
00:08.6,0.001235962,-0.001087189,0.003742218,0,
00:08.6,0.001264572,-0.001052856,0.003707886,0,
00:08.6,0.001281738,-0.001024246,0.003702164,0,
00:08.6,0.001298904,-0.001029968,0.003679276,0,
00:08.6,0.001270294,-0.001052856,0.00369072,0,
00:08.6,0.00125885,-0.001064301,0.003702164,0,
00:08.6,0.001276016,-0.001070023,0.003702164,0,
00:08.6,0.001276016,-0.001052856,0.003702164,0,
00:08.6,0.001276016,-0.001018524,0.003702164,0,
00:08.6,0.00125885,-0.001041412,0.00371933,0,
00:08.6,0.00125885,-0.001052856,0.00371933,0,
00:08.6,0.00125885,-0.001070023,0.00369072,0,
00:08.6,0.001264572,-0.001047134,0.003696442,0,
00:08.6,0.001253128,-0.001024246,0.003702164,0,
00:08.6,0.001224518,-0.001029968,0.003730774,0,
00:08.6,0.001247406,-0.00103569,0.003736496,0,
00:08.6,0.00123024,-0.001041412,0.003736496,0,
00:08.6,0.001270294,-0.001052856,0.003696442,0,
00:08.6,0.001270294,-0.001052856,0.003679276,0,
00:08.6,0.001224518,-0.001058578,0.003707886,0,
00:08.6,0.001304626,-0.00103569,0.003725052,0,
00:08.6,0.001270294,-0.001047134,0.003684998,0,
00:08.6,0.001253128,-0.001058578,0.003684998,0,
00:08.6,0.001270294,-0.001029968,0.00371933,0,
00:08.7,0.001276016,-0.001029968,0.003696442,0,
00:08.7,0.001253128,-0.001041412,0.003696442,0,
00:08.7,0.001276016,-0.001058578,0.003702164,0,
00:08.7,0.001224518,-0.001087189,0.003713608,0,
00:08.7,0.00120163,-0.001070023,0.00371933,0,
00:08.7,0.001316071,-0.001029968,0.003679276,0,
00:08.7,0.001293182,-0.001029968,0.003673553,0,
00:08.7,0.001276016,-0.001024246,0.00369072,0,
00:08.7,0.001270294,-0.001018524,0.003696442,0,
00:08.7,0.001253128,-0.001029968,0.003702164,0,
00:08.7,0.001253128,-0.001058578,0.003713608,0,
00:08.7,0.001253128,-0.001087189,0.003702164,0,
00:08.7,0.001253128,-0.001087189,0.003696442,0,
00:08.7,0.001253128,-0.001081467,0.003707886,0,
00:08.7,0.001281738,-0.001018524,0.00371933,0,
00:08.7,0.001264572,-0.001024246,0.003696442,0,
00:08.7,0.001213074,-0.001058578,0.003725052,0,
00:08.7,0.00120163,-0.001047134,0.00377655,0,
00:08.7,0.001241684,-0.00103569,0.003742218,0,
00:08.7,0.001304626,-0.001024246,0.003627777,0,
00:08.7,0.001310349,-0.001024246,0.003656387,0,
00:08.7,0.001281738,-0.001029968,0.003684998,0,
00:08.7,0.001253128,-0.001047134,0.00369072,0,
00:08.7,0.001241684,-0.001081467,0.003702164,0,
00:08.7,0.001241684,-0.001104355,0.00369072,0,
00:08.8,0.001247406,-0.001081467,0.003684998,0,
00:08.8,0.001276016,-0.001012802,0.003696442,0,
00:08.8,0.001270294,-0.001029968,0.003696442,0,
00:08.8,0.001247406,-0.001047134,0.00369072,0,
00:08.8,0.001253128,-0.001041412,0.003702164,0,
00:08.8,0.001270294,-0.001041412,0.003707886,0,
00:08.8,0.001241684,-0.001041412,0.003707886,0,
00:08.8,0.00123024,-0.001047134,0.00369072,0,
00:08.8,0.001276016,-0.001064301,0.003696442,0,
00:08.8,0.001276016,-0.001058578,0.003684998,0,
00:08.8,0.001270294,-0.001024246,0.003684998,0,
00:08.8,0.001253128,-0.001064301,0.003696442,0,
00:08.8,0.001235962,-0.001081467,0.00371933,0,
00:08.8,0.001207352,-0.001070023,0.003787994,0,
00:08.8,0.001253128,-0.001024246,0.003696442,0,
00:08.8,0.001298904,-0.00100708,0.003650665,0,
00:08.8,0.00125885,-0.001029968,0.003667831,0,
00:08.8,0.001207352,-0.001029968,0.003696442,0,
00:08.8,0.001235962,-0.001058578,0.00371933,0,
00:08.8,0.001270294,-0.001064301,0.003673553,0,
00:08.8,0.001281738,-0.001064301,0.003667831,0,
00:08.8,0.001270294,-0.001058578,0.003679276,0,
00:08.8,0.001270294,-0.001041412,0.003684998,0,
00:08.8,0.001264572,-0.001029968,0.00369072,0,
00:08.8,0.001253128,-0.001041412,0.003702164,0,
00:08.9,0.00125885,-0.001064301,0.003702164,0,
00:08.9,0.001241684,-0.001087189,0.003679276,0,
00:08.9,0.001247406,-0.00103569,0.003684998,0,
00:08.9,0.001281738,-0.001012802,0.003684998,0,
00:08.9,0.001264572,-0.001024246,0.003679276,0,
00:08.9,0.001264572,-0.001058578,0.00369072,0,
00:08.9,0.00125885,-0.001052856,0.00369072,0,
00:08.9,0.001253128,-0.001041412,0.003707886,0,
00:08.9,0.001247406,-0.001070023,0.00371933,0,
00:08.9,0.001213074,-0.001075745,0.003679276,0,
00:08.9,0.001276016,-0.001058578,0.003696442,0,
00:08.9,0.001247406,-0.001041412,0.00369072,0,
00:08.9,0.001144409,-0.001058578,0.003713608,0,
00:08.9,0.001218796,-0.001058578,0.003725052,0,
00:08.9,0.001333237,-0.001029968,0.003650665,0,
00:08.9,0.001276016,-0.001058578,0.003684998,0,
00:08.9,0.001247406,-0.001075745,0.003707886,0,
00:08.9,0.001241684,-0.001047134,0.003679276,0,
00:08.9,0.001270294,-0.001018524,0.003656387,0,
00:08.9,0.001281738,-0.001041412,0.003667831,0,
00:08.9,0.001270294,-0.001052856,0.003673553,0,
00:08.9,0.001264572,-0.001041412,0.003673553,0,
00:08.9,0.00125885,-0.00103569,0.003684998,0,
00:08.9,0.00125885,-0.001041412,0.003696442,0,
00:08.9,0.001235962,-0.001058578,0.00369072,0,
00:09.0,0.001241684,-0.001075745,0.003673553,0,
00:09.0,0.001253128,-0.001092911,0.00369072,0,
00:09.0,0.001241684,-0.001064301,0.003696442,0,
00:09.0,0.001264572,-0.001047134,0.003707886,0,
00:09.0,0.001264572,-0.001024246,0.003684998,0,
00:09.0,0.001218796,-0.001041412,0.00369072,0,
00:09.0,0.001150131,-0.001058578,0.00371933,0,
00:09.0,0.001264572,-0.001064301,0.003696442,0,
00:09.0,0.001276016,-0.001058578,0.003684998,0,
00:09.0,0.001253128,-0.001058578,0.003684998,0,
00:09.0,0.001247406,-0.001058578,0.003656387,0,
00:09.0,0.001241684,-0.001052856,0.00369072,0,
00:00:09,0.001293182,-0.001064301,0.003684998,0,
00:09.0,0.001264572,-0.001052856,0.003679276,0,
00:09.0,0.00125885,-0.00103569,0.003673553,0,
00:09.0,0.00125885,-0.001041412,0.003662109,0,
00:09.0,0.00125885,-0.001041412,0.003673553,0,
00:09.0,0.001264572,-0.00103569,0.003673553,0,
00:09.0,0.00125885,-0.001052856,0.003667831,0,
00:09.0,0.001241684,-0.001075745,0.003679276,0,
00:09.0,0.001213074,-0.001081467,0.00371933,0,
00:09.0,0.001184464,-0.001087189,0.003725052,0,
00:09.0,0.001281738,-0.001041412,0.003662109,0,
00:09.0,0.001276016,-0.001058578,0.003656387,0,
00:09.0,0.001218796,-0.001087189,0.003679276,0,
00:09.1,0.001167297,-0.001075745,0.003702164,0,
00:09.1,0.001276016,-0.001041412,0.00369072,0,
00:09.1,0.001276016,-0.001024246,0.003673553,0,
00:09.1,0.001264572,-0.001052856,0.003702164,0,
00:09.1,0.001264572,-0.001047134,0.003639221,0,
00:09.1,0.00125885,-0.001029968,0.003656387,0,
00:09.1,0.00125885,-0.001047134,0.003673553,0,
00:09.1,0.001241684,-0.001058578,0.003696442,0,
00:09.1,0.001224518,-0.001064301,0.003673553,0,
00:09.1,0.001241684,-0.001064301,0.003662109,0,
00:09.1,0.001253128,-0.001081467,0.003667831,0,
00:09.1,0.001264572,-0.001058578,0.003673553,0,
00:09.1,0.00125885,-0.00100708,0.00369072,0,
00:09.1,0.001224518,-0.00103569,0.003696442,0,
00:09.1,0.001224518,-0.001047134,0.003684998,0,
00:09.1,0.00123024,-0.001058578,0.003684998,0,
00:09.1,0.001235962,-0.001087189,0.003684998,0,
00:09.1,0.001184464,-0.001081467,0.003673553,0,
00:09.1,0.001161575,-0.001058578,0.003742218,0,
00:09.1,0.001304626,-0.001052856,0.003684998,0,
00:09.1,0.001298904,-0.001064301,0.003622055,0,
00:09.1,0.00125885,-0.001064301,0.003644943,0,
00:09.1,0.001235962,-0.001041412,0.003667831,0,
00:09.1,0.001247406,-0.001041412,0.003673553,0,
00:09.1,0.00125885,-0.001052856,0.003667831,0,
00:09.2,0.001247406,-0.001075745,0.003673553,0,
00:09.2,0.001241684,-0.001070023,0.003667831,0,
00:09.2,0.001247406,-0.001052856,0.003662109,0,
00:09.2,0.001241684,-0.001058578,0.003684998,0,
00:09.2,0.001224518,-0.001047134,0.003713608,0,
00:09.2,0.001235962,-0.001047134,0.003656387,0,
00:09.2,0.001253128,-0.00103569,0.003650665,0,
00:09.2,0.001270294,-0.001064301,0.003673553,0,
00:09.2,0.00123024,-0.001087189,0.003679276,0,
00:09.2,0.001247406,-0.001058578,0.003673553,0,
00:09.2,0.001235962,-0.001052856,0.003684998,0,
00:09.2,0.001241684,-0.001064301,0.003662109,0,
00:09.2,0.00123024,-0.001047134,0.003667831,0,
00:09.2,0.001241684,-0.001029968,0.003667831,0,
00:09.2,0.001207352,-0.001041412,0.00369072,0,
00:09.2,0.001178741,-0.001064301,0.003736496,0,
00:09.2,0.001235962,-0.001087189,0.003662109,0,
00:09.2,0.001264572,-0.001098633,0.003633499,0,
00:09.2,0.001253128,-0.001070023,0.003679276,0,
00:09.2,0.001281738,-0.001018524,0.003656387,0,
00:09.2,0.001264572,-0.001018524,0.003644943,0,
00:09.2,0.001247406,-0.001024246,0.003656387,0,
00:09.2,0.001253128,-0.001047134,0.003667831,0,
00:09.2,0.001253128,-0.001064301,0.003650665,0,
00:09.2,0.001241684,-0.001087189,0.003679276,0,
00:09.3,0.001241684,-0.001075745,0.003684998,0,
00:09.3,0.001224518,-0.001064301,0.00369072,0,
00:09.3,0.001247406,-0.001041412,0.003650665,0,
00:09.3,0.001241684,-0.001041412,0.003667831,0,
00:09.3,0.001207352,-0.001064301,0.003696442,0,
00:09.3,0.001235962,-0.001092911,0.003650665,0,
00:09.3,0.001253128,-0.001081467,0.003644943,0,
00:09.3,0.001235962,-0.001041412,0.003662109,0,
00:09.3,0.001190186,-0.001041412,0.00369072,0,
00:09.3,0.00120163,-0.001052856,0.003730774,0,
00:09.3,0.00125885,-0.001047134,0.003673553,0,
00:09.3,0.001293182,-0.001058578,0.003616333,0,
00:09.3,0.00120163,-0.001104355,0.003650665,0,
00:09.3,0.001213074,-0.001081467,0.003662109,0,
00:09.3,0.001247406,-0.00103569,0.003662109,0,
00:09.3,0.001281738,-0.001001358,0.003662109,0,
00:09.3,0.001247406,-0.00103569,0.003644943,0,
00:09.3,0.001235962,-0.001081467,0.003650665,0,
00:09.3,0.001247406,-0.001087189,0.003650665,0,
00:09.3,0.001247406,-0.001064301,0.003684998,0,
00:09.3,0.00123024,-0.001070023,0.003679276,0,
00:09.3,0.00123024,-0.001058578,0.003656387,0,
00:09.3,0.001247406,-0.001041412,0.003650665,0,
00:09.3,0.00123024,-0.001052856,0.003650665,0,
00:09.3,0.001241684,-0.001081467,0.003662109,0,
00:09.4,0.001235962,-0.001070023,0.003673553,0,
00:09.4,0.001235962,-0.001058578,0.003650665,0,
00:09.4,0.00120163,-0.001081467,0.003656387,0,
00:09.4,0.00123024,-0.001058578,0.003667831,0,
00:09.4,0.001253128,-0.001047134,0.003662109,0,
00:09.4,0.001190186,-0.001058578,0.003667831,0,
00:09.4,0.00125885,-0.001052856,0.003662109,0,
00:09.4,0.001293182,-0.001041412,0.003679276,0,
00:09.4,0.001224518,-0.001052856,0.003696442,0,
00:09.4,0.001207352,-0.001041412,0.003633499,0,
00:09.4,0.001247406,-0.001064301,0.003650665,0,
00:09.4,0.00120163,-0.001098633,0.003667831,0,
00:09.4,0.001213074,-0.001075745,0.003679276,0,
00:09.4,0.001264572,-0.001047134,0.003650665,0,
00:09.4,0.001241684,-0.001047134,0.003644943,0,
00:09.4,0.001218796,-0.001058578,0.003679276,0,
00:09.4,0.001253128,-0.001064301,0.003633499,0,
00:09.4,0.001247406,-0.001064301,0.003633499,0,
00:09.4,0.001241684,-0.001064301,0.003644943,0,
00:09.4,0.00123024,-0.001070023,0.003650665,0,
00:09.4,0.001224518,-0.001064301,0.003656387,0,
00:09.4,0.001224518,-0.001052856,0.003656387,0,
00:09.4,0.001224518,-0.001064301,0.003656387,0,
00:09.4,0.001241684,-0.001047134,0.003656387,0,
00:09.4,0.001235962,-0.001041412,0.003662109,0,
00:09.5,0.001247406,-0.001052856,0.003673553,0,
00:09.5,0.00125885,-0.001058578,0.003679276,0,
00:09.5,0.001224518,-0.001064301,0.003667831,0,
00:09.5,0.001167297,-0.001064301,0.003679276,0,
00:09.5,0.001115799,-0.001075745,0.003707886,0,
00:09.5,0.00125885,-0.001064301,0.003667831,0,
00:09.5,0.001293182,-0.001047134,0.003587723,0,
00:09.5,0.001235962,-0.001064301,0.003622055,0,
00:09.5,0.001270294,-0.001058578,0.003656387,0,
00:09.5,0.001253128,-0.001081467,0.003673553,0,
00:09.5,0.001218796,-0.001092911,0.003639221,0,
00:09.5,0.001224518,-0.001075745,0.003639221,0,
00:09.5,0.00123024,-0.001058578,0.003650665,0,
00:09.5,0.001224518,-0.001047134,0.003656387,0,
00:09.5,0.001218796,-0.001052856,0.003667831,0,
00:09.5,0.001241684,-0.001064301,0.003662109,0,
00:09.5,0.001247406,-0.001052856,0.003644943,0,
00:09.5,0.001235962,-0.001058578,0.003644943,0,
00:09.5,0.001224518,-0.001058578,0.003650665,0,
00:09.5,0.001224518,-0.001070023,0.003650665,0,
00:09.5,0.001224518,-0.001075745,0.003656387,0,
00:09.5,0.001213074,-0.001058578,0.003673553,0,
00:09.5,0.001173019,-0.001041412,0.00374794,0,
00:09.5,0.001235962,-0.001064301,0.003702164,0,
00:09.5,0.00125885,-0.001052856,0.003582001,0,
00:09.6,0.001207352,-0.001052856,0.003627777,0,
00:09.6,0.00120163,-0.001064301,0.003650665,0,
00:09.6,0.001241684,-0.001064301,0.003656387,0,
00:09.6,0.001264572,-0.001064301,0.003644943,0,
00:09.6,0.001247406,-0.001075745,0.003644943,0,
00:09.6,0.001207352,-0.001075745,0.003673553,0,
00:09.6,0.001218796,-0.001070023,0.003679276,0,
00:09.6,0.001247406,-0.001075745,0.003622055,0,
00:09.6,0.001218796,-0.001098633,0.003650665,0,
00:09.6,0.001235962,-0.001052856,0.003644943,0,
00:09.6,0.001235962,-0.001041412,0.003633499,0,
00:09.6,0.001247406,-0.001041412,0.003656387,0,
00:09.6,0.001235962,-0.001081467,0.003650665,0,
00:09.6,0.001235962,-0.001075745,0.003650665,0,
00:09.6,0.00123024,-0.001052856,0.003650665,0,
00:09.6,0.001224518,-0.001087189,0.003656387,0,
00:09.6,0.00120163,-0.001087189,0.003662109,0,
00:09.6,0.001190186,-0.001075745,0.003673553,0,
00:09.6,0.001218796,-0.001041412,0.003696442,0,
00:09.6,0.001247406,-0.001041412,0.003656387,0,
00:09.6,0.001213074,-0.001058578,0.003650665,0,
00:09.6,0.001207352,-0.001087189,0.003644943,0,
00:09.6,0.001235962,-0.001087189,0.003639221,0,
00:09.6,0.001241684,-0.001047134,0.003656387,0,
00:09.6,0.001213074,-0.001052856,0.003679276,0,
00:09.7,0.001247406,-0.001075745,0.003667831,0,
00:09.7,0.001235962,-0.001075745,0.003604889,0,
00:09.7,0.001235962,-0.001075745,0.003639221,0,
00:09.7,0.001235962,-0.001070023,0.003644943,0,
00:09.7,0.001241684,-0.001058578,0.003644943,0,
00:09.7,0.00123024,-0.001052856,0.003644943,0,
00:09.7,0.001218796,-0.001064301,0.003656387,0,
00:09.7,0.001235962,-0.001075745,0.003656387,0,
00:09.7,0.001247406,-0.001064301,0.003656387,0,
00:09.7,0.001235962,-0.001052856,0.003650665,0,
00:09.7,0.001213074,-0.001070023,0.003644943,0,
00:09.7,0.001195908,-0.001075745,0.003644943,0,
00:09.7,0.001184464,-0.001087189,0.003662109,0,
00:09.7,0.001241684,-0.001098633,0.003679276,0,
00:09.7,0.001195908,-0.001092911,0.003650665,0,
00:09.7,0.001138687,-0.001081467,0.00369072,0,
00:09.7,0.00123024,-0.001081467,0.003684998,0,
00:09.7,0.00125885,-0.001058578,0.003604889,0,
00:09.7,0.00123024,-0.001058578,0.003622055,0,
00:09.7,0.001224518,-0.001058578,0.003656387,0,
00:09.7,0.001218796,-0.001064301,0.003679276,0,
00:09.7,0.001253128,-0.001058578,0.003656387,0,
00:09.7,0.001241684,-0.001070023,0.003610611,0,
00:09.7,0.001207352,-0.001070023,0.003633499,0,
00:09.7,0.001218796,-0.001075745,0.003662109,0,
00:09.8,0.001241684,-0.001064301,0.003644943,0,
00:09.8,0.001213074,-0.001064301,0.003644943,0,
00:09.8,0.001224518,-0.001075745,0.003644943,0,
00:09.8,0.001235962,-0.001075745,0.003644943,0,
00:09.8,0.001224518,-0.001064301,0.003644943,0,
00:09.8,0.001224518,-0.001081467,0.003650665,0,
00:09.8,0.001207352,-0.001087189,0.003650665,0,
00:09.8,0.001213074,-0.001070023,0.003639221,0,
00:09.8,0.001224518,-0.001052856,0.003639221,0,
00:09.8,0.00123024,-0.001064301,0.003662109,0,
00:09.8,0.001184464,-0.001098633,0.00369072,0,
00:09.8,0.001138687,-0.001081467,0.003696442,0,
00:09.8,0.001173019,-0.001070023,0.00369072,0,
00:09.8,0.00123024,-0.001070023,0.00369072,0,
00:09.8,0.001293182,-0.001052856,0.003604889,0,
00:09.8,0.001264572,-0.001058578,0.003593445,0,
00:09.8,0.00123024,-0.001081467,0.003633499,0,
00:09.8,0.001195908,-0.001098633,0.003667831,0,
00:09.8,0.001218796,-0.001087189,0.003656387,0,
00:09.8,0.001235962,-0.001047134,0.003627777,0,
00:09.8,0.00123024,-0.001058578,0.003627777,0,
00:09.8,0.001207352,-0.001070023,0.003656387,0,
00:09.8,0.001184464,-0.001064301,0.003684998,0,
00:09.8,0.001218796,-0.001064301,0.003644943,0,
00:09.8,0.001253128,-0.001070023,0.003627777,0,
00:09.9,0.00123024,-0.001070023,0.003633499,0,
00:09.9,0.001218796,-0.001092911,0.003639221,0,
00:09.9,0.001218796,-0.001098633,0.003662109,0,
00:09.9,0.00120163,-0.001070023,0.003650665,0,
00:09.9,0.001195908,-0.001064301,0.003644943,0,
00:09.9,0.001213074,-0.001064301,0.003673553,0,
00:09.9,0.001213074,-0.001081467,0.003673553,0,
00:09.9,0.001184464,-0.001092911,0.003662109,0,
00:09.9,0.001173019,-0.001087189,0.003667831,0,
00:09.9,0.001247406,-0.001064301,0.003650665,0,
00:09.9,0.001253128,-0.001058578,0.003633499,0,
00:09.9,0.001241684,-0.001047134,0.003644943,0,
00:09.9,0.001218796,-0.001070023,0.003662109,0,
00:09.9,0.001213074,-0.001098633,0.003627777,0,
00:09.9,0.001184464,-0.001132965,0.003650665,0,
00:09.9,0.001190186,-0.001104355,0.003644943,0,
00:09.9,0.001195908,-0.001058578,0.003667831,0,
00:09.9,0.00123024,-0.001041412,0.003639221,0,
00:09.9,0.00123024,-0.001058578,0.003644943,0,
00:09.9,0.00120163,-0.001064301,0.003656387,0,
00:09.9,0.001241684,-0.001087189,0.003633499,0,
00:09.9,0.001207352,-0.001098633,0.003650665,0,
00:09.9,0.001224518,-0.001070023,0.003662109,0,
00:09.9,0.001224518,-0.001052856,0.003633499,0,
00:09.9,0.001235962,-0.001064301,0.003639221,0,
00:10.0,0.00120163,-0.001070023,0.003644943,0,
00:10.0,0.001173019,-0.001087189,0.003679276,0,
00:10.0,0.001224518,-0.001098633,0.003650665,0,
00:10.0,0.001207352,-0.001087189,0.003633499,0,
00:10.0,0.001190186,-0.001092911,0.003644943,0,
00:10.0,0.001167297,-0.001098633,0.003679276,0,
00:10.0,0.001224518,-0.001058578,0.003650665,0,
00:10.0,0.001241684,-0.001041412,0.003627777,0,
00:10.0,0.001224518,-0.001070023,0.003644943,0,
00:10.0,0.001173019,-0.001081467,0.003639221,0,
00:10.0,0.001195908,-0.001104355,0.003667831,0,
00:10.0,0.001241684,-0.001087189,0.003627777,0,
00:00:10,0.001224518,-0.001075745,0.003644943,0,
00:10.0,0.001224518,-0.001064301,0.003650665,0,
00:10.0,0.001213074,-0.001064301,0.003622055,0,
00:10.0,0.001213074,-0.001070023,0.003662109,0,
00:10.0,0.001213074,-0.001064301,0.003667831,0,
00:10.0,0.00120163,-0.001075745,0.003662109,0,
00:10.0,0.001178741,-0.001081467,0.003639221,0,
00:10.0,0.001161575,-0.001110077,0.003679276,0,
00:10.0,0.001241684,-0.001081467,0.003667831,0,
00:10.0,0.001167297,-0.001047134,0.003673553,0,
00:10.0,0.001115799,-0.001064301,0.003702164,0,
00:10.0,0.001253128,-0.001081467,0.003639221,0,
00:10.0,0.001281738,-0.001075745,0.003604889,0,
00:10.1,0.00123024,-0.001092911,0.003616333,0,
00:10.1,0.001195908,-0.001092911,0.003633499,0,
00:10.1,0.00120163,-0.001064301,0.003644943,0,
00:10.1,0.001235962,-0.001064301,0.003644943,0,
00:10.1,0.00123024,-0.001052856,0.003650665,0,
00:10.1,0.001218796,-0.001058578,0.003644943,0,
00:10.1,0.001195908,-0.001081467,0.003650665,0,
