Elapsed_Time,EMG1,EMG2,EMG3,BioRadio Event,Unnamed: 5
00:00:00,0.001121521,-0.001476288,-0.001241684,0,
00:00.0,0.001127243,-0.001476288,-0.00125885,0,
00:00.0,0.001104355,-0.001476288,-0.001207352,0,
00:00.0,0.001115799,-0.0014534,-0.001184464,0,
00:00.0,0.001121521,-0.001441956,-0.001218796,0,
00:00.0,0.001121521,-0.001441956,-0.001224518,0,
00:00.0,0.001121521,-0.001441956,-0.00120163,0,
00:00.0,0.001138687,-0.001459122,-0.001241684,0,
00:00.0,0.001121521,-0.001470566,-0.00125885,0,
00:00.0,0.001110077,-0.0014534,-0.001178741,0,
00:00.0,0.001092911,-0.0014534,-0.001167297,0,
00:00.0,0.001127243,-0.001459122,-0.001173019,0,
00:00.0,0.001132965,-0.001441956,-0.001224518,0,
00:00.1,0.001127243,-0.001447678,-0.001213074,0,
00:00.1,0.001110077,-0.0014534,-0.001184464,0,
00:00.1,0.001104355,-0.0014534,-0.001190186,0,
00:00.1,0.001121521,-0.001447678,-0.001218796,0,
00:00.1,0.001121521,-0.001447678,-0.00120163,0,
00:00.1,0.001127243,-0.001447678,-0.001224518,0,
00:00.1,0.001121521,-0.001464844,-0.00123024,0,
00:00.1,0.001121521,-0.00148201,-0.001213074,0,
00:00.1,0.001104355,-0.001476288,-0.00123024,0,
00:00.1,0.001104355,-0.0014534,-0.001195908,0,
00:00.1,0.001121521,-0.001441956,-0.001213074,0,
00:00.1,0.001132965,-0.001441956,-0.001190186,0,
00:00.1,0.001150131,-0.001447678,-0.00120163,0,
00:00.1,0.001127243,-0.001464844,-0.001213074,0,
00:00.1,0.001127243,-0.001487732,-0.001218796,0,
00:00.1,0.001110077,-0.001493454,-0.001218796,0,
00:00.1,0.001110077,-0.001464844,-0.001184464,0,
00:00.1,0.001110077,-0.001436234,-0.00120163,0,
00:00.1,0.001110077,-0.001436234,-0.001253128,0,
00:00.1,0.001104355,-0.0014534,-0.001207352,0,
00:00.1,0.001098633,-0.001470566,-0.001190186,0,
00:00.1,0.001104355,-0.00148201,-0.00120163,0,
00:00.1,0.001115799,-0.001464844,-0.00120163,0,
00:00.1,0.001132965,-0.001419067,-0.00123024,0,
00:00.1,0.001138687,-0.001413345,-0.001270294,0,
00:00.2,0.001127243,-0.001430511,-0.001270294,0,
00:00.2,0.001104355,-0.001464844,-0.001150131,0,
00:00.2,0.001110077,-0.001470566,-0.001138687,0,
00:00.2,0.001115799,-0.001464844,-0.001195908,0,
00:00.2,0.001127243,-0.001447678,-0.001195908,0,
00:00.2,0.001115799,-0.001430511,-0.001207352,0,
00:00.2,0.001121521,-0.001424789,-0.001241684,0,
00:00.2,0.001127243,-0.001430511,-0.001207352,0,
00:00.2,0.001132965,-0.001430511,-0.001224518,0,
00:00.2,0.001115799,-0.001441956,-0.001247406,0,
00:00.2,0.001087189,-0.001487732,-0.001178741,0,
00:00.2,0.001110077,-0.001487732,-0.001195908,0,
00:00.2,0.001115799,-0.001464844,-0.001195908,0,
00:00.2,0.001104355,-0.001430511,-0.001207352,0,
00:00.2,0.001110077,-0.001430511,-0.001218796,0,
00:00.2,0.001115799,-0.001441956,-0.001224518,0,
00:00.2,0.001092911,-0.001459122,-0.001207352,0,
00:00.2,0.001110077,-0.0014534,-0.001253128,0,
00:00.2,0.001115799,-0.001447678,-0.001247406,0,
00:00.2,0.001092911,-0.001436234,-0.00120163,0,
00:00.2,0.001098633,-0.001424789,-0.00120163,0,
00:00.2,0.001104355,-0.001441956,-0.001184464,0,
00:00.2,0.001110077,-0.001441956,-0.00120163,0,
00:00.2,0.001092911,-0.001436234,-0.001195908,0,
00:00.2,0.001098633,-0.001430511,-0.001218796,0,
00:00.3,0.001104355,-0.001436234,-0.001235962,0,
00:00.3,0.001104355,-0.0014534,-0.001184464,0,
00:00.3,0.001115799,-0.001447678,-0.001195908,0,
00:00.3,0.001087189,-0.001441956,-0.001195908,0,
00:00.3,0.001098633,-0.001430511,-0.001218796,0,
00:00.3,0.001064301,-0.001441956,-0.001213074,0,
00:00.3,0.001104355,-0.001441956,-0.001213074,0,
00:00.3,0.001121521,-0.001430511,-0.001218796,0,
00:00.3,0.001092911,-0.001430511,-0.001195908,0,
00:00.3,0.001092911,-0.001441956,-0.001178741,0,
00:00.3,0.001098633,-0.001447678,-0.00120163,0,
00:00.3,0.001104355,-0.001447678,-0.00125885,0,
00:00.3,0.001098633,-0.001441956,-0.00120163,0,
00:00.3,0.001081467,-0.0014534,-0.001190186,0,
00:00.3,0.001110077,-0.001464844,-0.001235962,0,
00:00.3,0.001121521,-0.001459122,-0.001224518,0,
00:00.3,0.001092911,-0.001441956,-0.001195908,0,
00:00.3,0.001087189,-0.001430511,-0.00120163,0,
00:00.3,0.001087189,-0.001419067,-0.00120163,0,
00:00.3,0.001104355,-0.001430511,-0.001195908,0,
00:00.3,0.001098633,-0.001441956,-0.001167297,0,
00:00.3,0.001104355,-0.001441956,-0.00120163,0,
00:00.3,0.001098633,-0.001441956,-0.001213074,0,
00:00.3,0.001092911,-0.001430511,-0.001213074,0,
00:00.3,0.001075745,-0.001441956,-0.001173019,0,
00:00.4,0.001092911,-0.0014534,-0.001190186,0,
00:00.4,0.001092911,-0.001459122,-0.001207352,0,
00:00.4,0.001098633,-0.0014534,-0.001213074,0,
00:00.4,0.001098633,-0.001441956,-0.001195908,0,
00:00.4,0.001092911,-0.001419067,-0.001190186,0,
00:00.4,0.001121521,-0.001419067,-0.001247406,0,
00:00.4,0.001115799,-0.001430511,-0.001213074,0,
00:00.4,0.001104355,-0.001424789,-0.001213074,0,
00:00.4,0.001098633,-0.001430511,-0.001173019,0,
00:00.4,0.001087189,-0.001430511,-0.001190186,0,
00:00.4,0.001092911,-0.001436234,-0.001253128,0,
00:00.4,0.001110077,-0.001436234,-0.001241684,0,
00:00.4,0.001098633,-0.001436234,-0.001195908,0,
00:00.4,0.001092911,-0.001436234,-0.001167297,0,
00:00.4,0.001104355,-0.001441956,-0.001195908,0,
00:00.4,0.001087189,-0.001441956,-0.001207352,0,
00:00.4,0.001092911,-0.001447678,-0.001190186,0,
00:00.4,0.001092911,-0.001447678,-0.001190186,0,
00:00.4,0.001104355,-0.001436234,-0.001213074,0,
00:00.4,0.001104355,-0.001424789,-0.00120163,0,
00:00.4,0.001081467,-0.001436234,-0.001184464,0,
00:00.4,0.001087189,-0.001441956,-0.001235962,0,
00:00.4,0.001104355,-0.001464844,-0.001276016,0,
00:00.4,0.001081467,-0.00148201,-0.001190186,0,
00:00.4,0.001070023,-0.001470566,-0.001161575,0,
00:00.5,0.00103569,-0.001447678,-0.001178741,0,
00:00.5,0.001138687,-0.001413345,-0.00123024,0,
00:00.5,0.001127243,-0.001413345,-0.001207352,0,
00:00.5,0.001081467,-0.001424789,-0.00120163,0,
00:00.5,0.001081467,-0.001447678,-0.001247406,0,
00:00.5,0.001092911,-0.001470566,-0.001218796,0,
00:00.5,0.001104355,-0.001470566,-0.00120163,0,
00:00.5,0.001064301,-0.001441956,-0.001173019,0,
00:00.5,0.001092911,-0.001396179,-0.001190186,0,
00:00.5,0.001092911,-0.001407623,-0.001207352,0,
00:00.5,0.001081467,-0.001430511,-0.001184464,0,
00:00.5,0.001081467,-0.001436234,-0.001224518,0,
00:00.5,0.001092911,-0.001441956,-0.001213074,0,
00:00.5,0.001081467,-0.001436234,-0.00120163,0,
00:00.5,0.001104355,-0.001424789,-0.001207352,0,
00:00.5,0.001110077,-0.001430511,-0.001195908,0,
00:00.5,0.001104355,-0.001419067,-0.001235962,0,
00:00.5,0.001132965,-0.001419067,-0.001270294,0,
00:00.5,0.001092911,-0.001424789,-0.001213074,0,
00:00.5,0.001081467,-0.001441956,-0.001178741,0,
00:00.5,0.001064301,-0.001441956,-0.001167297,0,
00:00.5,0.001064301,-0.001447678,-0.001173019,0,
00:00.5,0.001115799,-0.001447678,-0.001213074,0,
00:00.5,0.001087189,-0.001447678,-0.001235962,0,
00:00.5,0.001075745,-0.001459122,-0.00120163,0,
00:00.6,0.001070023,-0.0014534,-0.001167297,0,
00:00.6,0.001081467,-0.001436234,-0.001195908,0,
00:00.6,0.001092911,-0.001419067,-0.001224518,0,
00:00.6,0.001075745,-0.001424789,-0.001218796,0,
00:00.6,0.001081467,-0.001424789,-0.001195908,0,
00:00.6,0.001098633,-0.001430511,-0.00120163,0,
00:00.6,0.001110077,-0.001419067,-0.001195908,0,
00:00.6,0.001098633,-0.001419067,-0.001235962,0,
00:00.6,0.001087189,-0.001430511,-0.00120163,0,
00:00.6,0.001075745,-0.001447678,-0.001190186,0,
00:00.6,0.001087189,-0.001436234,-0.001235962,0,
00:00.6,0.001070023,-0.001424789,-0.001253128,0,
00:00.6,0.001098633,-0.001413345,-0.00123024,0,
00:00.6,0.001132965,-0.001407623,-0.001224518,0,
00:00.6,0.001081467,-0.001436234,-0.001173019,0,
00:00.6,0.001058578,-0.001436234,-0.001161575,0,
00:00.6,0.001070023,-0.001430511,-0.001207352,0,
00:00.6,0.001081467,-0.001441956,-0.001190186,0,
00:00.6,0.001087189,-0.001430511,-0.001207352,0,
00:00.6,0.001092911,-0.001430511,-0.001184464,0,
00:00.6,0.001092911,-0.001419067,-0.001195908,0,
00:00.6,0.001098633,-0.001419067,-0.001224518,0,
00:00.6,0.001092911,-0.001436234,-0.00123024,0,
00:00.6,0.001075745,-0.001441956,-0.001190186,0,
00:00.6,0.001087189,-0.001436234,-0.001184464,0,
00:00.7,0.001087189,-0.001441956,-0.00120163,0,
00:00.7,0.001087189,-0.001441956,-0.001195908,0,
00:00.7,0.001087189,-0.001436234,-0.00123024,0,
00:00.7,0.001075745,-0.001419067,-0.001207352,0,
00:00.7,0.001075745,-0.001407623,-0.00120163,0,
00:00.7,0.001092911,-0.001413345,-0.001224518,0,
00:00.7,0.001087189,-0.001413345,-0.001253128,0,
00:00.7,0.001075745,-0.001419067,-0.00123024,0,
00:00.7,0.001098633,-0.001424789,-0.001213074,0,
00:00.7,0.001081467,-0.001430511,-0.001195908,0,
00:00.7,0.001070023,-0.001424789,-0.001264572,0,
00:00.7,0.001075745,-0.001430511,-0.001207352,0,
00:00.7,0.001104355,-0.001407623,-0.001224518,0,
00:00.7,0.001075745,-0.001407623,-0.001207352,0,
00:00.7,0.001070023,-0.001419067,-0.001178741,0,
00:00.7,0.001098633,-0.001430511,-0.001195908,0,
00:00.7,0.001092911,-0.001424789,-0.001207352,0,
00:00.7,0.001092911,-0.001419067,-0.00120163,0,
00:00.7,0.001092911,-0.001430511,-0.001218796,0,
00:00.7,0.001081467,-0.001447678,-0.001218796,0,
00:00.7,0.001087189,-0.001441956,-0.001218796,0,
00:00.7,0.001081467,-0.001419067,-0.00123024,0,
00:00.7,0.001075745,-0.001396179,-0.00120163,0,
00:00.7,0.001075745,-0.001413345,-0.001218796,0,
00:00.7,0.001075745,-0.001436234,-0.001235962,0,
00:00.8,0.001087189,-0.001441956,-0.001195908,0,
00:00.8,0.001104355,-0.001424789,-0.001224518,0,
00:00.8,0.001081467,-0.001419067,-0.001235962,0,
00:00.8,0.001064301,-0.001419067,-0.001190186,0,
00:00.8,0.001052856,-0.001407623,-0.001218796,0,
00:00.8,0.001070023,-0.001396179,-0.001241684,0,
00:00.8,0.001092911,-0.001413345,-0.001184464,0,
00:00.8,0.001087189,-0.001413345,-0.001195908,0,
00:00.8,0.001070023,-0.001419067,-0.001161575,0,
00:00.8,0.001075745,-0.001401901,-0.001190186,0,
00:00.8,0.001087189,-0.001407623,-0.001218796,0,
00:00.8,0.001092911,-0.001419067,-0.00120163,0,
00:00.8,0.001075745,-0.001436234,-0.00120163,0,
00:00.8,0.001075745,-0.001424789,-0.00123024,0,
00:00.8,0.001087189,-0.001401901,-0.001224518,0,
00:00.8,0.001075745,-0.001390457,-0.001224518,0,
00:00.8,0.001075745,-0.001396179,-0.001207352,0,
00:00.8,0.001087189,-0.001401901,-0.001218796,0,
00:00.8,0.001081467,-0.001401901,-0.001224518,0,
00:00.8,0.001070023,-0.001419067,-0.001195908,0,
00:00.8,0.001081467,-0.001424789,-0.001213074,0,
00:00.8,0.001070023,-0.001407623,-0.001213074,0,
00:00.8,0.001058578,-0.001407623,-0.001264572,0,
00:00.8,0.001081467,-0.001413345,-0.001281738,0,
00:00.8,0.001087189,-0.001419067,-0.001190186,0,
00:00.9,0.001087189,-0.001424789,-0.001155853,0,
00:00.9,0.001064301,-0.001413345,-0.00120163,0,
00:00.9,0.001081467,-0.001396179,-0.001184464,0,
00:00.9,0.001098633,-0.001384735,-0.001190186,0,
00:00.9,0.001081467,-0.001384735,-0.001207352,0,
00:00.9,0.001081467,-0.001390457,-0.001195908,0,
00:00.9,0.001092911,-0.001401901,-0.00120163,0,
00:00.9,0.001081467,-0.001407623,-0.001195908,0,
00:00.9,0.001087189,-0.001401901,-0.001213074,0,
00:00.9,0.001081467,-0.001419067,-0.001213074,0,
00:00.9,0.001070023,-0.001436234,-0.001213074,0,
00:00.9,0.001075745,-0.001424789,-0.001224518,0,
00:00.9,0.001070023,-0.001390457,-0.001218796,0,
00:00.9,0.001041412,-0.001390457,-0.00120163,0,
00:00.9,0.001070023,-0.001390457,-0.00123024,0,
00:00.9,0.001087189,-0.001390457,-0.001213074,0,
00:00.9,0.001070023,-0.001384735,-0.00120163,0,
00:00.9,0.001064301,-0.001384735,-0.00120163,0,
00:00.9,0.001104355,-0.001390457,-0.001264572,0,
00:00.9,0.001098633,-0.001384735,-0.001253128,0,
00:00.9,0.001110077,-0.001390457,-0.001195908,0,
00:00.9,0.001075745,-0.001401901,-0.001195908,0,
00:00.9,0.001070023,-0.001413345,-0.00125885,0,
00:00.9,0.001064301,-0.001413345,-0.001207352,0,
00:00.9,0.001075745,-0.001390457,-0.001178741,0,
00:01.0,0.001075745,-0.001379013,-0.00120163,0,
00:01.0,0.001081467,-0.001396179,-0.001218796,0,
00:01.0,0.001075745,-0.001390457,-0.001195908,0,
00:01.0,0.001070023,-0.001396179,-0.001190186,0,
00:01.0,0.001087189,-0.001390457,-0.001207352,0,
00:01.0,0.001087189,-0.001390457,-0.001224518,0,
00:01.0,0.001087189,-0.001384735,-0.00123024,0,
00:01.0,0.001075745,-0.001390457,-0.00123024,0,
00:01.0,0.001092911,-0.001396179,-0.001195908,0,
00:01.0,0.001087189,-0.001390457,-0.001207352,0,
00:01.0,0.001064301,-0.001390457,-0.001224518,0,
00:01.0,0.001070023,-0.001390457,-0.001224518,0,
00:00:01,0.001087189,-0.001384735,-0.001241684,0,
00:01.0,0.001058578,-0.001396179,-0.001218796,0,
00:01.0,0.001092911,-0.001396179,-0.001184464,0,
00:01.0,0.001127243,-0.001384735,-0.00120163,0,
00:01.0,0.001052856,-0.001401901,-0.001218796,0,
00:01.0,0.001087189,-0.001413345,-0.001213074,0,
00:01.0,0.001052856,-0.001407623,-0.001207352,0,
00:01.0,0.001075745,-0.001384735,-0.001247406,0,
00:01.0,0.001092911,-0.001373291,-0.001218796,0,
00:01.0,0.001081467,-0.001384735,-0.00120163,0,
00:01.0,0.001081467,-0.001384735,-0.001195908,0,
00:01.0,0.001081467,-0.001396179,-0.001218796,0,
00:01.0,0.001098633,-0.001396179,-0.001235962,0,
00:01.1,0.001087189,-0.001379013,-0.001247406,0,
00:01.1,0.001081467,-0.001384735,-0.001253128,0,
00:01.1,0.001070023,-0.001396179,-0.001195908,0,
00:01.1,0.001070023,-0.001407623,-0.001218796,0,
00:01.1,0.001075745,-0.001413345,-0.001235962,0,
00:01.1,0.001070023,-0.001401901,-0.001218796,0,
00:01.1,0.001075745,-0.001361847,-0.001213074,0,
00:01.1,0.001075745,-0.001361847,-0.001218796,0,
00:01.1,0.001052856,-0.001373291,-0.001224518,0,
00:01.1,0.00103569,-0.001384735,-0.001218796,0,
00:01.1,0.001064301,-0.001384735,-0.00120163,0,
00:01.1,0.001087189,-0.001401901,-0.001213074,0,
00:01.1,0.001081467,-0.001424789,-0.00120163,0,
00:01.1,0.001064301,-0.001430511,-0.001224518,0,
00:01.1,0.001075745,-0.001390457,-0.001213074,0,
00:01.1,0.001075745,-0.001361847,-0.001195908,0,
00:01.1,0.001041412,-0.001390457,-0.00123024,0,
00:01.1,0.001070023,-0.001401901,-0.001218796,0,
00:01.1,0.001081467,-0.001390457,-0.001213074,0,
00:01.1,0.001098633,-0.001361847,-0.001207352,0,
00:01.1,0.001115799,-0.001356125,-0.001281738,0,
00:01.1,0.001081467,-0.001384735,-0.001327515,0,
00:01.1,0.00103569,-0.001430511,-0.00120163,0,
00:01.1,0.001064301,-0.001419067,-0.001184464,0,
00:01.1,0.001064301,-0.001396179,-0.001207352,0,
00:01.2,0.001064301,-0.001373291,-0.001190186,0,
00:01.2,0.001087189,-0.001361847,-0.001224518,0,
00:01.2,0.001070023,-0.001373291,-0.001213074,0,
00:01.2,0.001075745,-0.001367569,-0.001224518,0,
00:01.2,0.001075745,-0.001350403,-0.001213074,0,
00:01.2,0.001070023,-0.001361847,-0.00120163,0,
00:01.2,0.001058578,-0.001361847,-0.001207352,0,
00:01.2,0.001070023,-0.001356125,-0.001224518,0,
00:01.2,0.001064301,-0.001356125,-0.001224518,0,
00:01.2,0.001098633,-0.001361847,-0.001281738,0,
00:01.2,0.001098633,-0.001367569,-0.001241684,0,
00:01.2,0.001070023,-0.001396179,-0.001173019,0,
00:01.2,0.001070023,-0.001413345,-0.001167297,0,
00:01.2,0.001081467,-0.001413345,-0.00123024,0,
00:01.2,0.001081467,-0.001384735,-0.001241684,0,
00:01.2,0.001075745,-0.001356125,-0.001213074,0,
00:01.2,0.001075745,-0.001356125,-0.001213074,0,
00:01.2,0.001064301,-0.001361847,-0.001235962,0,
00:01.2,0.001070023,-0.001361847,-0.001218796,0,
00:01.2,0.001075745,-0.001361847,-0.001224518,0,
00:01.2,0.001075745,-0.001373291,-0.001224518,0,
00:01.2,0.001075745,-0.001379013,-0.001235962,0,
00:01.2,0.001070023,-0.001401901,-0.001264572,0,
00:01.2,0.001064301,-0.001401901,-0.001218796,0,
00:01.2,0.001064301,-0.001373291,-0.001161575,0,
00:01.3,0.001070023,-0.001350403,-0.001190186,0,
00:01.3,0.001087189,-0.001361847,-0.00123024,0,
00:01.3,0.001064301,-0.001379013,-0.001247406,0,
00:01.3,0.001075745,-0.001367569,-0.001207352,0,
00:01.3,0.001110077,-0.001338959,-0.001207352,0,
00:01.3,0.001098633,-0.001344681,-0.00125885,0,
00:01.3,0.001070023,-0.001356125,-0.001276016,0,
00:01.3,0.001075745,-0.001361847,-0.00120163,0,
00:01.3,0.001081467,-0.001361847,-0.001190186,0,
00:01.3,0.001087189,-0.001361847,-0.001213074,0,
00:01.3,0.001081467,-0.001361847,-0.001213074,0,
00:01.3,0.001081467,-0.001367569,-0.001276016,0,
00:01.3,0.001075745,-0.001361847,-0.001241684,0,
00:01.3,0.001070023,-0.001367569,-0.001178741,0,
00:01.3,0.001081467,-0.001367569,-0.001213074,0,
00:01.3,0.001098633,-0.001361847,-0.001213074,0,
00:01.3,0.001081467,-0.001361847,-0.00123024,0,
00:01.3,0.001070023,-0.001367569,-0.00125885,0,
00:01.3,0.001070023,-0.001379013,-0.00123024,0,
00:01.3,0.001092911,-0.001379013,-0.001213074,0,
00:01.3,0.001098633,-0.001356125,-0.001224518,0,
00:01.3,0.001098633,-0.001350403,-0.001190186,0,
00:01.3,0.001104355,-0.001350403,-0.00123024,0,
00:01.3,0.001092911,-0.001361847,-0.001241684,0,
00:01.3,0.001070023,-0.001367569,-0.001235962,0,
00:01.4,0.001075745,-0.001367569,-0.001241684,0,
00:01.4,0.001075745,-0.001361847,-0.001218796,0,
00:01.4,0.001070023,-0.001373291,-0.001213074,0,
00:01.4,0.001070023,-0.001407623,-0.00123024,0,
00:01.4,0.001070023,-0.001419067,-0.001247406,0,
00:01.4,0.001087189,-0.001373291,-0.001247406,0,
00:01.4,0.001075745,-0.001356125,-0.001190186,0,
00:01.4,0.001064301,-0.001361847,-0.001190186,0,
00:01.4,0.001052856,-0.001367569,-0.001218796,0,
00:01.4,0.001092911,-0.001344681,-0.001235962,0,
00:01.4,0.001110077,-0.001316071,-0.001253128,0,
00:01.4,0.001121521,-0.001327515,-0.001241684,0,
00:01.4,0.001098633,-0.001344681,-0.001235962,0,
00:01.4,0.001087189,-0.001356125,-0.00120163,0,
00:01.4,0.001081467,-0.001356125,-0.001207352,0,
00:01.4,0.001104355,-0.001356125,-0.001247406,0,
00:01.4,0.001092911,-0.001356125,-0.001218796,0,
00:01.4,0.001087189,-0.001350403,-0.001218796,0,
00:01.4,0.001098633,-0.001356125,-0.001276016,0,
00:01.4,0.001104355,-0.001356125,-0.001235962,0,
00:01.4,0.001087189,-0.001361847,-0.001190186,0,
00:01.4,0.001092911,-0.001361847,-0.001253128,0,
00:01.4,0.001087189,-0.001361847,-0.001264572,0,
00:01.4,0.001098633,-0.001361847,-0.001235962,0,
00:01.4,0.001098633,-0.001356125,-0.001213074,0,
00:01.5,0.001104355,-0.001373291,-0.001190186,0,
00:01.5,0.001075745,-0.001379013,-0.001218796,0,
00:01.5,0.001070023,-0.001384735,-0.00123024,0,
00:01.5,0.001075745,-0.001373291,-0.00125885,0,
00:01.5,0.001092911,-0.001356125,-0.001264572,0,
00:01.5,0.00103569,-0.001356125,-0.001218796,0,
00:01.5,0.001081467,-0.001361847,-0.001207352,0,
00:01.5,0.001098633,-0.001356125,-0.001190186,0,
00:01.5,0.001087189,-0.001350403,-0.00123024,0,
00:01.5,0.001098633,-0.001350403,-0.001247406,0,
00:01.5,0.001104355,-0.001356125,-0.00128746,0,
00:01.5,0.001087189,-0.001356125,-0.001235962,0,
00:01.5,0.001098633,-0.001350403,-0.00120163,0,
00:01.5,0.001110077,-0.001350403,-0.001218796,0,
00:01.5,0.001098633,-0.001361847,-0.001213074,0,
00:01.5,0.001087189,-0.001361847,-0.001247406,0,
00:01.5,0.001087189,-0.001350403,-0.001241684,0,
00:01.5,0.001087189,-0.001350403,-0.00123024,0,
00:01.5,0.001087189,-0.001356125,-0.001207352,0,
00:01.5,0.001098633,-0.001367569,-0.001213074,0,
00:01.5,0.001087189,-0.001390457,-0.001247406,0,
00:01.5,0.001087189,-0.001384735,-0.001235962,0,
00:01.5,0.001087189,-0.001361847,-0.001235962,0,
00:01.5,0.001075745,-0.001350403,-0.001224518,0,
00:01.5,0.001087189,-0.001361847,-0.001253128,0,
00:01.6,0.001081467,-0.001373291,-0.001253128,0,
00:01.6,0.001075745,-0.001350403,-0.001224518,0,
00:01.6,0.001087189,-0.001327515,-0.001241684,0,
00:01.6,0.001092911,-0.001350403,-0.00120163,0,
00:01.6,0.001098633,-0.001356125,-0.00125885,0,
00:01.6,0.001087189,-0.001361847,-0.001235962,0,
00:01.6,0.001075745,-0.001356125,-0.00123024,0,
00:01.6,0.001070023,-0.001350403,-0.001247406,0,
00:01.6,0.001087189,-0.001338959,-0.001224518,0,
00:01.6,0.001092911,-0.001338959,-0.00120163,0,
00:01.6,0.001070023,-0.001344681,-0.00120163,0,
00:01.6,0.001070023,-0.001350403,-0.001247406,0,
00:01.6,0.001098633,-0.001338959,-0.00125885,0,
00:01.6,0.001087189,-0.001350403,-0.001213074,0,
00:01.6,0.001110077,-0.001350403,-0.001213074,0,
00:01.6,0.001087189,-0.001350403,-0.001235962,0,
00:01.6,0.001081467,-0.001356125,-0.00125885,0,
00:01.6,0.001064301,-0.001350403,-0.001253128,0,
00:01.6,0.001081467,-0.001361847,-0.001235962,0,
00:01.6,0.001092911,-0.001361847,-0.001213074,0,
00:01.6,0.001092911,-0.001361847,-0.001264572,0,
00:01.6,0.001121521,-0.001350403,-0.001293182,0,
00:01.6,0.001098633,-0.001344681,-0.00125885,0,
00:01.6,0.001081467,-0.001338959,-0.001195908,0,
00:01.6,0.001075745,-0.001344681,-0.00123024,0,
00:01.7,0.001087189,-0.001350403,-0.001235962,0,
00:01.7,0.001092911,-0.001344681,-0.001247406,0,
00:01.7,0.001092911,-0.001350403,-0.001253128,0,
00:01.7,0.001075745,-0.001356125,-0.001213074,0,
00:01.7,0.001087189,-0.001338959,-0.001218796,0,
00:01.7,0.001092911,-0.001350403,-0.001218796,0,
00:01.7,0.001087189,-0.001356125,-0.00123024,0,
00:01.7,0.001087189,-0.001356125,-0.001235962,0,
00:01.7,0.001087189,-0.001361847,-0.00123024,0,
00:01.7,0.001087189,-0.001350403,-0.001235962,0,
00:01.7,0.001075745,-0.001344681,-0.001224518,0,
00:01.7,0.001029968,-0.001361847,-0.001241684,0,
00:01.7,0.001121521,-0.001344681,-0.001264572,0,
00:01.7,0.001138687,-0.001338959,-0.001276016,0,
00:01.7,0.001092911,-0.001344681,-0.001247406,0,
00:01.7,0.001092911,-0.001350403,-0.001241684,0,
00:01.7,0.001092911,-0.001350403,-0.001235962,0,
00:01.7,0.001092911,-0.001344681,-0.001213074,0,
00:01.7,0.001092911,-0.001338959,-0.001218796,0,
00:01.7,0.001104355,-0.001327515,-0.00125885,0,
00:01.7,0.001104355,-0.001344681,-0.00125885,0,
00:01.7,0.001070023,-0.001361847,-0.00125885,0,
00:01.7,0.001058578,-0.001361847,-0.001218796,0,
00:01.7,0.001087189,-0.001367569,-0.001218796,0,
00:01.7,0.001087189,-0.001373291,-0.001253128,0,
00:01.8,0.001075745,-0.001361847,-0.001270294,0,
00:01.8,0.001092911,-0.001333237,-0.001304626,0,
00:01.8,0.001104355,-0.001321793,-0.001207352,0,
00:01.8,0.001115799,-0.001333237,-0.001195908,0,
00:01.8,0.001047134,-0.001344681,-0.001241684,0,
00:01.8,0.001024246,-0.001350403,-0.001218796,0,
00:01.8,0.001110077,-0.001333237,-0.001247406,0,
00:01.8,0.001150131,-0.001327515,-0.001281738,0,
00:01.8,0.001121521,-0.001338959,-0.00125885,0,
00:01.8,0.001092911,-0.001367569,-0.001207352,0,
00:01.8,0.001075745,-0.001367569,-0.00120163,0,
00:01.8,0.001075745,-0.001344681,-0.001241684,0,
00:01.8,0.001087189,-0.001338959,-0.001264572,0,
00:01.8,0.001092911,-0.001333237,-0.001276016,0,
00:01.8,0.001087189,-0.001321793,-0.00125885,0,
00:01.8,0.001087189,-0.001316071,-0.00123024,0,
00:01.8,0.001075745,-0.001321793,-0.001235962,0,
00:01.8,0.001075745,-0.001338959,-0.001247406,0,
00:01.8,0.001081467,-0.001344681,-0.00123024,0,
00:01.8,0.001087189,-0.001338959,-0.00125885,0,
00:01.8,0.001098633,-0.001327515,-0.001270294,0,
00:01.8,0.001081467,-0.001327515,-0.001253128,0,
00:01.8,0.001070023,-0.001344681,-0.001241684,0,
00:01.8,0.001070023,-0.001367569,-0.001235962,0,
00:01.8,0.001075745,-0.001373291,-0.001253128,0,
00:01.9,0.001081467,-0.001350403,-0.001253128,0,
00:01.9,0.001070023,-0.001327515,-0.001213074,0,
00:01.9,0.001081467,-0.001327515,-0.001224518,0,
00:01.9,0.001075745,-0.001321793,-0.001235962,0,
00:01.9,0.001092911,-0.001327515,-0.00123024,0,
00:01.9,0.001064301,-0.001356125,-0.001264572,0,
00:01.9,0.001047134,-0.001373291,-0.001241684,0,
00:01.9,0.001041412,-0.001361847,-0.001224518,0,
00:01.9,0.001081467,-0.001333237,-0.001264572,0,
00:01.9,0.001058578,-0.001327515,-0.001253128,0,
00:01.9,0.001070023,-0.001316071,-0.001241684,0,
00:01.9,0.001075745,-0.001333237,-0.001247406,0,
00:01.9,0.001070023,-0.001384735,-0.00125885,0,
00:01.9,0.001064301,-0.001424789,-0.001247406,0,
00:01.9,0.001064301,-0.001379013,-0.001264572,0,
00:01.9,0.001058578,-0.001316071,-0.001264572,0,
00:01.9,0.001081467,-0.001298904,-0.001270294,0,
00:01.9,0.001081467,-0.001304626,-0.001276016,0,
00:01.9,0.001087189,-0.001298904,-0.001276016,0,
00:01.9,0.001052856,-0.001310349,-0.00125885,0,
00:01.9,0.001041412,-0.001316071,-0.001207352,0,
00:01.9,0.001098633,-0.001293182,-0.001253128,0,
00:01.9,0.001092911,-0.001293182,-0.001264572,0,
00:01.9,0.001058578,-0.001316071,-0.001241684,0,
00:01.9,0.001070023,-0.001304626,-0.001253128,0,
00:02.0,0.001081467,-0.001316071,-0.001241684,0,
00:02.0,0.001081467,-0.001316071,-0.001281738,0,
00:02.0,0.001047134,-0.001338959,-0.001235962,0,
00:02.0,0.001081467,-0.001350403,-0.00120163,0,
00:02.0,0.001070023,-0.001333237,-0.001253128,0,
00:02.0,0.001058578,-0.001316071,-0.001253128,0,
00:02.0,0.001064301,-0.001316071,-0.001235962,0,
00:02.0,0.001075745,-0.001310349,-0.001247406,0,
00:02.0,0.001064301,-0.001316071,-0.001264572,0,
00:02.0,0.001052856,-0.001327515,-0.001264572,0,
00:02.0,0.001081467,-0.001338959,-0.001281738,0,
00:02.0,0.001058578,-0.001361847,-0.00125885,0,
00:00:02,0.001058578,-0.001361847,-0.001247406,0,
00:02.0,0.001075745,-0.001327515,-0.001241684,0,
00:02.0,0.001064301,-0.001293182,-0.001270294,0,
00:02.0,0.001047134,-0.001293182,-0.001276016,0,
00:02.0,0.001047134,-0.001310349,-0.00123024,0,
00:02.0,0.001081467,-0.001321793,-0.001224518,0,
00:02.0,0.001075745,-0.001316071,-0.00128746,0,
00:02.0,0.001001358,-0.001321793,-0.001293182,0,
00:02.0,0.001041412,-0.001333237,-0.001178741,0,
00:02.0,0.001081467,-0.001316071,-0.001218796,0,
00:02.0,0.001081467,-0.001321793,-0.001264572,0,
00:02.0,0.001064301,-0.001316071,-0.00125885,0,
00:02.0,0.001052856,-0.001316071,-0.001264572,0,
00:02.1,0.001058578,-0.001321793,-0.001276016,0,
00:02.1,0.001058578,-0.001316071,-0.00123024,0,
00:02.1,0.001064301,-0.001316071,-0.00123024,0,
00:02.1,0.001075745,-0.001327515,-0.00125885,0,
00:02.1,0.001058578,-0.001333237,-0.001264572,0,
00:02.1,0.001047134,-0.001338959,-0.001207352,0,
00:02.1,0.001047134,-0.001321793,-0.001235962,0,
00:02.1,0.001058578,-0.001304626,-0.001270294,0,
00:02.1,0.001052856,-0.001310349,-0.00125885,0,
00:02.1,0.001058578,-0.001310349,-0.001293182,0,
00:02.1,0.001064301,-0.001316071,-0.00125885,0,
00:02.1,0.001075745,-0.001327515,-0.001213074,0,
00:02.1,0.001047134,-0.001333237,-0.001218796,0,
00:02.1,0.001047134,-0.001327515,-0.001241684,0,
00:02.1,0.001047134,-0.001327515,-0.001247406,0,
00:02.1,0.001064301,-0.001316071,-0.001241684,0,
00:02.1,0.001047134,-0.001321793,-0.00123024,0,
00:02.1,0.00103569,-0.001327515,-0.001247406,0,
00:02.1,0.001070023,-0.001327515,-0.001270294,0,
00:02.1,0.001052856,-0.001327515,-0.001281738,0,
00:02.1,0.001047134,-0.001350403,-0.001281738,0,
00:02.1,0.001052856,-0.001321793,-0.00120163,0,
00:02.1,0.001029968,-0.001298904,-0.001195908,0,
00:02.1,0.001047134,-0.001344681,-0.001224518,0,
00:02.1,0.001070023,-0.001350403,-0.001241684,0,
00:02.2,0.001047134,-0.001333237,-0.001235962,0,
00:02.2,0.001058578,-0.00128746,-0.00125885,0,
00:02.2,0.001064301,-0.00128746,-0.001241684,0,
00:02.2,0.001058578,-0.001304626,-0.00123024,0,
00:02.2,0.001058578,-0.001310349,-0.001270294,0,
00:02.2,0.001058578,-0.001304626,-0.00128746,0,
00:02.2,0.001064301,-0.001304626,-0.001241684,0,
00:02.2,0.001058578,-0.001310349,-0.001213074,0,
00:02.2,0.001052856,-0.001316071,-0.001218796,0,
00:02.2,0.001041412,-0.001327515,-0.00123024,0,
00:02.2,0.001041412,-0.001321793,-0.001241684,0,
00:02.2,0.001041412,-0.001316071,-0.001276016,0,
00:02.2,0.001041412,-0.001310349,-0.001247406,0,
00:02.2,0.001041412,-0.001304626,-0.001241684,0,
00:02.2,0.001075745,-0.001298904,-0.001253128,0,
00:02.2,0.001064301,-0.001304626,-0.001298904,0,
00:02.2,0.001029968,-0.001316071,-0.001247406,0,
00:02.2,0.001058578,-0.001316071,-0.001184464,0,
00:02.2,0.001041412,-0.001310349,-0.001207352,0,
00:02.2,0.001024246,-0.001304626,-0.001247406,0,
00:02.2,0.001041412,-0.001310349,-0.001247406,0,
00:02.2,0.001052856,-0.001321793,-0.001241684,0,
00:02.2,0.001041412,-0.001316071,-0.001253128,0,
00:02.2,0.001012802,-0.001298904,-0.00128746,0,
00:02.2,0.001070023,-0.001316071,-0.001270294,0,
00:02.3,0.001047134,-0.001327515,-0.001207352,0,
00:02.3,0.001047134,-0.001338959,-0.001195908,0,
00:02.3,0.00103569,-0.001327515,-0.00123024,0,
00:02.3,0.001052856,-0.001316071,-0.001253128,0,
00:02.3,0.001052856,-0.001310349,-0.001264572,0,
00:02.3,0.001041412,-0.001298904,-0.001241684,0,
00:02.3,0.001047134,-0.001293182,-0.00123024,0,
00:02.3,0.001041412,-0.001298904,-0.001264572,0,
00:02.3,0.001064301,-0.001304626,-0.001264572,0,
00:02.3,0.001047134,-0.001316071,-0.00125885,0,
00:02.3,0.00103569,-0.001310349,-0.001218796,0,
00:02.3,0.001024246,-0.001327515,-0.001235962,0,
00:02.3,0.001041412,-0.001338959,-0.00125885,0,
00:02.3,0.00103569,-0.001316071,-0.001270294,0,
00:02.3,0.001029968,-0.001293182,-0.00123024,0,
00:02.3,0.001024246,-0.001281738,-0.001207352,0,
00:02.3,0.001047134,-0.001298904,-0.001247406,0,
00:02.3,0.001058578,-0.001304626,-0.001276016,0,
00:02.3,0.001041412,-0.001310349,-0.001241684,0,
00:02.3,0.00103569,-0.001321793,-0.001264572,0,
00:02.3,0.001041412,-0.001316071,-0.001264572,0,
00:02.3,0.001029968,-0.001298904,-0.001218796,0,
00:02.3,0.00103569,-0.001298904,-0.001247406,0,
00:02.3,0.001052856,-0.001293182,-0.001270294,0,
00:02.3,0.001041412,-0.00128746,-0.001224518,0,
00:02.4,0.00103569,-0.001298904,-0.001235962,0,
00:02.4,0.00103569,-0.001298904,-0.00125885,0,
00:02.4,0.001047134,-0.001298904,-0.001276016,0,
00:02.4,0.001058578,-0.001298904,-0.001235962,0,
00:02.4,0.001047134,-0.001304626,-0.001241684,0,
00:02.4,0.001018524,-0.001316071,-0.001276016,0,
00:02.4,0.001041412,-0.001321793,-0.001218796,0,
00:02.4,0.001047134,-0.001304626,-0.001235962,0,
00:02.4,0.001047134,-0.001293182,-0.001253128,0,
00:02.4,0.001041412,-0.00128746,-0.00128746,0,
00:02.4,0.001052856,-0.00128746,-0.001321793,0,
00:02.4,0.001052856,-0.00128746,-0.001270294,0,
00:02.4,0.001024246,-0.001304626,-0.00123024,0,
00:02.4,0.00100708,-0.001310349,-0.001218796,0,
00:02.4,0.001024246,-0.001304626,-0.001264572,0,
00:02.4,0.001052856,-0.001321793,-0.001235962,0,
00:02.4,0.001041412,-0.001310349,-0.001293182,0,
00:02.4,0.001052856,-0.00128746,-0.001276016,0,
00:02.4,0.001029968,-0.001281738,-0.00125885,0,
00:02.4,0.00103569,-0.00128746,-0.001253128,0,
00:02.4,0.001047134,-0.00128746,-0.001235962,0,
00:02.4,0.00103569,-0.001298904,-0.001241684,0,
00:02.4,0.00103569,-0.001298904,-0.001235962,0,
00:02.4,0.001047134,-0.001298904,-0.001264572,0,
00:02.4,0.001018524,-0.001298904,-0.001264572,0,
00:02.5,0.001018524,-0.001304626,-0.001247406,0,
00:02.5,0.00103569,-0.001304626,-0.001253128,0,
00:02.5,0.001058578,-0.001298904,-0.00125885,0,
00:02.5,0.001075745,-0.001293182,-0.001270294,0,
00:02.5,0.00103569,-0.001281738,-0.001298904,0,
00:02.5,0.001029968,-0.001281738,-0.001276016,0,
00:02.5,0.001029968,-0.001293182,-0.001264572,0,
00:02.5,0.001029968,-0.001293182,-0.001253128,0,
00:02.5,0.001041412,-0.001293182,-0.001270294,0,
00:02.5,0.00103569,-0.001281738,-0.00128746,0,
00:02.5,0.001052856,-0.00128746,-0.001310349,0,
00:02.5,0.001047134,-0.001276016,-0.001247406,0,
00:02.5,0.001024246,-0.001281738,-0.001293182,0,
00:02.5,0.000995636,-0.001304626,-0.001276016,0,
00:02.5,0.000972748,-0.001316071,-0.001213074,0,
00:02.5,0.001075745,-0.001293182,-0.001264572,0,
00:02.5,0.001058578,-0.001281738,-0.00128746,0,
00:02.5,0.00103569,-0.001281738,-0.001253128,0,
00:02.5,0.00103569,-0.001281738,-0.001241684,0,
00:02.5,0.001012802,-0.001281738,-0.001247406,0,
00:02.5,0.001001358,-0.001281738,-0.001264572,0,
00:02.5,0.001052856,-0.001281738,-0.00128746,0,
00:02.5,0.00103569,-0.001293182,-0.001253128,0,
00:02.5,0.001029968,-0.001293182,-0.001270294,0,
00:02.5,0.001018524,-0.001298904,-0.001310349,0,
00:02.6,0.001018524,-0.001298904,-0.001298904,0,
00:02.6,0.00103569,-0.00128746,-0.001264572,0,
00:02.6,0.001029968,-0.001293182,-0.001241684,0,
00:02.6,0.001024246,-0.001304626,-0.001253128,0,
00:02.6,0.001029968,-0.001281738,-0.001276016,0,
00:02.6,0.001058578,-0.001253128,-0.001321793,0,
00:02.6,0.001052856,-0.001253128,-0.001293182,0,
00:02.6,0.001024246,-0.001281738,-0.001207352,0,
00:02.6,0.001001358,-0.001304626,-0.001213074,0,
00:02.6,0.00100708,-0.001310349,-0.001247406,0,
00:02.6,0.00100708,-0.001293182,-0.001270294,0,
00:02.6,0.001012802,-0.00125885,-0.001298904,0,
00:02.6,0.001012802,-0.001264572,-0.001264572,0,
00:02.6,0.00103569,-0.001281738,-0.001207352,0,
00:02.6,0.00100708,-0.001293182,-0.001264572,0,
00:02.6,0.001012802,-0.001293182,-0.001253128,0,
00:02.6,0.001029968,-0.001281738,-0.001247406,0,
00:02.6,0.001024246,-0.00125885,-0.001281738,0,
00:02.6,0.001012802,-0.001264572,-0.001298904,0,
00:02.6,0.001024246,-0.001264572,-0.001298904,0,
00:02.6,0.001024246,-0.001264572,-0.00125885,0,
00:02.6,0.001024246,-0.001264572,-0.001276016,0,
00:02.6,0.001029968,-0.001270294,-0.00125885,0,
00:02.6,0.001012802,-0.001270294,-0.00125885,0,
00:02.6,0.001018524,-0.001276016,-0.001281738,0,
00:02.7,0.001024246,-0.001281738,-0.001293182,0,
00:02.7,0.001012802,-0.001281738,-0.001224518,0,
00:02.7,0.00100708,-0.001281738,-0.001247406,0,
00:02.7,0.00100708,-0.001281738,-0.00125885,0,
00:02.7,0.001012802,-0.001281738,-0.001264572,0,
00:02.7,0.001024246,-0.001293182,-0.001241684,0,
00:02.7,0.00097847,-0.001298904,-0.00128746,0,
00:02.7,0.001001358,-0.001276016,-0.001264572,0,
00:02.7,0.001012802,-0.001264572,-0.001224518,0,
00:02.7,0.000995636,-0.001276016,-0.001241684,0,
00:02.7,0.001024246,-0.001281738,-0.001270294,0,
00:02.7,0.001024246,-0.001281738,-0.00128746,0,
00:02.7,0.001024246,-0.001293182,-0.001316071,0,
00:02.7,0.001029968,-0.001281738,-0.001304626,0,
00:02.7,0.001012802,-0.001270294,-0.001253128,0,
00:02.7,0.001001358,-0.001270294,-0.001235962,0,
00:02.7,0.000995636,-0.001281738,-0.001253128,0,
00:02.7,0.001012802,-0.001270294,-0.001247406,0,
00:02.7,0.001024246,-0.00125885,-0.00125885,0,
00:02.7,0.001012802,-0.00125885,-0.001276016,0,
00:02.7,0.00100708,-0.001270294,-0.001264572,0,
00:02.7,0.00100708,-0.001270294,-0.001264572,0,
00:02.7,0.001001358,-0.001264572,-0.001270294,0,
00:02.7,0.000989914,-0.001270294,-0.001270294,0,
00:02.7,0.001018524,-0.001264572,-0.001247406,0,
00:02.8,0.000989914,-0.001264572,-0.001241684,0,
00:02.8,0.001001358,-0.001270294,-0.001253128,0,
00:02.8,0.00100708,-0.001264572,-0.001281738,0,
00:02.8,0.001041412,-0.001276016,-0.001264572,0,
00:02.8,0.00100708,-0.001270294,-0.001276016,0,
00:02.8,0.00100708,-0.001264572,-0.001298904,0,
00:02.8,0.000995636,-0.001264572,-0.001293182,0,
00:02.8,0.001012802,-0.001276016,-0.001298904,0,
00:02.8,0.001024246,-0.00128746,-0.001276016,0,
00:02.8,0.00100708,-0.00128746,-0.001235962,0,
00:02.8,0.000989914,-0.001270294,-0.001235962,0,
00:02.8,0.000995636,-0.00125885,-0.001270294,0,
00:02.8,0.00100708,-0.001253128,-0.001281738,0,
00:02.8,0.000995636,-0.00125885,-0.001247406,0,
00:02.8,0.001001358,-0.001270294,-0.00128746,0,
00:02.8,0.00100708,-0.001264572,-0.001264572,0,
00:02.8,0.00100708,-0.00125885,-0.001264572,0,
00:02.8,0.001001358,-0.001264572,-0.001253128,0,
00:02.8,0.000995636,-0.001253128,-0.001264572,0,
00:02.8,0.001001358,-0.001247406,-0.001264572,0,
00:02.8,0.001024246,-0.001253128,-0.001310349,0,
00:02.8,0.00100708,-0.00125885,-0.001253128,0,
00:02.8,0.001001358,-0.001264572,-0.001235962,0,
00:02.8,0.001012802,-0.001264572,-0.001253128,0,
00:02.8,0.000995636,-0.00125885,-0.001304626,0,
00:02.9,0.000984192,-0.00125885,-0.001293182,0,
00:02.9,0.001001358,-0.001264572,-0.001253128,0,
00:02.9,0.000989914,-0.001264572,-0.001270294,0,
00:02.9,0.000989914,-0.001253128,-0.001281738,0,
00:02.9,0.00097847,-0.001247406,-0.001247406,0,
00:02.9,0.001012802,-0.001241684,-0.001241684,0,
00:02.9,0.001001358,-0.001253128,-0.001270294,0,
00:02.9,0.000984192,-0.001264572,-0.001264572,0,
00:02.9,0.00100708,-0.001270294,-0.001264572,0,
00:02.9,0.000995636,-0.001270294,-0.001270294,0,
00:02.9,0.001001358,-0.001247406,-0.001264572,0,
00:02.9,0.000984192,-0.001235962,-0.001264572,0,
00:02.9,0.001001358,-0.00123024,-0.00128746,0,
00:02.9,0.00100708,-0.001235962,-0.00125885,0,
00:02.9,0.00100708,-0.001247406,-0.001247406,0,
00:02.9,0.001001358,-0.001247406,-0.001253128,0,
00:02.9,0.000995636,-0.001247406,-0.001253128,0,
00:02.9,0.001001358,-0.001247406,-0.001264572,0,
00:02.9,0.001012802,-0.001253128,-0.001276016,0,
00:02.9,0.001001358,-0.00125885,-0.001321793,0,
00:02.9,0.000995636,-0.001264572,-0.001293182,0,
00:02.9,0.000989914,-0.001264572,-0.001247406,0,
00:02.9,0.000995636,-0.001253128,-0.001247406,0,
00:02.9,0.000989914,-0.001247406,-0.00128746,0,
00:02.9,0.000995636,-0.00123024,-0.001264572,0,
00:03.0,0.00100708,-0.001235962,-0.001270294,0,
00:03.0,0.000995636,-0.001253128,-0.001298904,0,
00:03.0,0.000995636,-0.001264572,-0.001281738,0,
00:03.0,0.000972748,-0.001276016,-0.00123024,0,
00:03.0,0.000972748,-0.00128746,-0.001276016,0,
00:03.0,0.00097847,-0.001270294,-0.001298904,0,
00:03.0,0.00100708,-0.001253128,-0.001247406,0,
00:03.0,0.001001358,-0.00123024,-0.001247406,0,
00:03.0,0.001012802,-0.001224518,-0.001293182,0,
00:03.0,0.001012802,-0.00123024,-0.001298904,0,
00:03.0,0.000984192,-0.001241684,-0.001281738,0,
00:03.0,0.000995636,-0.001247406,-0.001293182,0,
00:00:03,0.000995636,-0.00125885,-0.001281738,0,
00:03.0,0.000989914,-0.001247406,-0.001264572,0,
00:03.0,0.000995636,-0.001224518,-0.001276016,0,
00:03.0,0.001012802,-0.00123024,-0.001264572,0,
00:03.0,0.00100708,-0.001241684,-0.001253128,0,
00:03.0,0.001001358,-0.001241684,-0.001276016,0,
00:03.0,0.001012802,-0.001241684,-0.001298904,0,
00:03.0,0.001001358,-0.001247406,-0.001270294,0,
00:03.0,0.001012802,-0.001247406,-0.001281738,0,
00:03.0,0.00100708,-0.001247406,-0.00128746,0,
00:03.0,0.000967026,-0.001247406,-0.001264572,0,
00:03.0,0.000938416,-0.001247406,-0.001253128,0,
00:03.0,0.000972748,-0.001241684,-0.00125885,0,
00:03.1,0.001047134,-0.00123024,-0.001298904,0,
00:03.1,0.001012802,-0.001253128,-0.001344681,0,
00:03.1,0.00100708,-0.001247406,-0.001298904,0,
00:03.1,0.000995636,-0.001235962,-0.00125885,0,
00:03.1,0.00097847,-0.001247406,-0.001253128,0,
00:03.1,0.001001358,-0.001241684,-0.001264572,0,
00:03.1,0.001012802,-0.00123024,-0.00128746,0,
00:03.1,0.001012802,-0.00123024,-0.001298904,0,
00:03.1,0.001012802,-0.001241684,-0.001293182,0,
00:03.1,0.000995636,-0.001264572,-0.00125885,0,
00:03.1,0.000995636,-0.00125885,-0.001253128,0,
00:03.1,0.000989914,-0.00123024,-0.001270294,0,
00:03.1,0.000984192,-0.001224518,-0.00128746,0,
00:03.1,0.001012802,-0.00123024,-0.001321793,0,
00:03.1,0.00100708,-0.00123024,-0.00128746,0,
00:03.1,0.00100708,-0.001247406,-0.001264572,0,
00:03.1,0.00100708,-0.001247406,-0.00128746,0,
00:03.1,0.000984192,-0.001253128,-0.00128746,0,
00:03.1,0.000995636,-0.00125885,-0.001310349,0,
00:03.1,0.000995636,-0.001241684,-0.001327515,0,
00:03.1,0.000989914,-0.001241684,-0.001298904,0,
00:03.1,0.001001358,-0.00123024,-0.001293182,0,
00:03.1,0.000967026,-0.001241684,-0.00128746,0,
00:03.1,0.000938416,-0.001276016,-0.001241684,0,
00:03.1,0.001024246,-0.001281738,-0.001304626,0,
00:03.2,0.00100708,-0.00125885,-0.001310349,0,
00:03.2,0.000984192,-0.00123024,-0.001276016,0,
00:03.2,0.000995636,-0.001207352,-0.00128746,0,
00:03.2,0.000995636,-0.001213074,-0.001310349,0,
00:03.2,0.001018524,-0.001218796,-0.001293182,0,
00:03.2,0.00097847,-0.00123024,-0.00128746,0,
00:03.2,0.00097847,-0.00123024,-0.00128746,0,
00:03.2,0.001012802,-0.00123024,-0.001270294,0,
00:03.2,0.000989914,-0.001218796,-0.001281738,0,
00:03.2,0.00100708,-0.001218796,-0.001293182,0,
00:03.2,0.001029968,-0.001218796,-0.001333237,0,
00:03.2,0.000984192,-0.001224518,-0.001316071,0,
00:03.2,0.000972748,-0.001241684,-0.001281738,0,
00:03.2,0.00097847,-0.001241684,-0.00128746,0,
00:03.2,0.000989914,-0.001241684,-0.001316071,0,
00:03.2,0.000995636,-0.001253128,-0.001310349,0,
00:03.2,0.000984192,-0.00125885,-0.001281738,0,
00:03.2,0.000984192,-0.001241684,-0.001316071,0,
00:03.2,0.000989914,-0.001224518,-0.001327515,0,
00:03.2,0.000984192,-0.00123024,-0.001270294,0,
00:03.2,0.000972748,-0.001235962,-0.001253128,0,
00:03.2,0.000995636,-0.00123024,-0.00128746,0,
00:03.2,0.00100708,-0.001224518,-0.001316071,0,
00:03.2,0.001024246,-0.00123024,-0.001327515,0,
00:03.2,0.001012802,-0.001235962,-0.00128746,0,
00:03.3,0.00094986,-0.00125885,-0.001253128,0,
00:03.3,0.000961304,-0.00125885,-0.001276016,0,
00:03.3,0.001018524,-0.00123024,-0.00128746,0,
00:03.3,0.001012802,-0.00120163,-0.001298904,0,
00:03.3,0.000995636,-0.001213074,-0.001298904,0,
00:03.3,0.000989914,-0.001213074,-0.001327515,0,
00:03.3,0.000984192,-0.00120163,-0.001338959,0,
00:03.3,0.000989914,-0.001218796,-0.001281738,0,
00:03.3,0.000989914,-0.00123024,-0.001276016,0,
00:03.3,0.000989914,-0.00123024,-0.001293182,0,
00:03.3,0.000984192,-0.00123024,-0.001316071,0,
00:03.3,0.000972748,-0.00123024,-0.001298904,0,
00:03.3,0.00097847,-0.00123024,-0.001293182,0,
00:03.3,0.001018524,-0.001224518,-0.001276016,0,
00:03.3,0.001001358,-0.001224518,-0.001276016,0,
00:03.3,0.00100708,-0.001224518,-0.001321793,0,
00:03.3,0.000967026,-0.001224518,-0.001321793,0,
00:03.3,0.000989914,-0.001235962,-0.00128746,0,
00:03.3,0.001001358,-0.001241684,-0.00125885,0,
00:03.3,0.001001358,-0.001241684,-0.001281738,0,
00:03.3,0.000967026,-0.00123024,-0.001281738,0,
00:03.3,0.000961304,-0.001224518,-0.001316071,0,
00:03.3,0.000984192,-0.001218796,-0.00128746,0,
00:03.3,0.001001358,-0.001207352,-0.001316071,0,
00:03.3,0.001001358,-0.00120163,-0.001316071,0,
00:03.4,0.001001358,-0.001213074,-0.001281738,0,
00:03.4,0.000984192,-0.001213074,-0.00128746,0,
00:03.4,0.000995636,-0.001213074,-0.001276016,0,
00:03.4,0.000984192,-0.001224518,-0.001316071,0,
00:03.4,0.000984192,-0.001235962,-0.001310349,0,
00:03.4,0.000989914,-0.001235962,-0.001298904,0,
00:03.4,0.000989914,-0.001235962,-0.001270294,0,
00:03.4,0.000984192,-0.001218796,-0.001298904,0,
00:03.4,0.000967026,-0.001213074,-0.001298904,0,
00:03.4,0.001018524,-0.001213074,-0.001316071,0,
00:03.4,0.000995636,-0.001213074,-0.001333237,0,
00:03.4,0.001001358,-0.001218796,-0.001304626,0,
00:03.4,0.00097847,-0.001224518,-0.001276016,0,
00:03.4,0.00097847,-0.00123024,-0.00128746,0,
00:03.4,0.000984192,-0.001224518,-0.001276016,0,
00:03.4,0.000995636,-0.001224518,-0.001281738,0,
00:03.4,0.000995636,-0.001207352,-0.001304626,0,
00:03.4,0.000989914,-0.001213074,-0.001298904,0,
00:03.4,0.000972748,-0.001218796,-0.001293182,0,
00:03.4,0.000932693,-0.00123024,-0.001276016,0,
00:03.4,0.000995636,-0.001218796,-0.001310349,0,
00:03.4,0.001029968,-0.001213074,-0.001350403,0,
00:03.4,0.000989914,-0.001213074,-0.001298904,0,
00:03.4,0.000989914,-0.00120163,-0.001281738,0,
00:03.4,0.000972748,-0.001213074,-0.001293182,0,
00:03.5,0.00097847,-0.001213074,-0.001293182,0,
00:03.5,0.00097847,-0.001213074,-0.001293182,0,
00:03.5,0.000972748,-0.001218796,-0.001281738,0,
00:03.5,0.00097847,-0.001218796,-0.001276016,0,
00:03.5,0.000984192,-0.001213074,-0.001304626,0,
00:03.5,0.000984192,-0.001213074,-0.001321793,0,
00:03.5,0.000972748,-0.001213074,-0.001321793,0,
00:03.5,0.00097847,-0.001207352,-0.001333237,0,
00:03.5,0.000995636,-0.00120163,-0.001281738,0,
00:03.5,0.000989914,-0.00120163,-0.001276016,0,
00:03.5,0.000984192,-0.001207352,-0.00128746,0,
00:03.5,0.000961304,-0.001218796,-0.001327515,0,
00:03.5,0.000972748,-0.001213074,-0.001298904,0,
00:03.5,0.000984192,-0.001207352,-0.001304626,0,
00:03.5,0.000961304,-0.00120163,-0.00128746,0,
00:03.5,0.000961304,-0.001218796,-0.001276016,0,
00:03.5,0.00097847,-0.00123024,-0.00128746,0,
00:03.5,0.000972748,-0.00123024,-0.001281738,0,
00:03.5,0.000967026,-0.001213074,-0.001338959,0,
00:03.5,0.000972748,-0.001213074,-0.001316071,0,
00:03.5,0.000972748,-0.001213074,-0.001316071,0,
00:03.5,0.000967026,-0.001218796,-0.00128746,0,
00:03.5,0.000972748,-0.001207352,-0.001304626,0,
00:03.5,0.000984192,-0.001190186,-0.001316071,0,
00:03.5,0.000995636,-0.001184464,-0.001293182,0,
00:03.6,0.00097847,-0.001195908,-0.00128746,0,
00:03.6,0.000984192,-0.001207352,-0.00128746,0,
00:03.6,0.00097847,-0.001207352,-0.001310349,0,
00:03.6,0.00097847,-0.00120163,-0.001310349,0,
00:03.6,0.000984192,-0.00120163,-0.001321793,0,
00:03.6,0.000972748,-0.001195908,-0.001321793,0,
00:03.6,0.00094986,-0.00120163,-0.001270294,0,
00:03.6,0.000961304,-0.00120163,-0.001276016,0,
00:03.6,0.00097847,-0.001195908,-0.001304626,0,
00:03.6,0.000995636,-0.001195908,-0.001316071,0,
00:03.6,0.000989914,-0.00120163,-0.001321793,0,
00:03.6,0.000961304,-0.001207352,-0.001270294,0,
00:03.6,0.000961304,-0.00120163,-0.001298904,0,
00:03.6,0.000967026,-0.00120163,-0.001298904,0,
00:03.6,0.000967026,-0.00120163,-0.001316071,0,
00:03.6,0.000955582,-0.001190186,-0.001310349,0,
00:03.6,0.000898361,-0.00120163,-0.001264572,0,
00:03.6,0.000904083,-0.001218796,-0.001298904,0,
00:03.6,0.000995636,-0.001224518,-0.001321793,0,
00:03.6,0.001001358,-0.001218796,-0.001361847,0,
00:03.6,0.000961304,-0.001213074,-0.001281738,0,
00:03.6,0.000972748,-0.00120163,-0.00125885,0,
00:03.6,0.00097847,-0.001190186,-0.001276016,0,
00:03.6,0.000961304,-0.001184464,-0.001373291,0,
00:03.6,0.000967026,-0.00120163,-0.001344681,0,
00:03.7,0.00097847,-0.001207352,-0.001264572,0,
00:03.7,0.000972748,-0.001195908,-0.001298904,0,
00:03.7,0.000972748,-0.001195908,-0.001304626,0,
00:03.7,0.000967026,-0.001207352,-0.001304626,0,
00:03.7,0.000967026,-0.001213074,-0.001316071,0,
00:03.7,0.000955582,-0.001207352,-0.001327515,0,
00:03.7,0.000967026,-0.001195908,-0.001293182,0,
00:03.7,0.000967026,-0.001195908,-0.001298904,0,
00:03.7,0.000955582,-0.00120163,-0.001304626,0,
00:03.7,0.00094986,-0.001190186,-0.00128746,0,
00:03.7,0.000967026,-0.001190186,-0.00128746,0,
00:03.7,0.000944138,-0.001195908,-0.001304626,0,
00:03.7,0.000955582,-0.00120163,-0.001344681,0,
00:03.7,0.000967026,-0.00120163,-0.001344681,0,
00:03.7,0.000944138,-0.001195908,-0.00128746,0,
00:03.7,0.000938416,-0.001195908,-0.00125885,0,
00:03.7,0.000955582,-0.001207352,-0.001310349,0,
00:03.7,0.000961304,-0.001207352,-0.001333237,0,
00:03.7,0.000961304,-0.001190186,-0.001321793,0,
00:03.7,0.000967026,-0.001178741,-0.001333237,0,
00:03.7,0.000926971,-0.001184464,-0.001293182,0,
00:03.7,0.000938416,-0.00120163,-0.00128746,0,
00:03.7,0.000972748,-0.001207352,-0.001298904,0,
00:03.7,0.000955582,-0.001195908,-0.001350403,0,
00:03.7,0.000967026,-0.001190186,-0.001304626,0,
00:03.8,0.00094986,-0.001190186,-0.00128746,0,
00:03.8,0.00094986,-0.001184464,-0.001298904,0,
00:03.8,0.000955582,-0.001195908,-0.001310349,0,
00:03.8,0.000955582,-0.001190186,-0.001316071,0,
00:03.8,0.00097847,-0.001178741,-0.001333237,0,
00:03.8,0.000961304,-0.001178741,-0.001316071,0,
00:03.8,0.000955582,-0.001184464,-0.001310349,0,
00:03.8,0.00094986,-0.001195908,-0.00128746,0,
00:03.8,0.000955582,-0.001195908,-0.00128746,0,
00:03.8,0.000955582,-0.001195908,-0.001316071,0,
00:03.8,0.000944138,-0.00120163,-0.001344681,0,
00:03.8,0.000961304,-0.001195908,-0.001304626,0,
00:03.8,0.000944138,-0.001190186,-0.00128746,0,
00:03.8,0.000938416,-0.001184464,-0.001293182,0,
00:03.8,0.000944138,-0.001190186,-0.001338959,0,
00:03.8,0.00097847,-0.001190186,-0.001344681,0,
00:03.8,0.000926971,-0.001195908,-0.001298904,0,
00:03.8,0.000926971,-0.001184464,-0.001298904,0,
00:03.8,0.000944138,-0.001195908,-0.00128746,0,
00:03.8,0.000967026,-0.001195908,-0.001321793,0,
00:03.8,0.000955582,-0.001195908,-0.001304626,0,
00:03.8,0.000938416,-0.001190186,-0.001316071,0,
00:03.8,0.000955582,-0.001184464,-0.001310349,0,
00:03.8,0.000961304,-0.001167297,-0.001316071,0,
00:03.8,0.000961304,-0.001167297,-0.001333237,0,
00:03.9,0.000972748,-0.001178741,-0.00128746,0,
00:03.9,0.000938416,-0.001178741,-0.001321793,0,
00:03.9,0.000938416,-0.001178741,-0.001310349,0,
00:03.9,0.000944138,-0.001178741,-0.001298904,0,
00:03.9,0.000932693,-0.001195908,-0.001270294,0,
00:03.9,0.000932693,-0.001190186,-0.001304626,0,
00:03.9,0.000972748,-0.001173019,-0.001327515,0,
00:03.9,0.000938416,-0.001161575,-0.001338959,0,
00:03.9,0.000921249,-0.001167297,-0.001321793,0,
00:03.9,0.00094986,-0.001167297,-0.001333237,0,
00:03.9,0.000972748,-0.001173019,-0.001338959,0,
00:03.9,0.000967026,-0.001178741,-0.001304626,0,
00:03.9,0.00094986,-0.001184464,-0.001316071,0,
00:03.9,0.000938416,-0.001178741,-0.001304626,0,
00:03.9,0.000932693,-0.001184464,-0.001298904,0,
00:03.9,0.000932693,-0.001178741,-0.001310349,0,
00:03.9,0.000932693,-0.001178741,-0.001304626,0,
00:03.9,0.000938416,-0.001178741,-0.001338959,0,
00:03.9,0.000961304,-0.001173019,-0.001327515,0,
00:03.9,0.00094986,-0.001167297,-0.001304626,0,
00:03.9,0.000944138,-0.001173019,-0.001304626,0,
00:03.9,0.000955582,-0.001184464,-0.001298904,0,
00:03.9,0.00094986,-0.001184464,-0.001310349,0,
00:03.9,0.000961304,-0.001173019,-0.001338959,0,
00:03.9,0.00097847,-0.001161575,-0.001367569,0,
00:04.0,0.000932693,-0.001161575,-0.001338959,0,
00:04.0,0.000898361,-0.00120163,-0.001270294,0,
00:04.0,0.000944138,-0.001207352,-0.001310349,0,
00:04.0,0.000932693,-0.001195908,-0.001298904,0,
00:04.0,0.000955582,-0.001155853,-0.001367569,0,
00:04.0,0.00097847,-0.001132965,-0.001361847,0,
00:04.0,0.00094986,-0.001155853,-0.001338959,0,
00:04.0,0.000938416,-0.001167297,-0.001276016,0,
00:04.0,0.000944138,-0.001173019,-0.001293182,0,
00:04.0,0.000961304,-0.001178741,-0.001327515,0,
00:04.0,0.000938416,-0.001178741,-0.001327515,0,
00:04.0,0.000932693,-0.001178741,-0.001321793,0,
00:00:04,0.000944138,-0.001173019,-0.001321793,0,
00:04.0,0.000938416,-0.001167297,-0.001298904,0,
00:04.0,0.000926971,-0.001161575,-0.001298904,0,
00:04.0,0.000926971,-0.001155853,-0.001293182,0,
00:04.0,0.000967026,-0.001150131,-0.001333237,0,
00:04.0,0.000961304,-0.001155853,-0.001333237,0,
00:04.0,0.00094986,-0.001161575,-0.001327515,0,
00:04.0,0.000944138,-0.001167297,-0.001321793,0,
00:04.0,0.000898361,-0.001178741,-0.001321793,0,
00:04.0,0.000944138,-0.001178741,-0.001344681,0,
00:04.0,0.000967026,-0.001161575,-0.001316071,0,
00:04.0,0.000932693,-0.001144409,-0.001333237,0,
00:04.0,0.000915527,-0.001144409,-0.001310349,0,
00:04.1,0.000955582,-0.001161575,-0.001298904,0,
00:04.1,0.000938416,-0.001167297,-0.001327515,0,
00:04.1,0.000932693,-0.001184464,-0.001298904,0,
00:04.1,0.00094986,-0.001178741,-0.001304626,0,
00:04.1,0.00094986,-0.001161575,-0.001310349,0,
00:04.1,0.000944138,-0.001150131,-0.001321793,0,
00:04.1,0.000944138,-0.001155853,-0.001316071,0,
00:04.1,0.000944138,-0.001167297,-0.001333237,0,
00:04.1,0.000955582,-0.001161575,-0.001310349,0,
00:04.1,0.000938416,-0.001161575,-0.001304626,0,
00:04.1,0.000932693,-0.001150131,-0.001304626,0,
00:04.1,0.000938416,-0.001150131,-0.001316071,0,
00:04.1,0.000915527,-0.001167297,-0.001321793,0,
00:04.1,0.00094986,-0.001155853,-0.001310349,0,
00:04.1,0.000938416,-0.001155853,-0.001356125,0,
00:04.1,0.000921249,-0.001173019,-0.001361847,0,
00:04.1,0.000921249,-0.001178741,-0.001321793,0,
00:04.1,0.000915527,-0.001167297,-0.001310349,0,
00:04.1,0.000938416,-0.001150131,-0.001298904,0,
00:04.1,0.000944138,-0.001150131,-0.001344681,0,
00:04.1,0.000938416,-0.001178741,-0.001361847,0,
00:04.1,0.000932693,-0.001178741,-0.001270294,0,
00:04.1,0.000932693,-0.001155853,-0.001241684,0,
00:04.1,0.000938416,-0.001144409,-0.001310349,0,
00:04.1,0.000932693,-0.001132965,-0.001344681,0,
00:04.2,0.00094986,-0.001127243,-0.001327515,0,
00:04.2,0.000938416,-0.001138687,-0.001310349,0,
00:04.2,0.000944138,-0.001155853,-0.001333237,0,
00:04.2,0.00094986,-0.001161575,-0.001333237,0,
00:04.2,0.000932693,-0.001155853,-0.00128746,0,
00:04.2,0.000926971,-0.001150131,-0.001321793,0,
00:04.2,0.000921249,-0.001155853,-0.001304626,0,
00:04.2,0.000932693,-0.001155853,-0.001344681,0,
00:04.2,0.000938416,-0.001150131,-0.001401901,0,
00:04.2,0.000932693,-0.001150131,-0.001333237,0,
00:04.2,0.000938416,-0.001155853,-0.001281738,0,
00:04.2,0.000926971,-0.001155853,-0.001281738,0,
00:04.2,0.000921249,-0.001150131,-0.001316071,0,
00:04.2,0.000938416,-0.001132965,-0.001356125,0,
00:04.2,0.000944138,-0.001138687,-0.001447678,0,
00:04.2,0.000932693,-0.001150131,-0.001298904,0,
00:04.2,0.000904083,-0.001150131,-0.001253128,0,
00:04.2,0.000932693,-0.001155853,-0.001298904,0,
00:04.2,0.000938416,-0.001150131,-0.001276016,0,
00:04.2,0.000915527,-0.001144409,-0.001293182,0,
00:04.2,0.000921249,-0.001144409,-0.001310349,0,
00:04.2,0.000909805,-0.001150131,-0.001333237,0,
00:04.2,0.000921249,-0.001155853,-0.001310349,0,
00:04.2,0.000944138,-0.001155853,-0.001316071,0,
00:04.2,0.000909805,-0.001155853,-0.001338959,0,
00:04.3,0.000909805,-0.001155853,-0.001327515,0,
00:04.3,0.000921249,-0.001150131,-0.001327515,0,
00:04.3,0.000932693,-0.001138687,-0.001321793,0,
00:04.3,0.000932693,-0.001132965,-0.001327515,0,
00:04.3,0.000955582,-0.001138687,-0.001333237,0,
00:04.3,0.000932693,-0.001150131,-0.001344681,0,
00:04.3,0.000909805,-0.001155853,-0.001321793,0,
00:04.3,0.000926971,-0.001150131,-0.001350403,0,
00:04.3,0.000915527,-0.001150131,-0.001390457,0,
00:04.3,0.000921249,-0.001150131,-0.001298904,0,
00:04.3,0.000926971,-0.001144409,-0.001298904,0,
00:04.3,0.000915527,-0.001144409,-0.001344681,0,
00:04.3,0.000938416,-0.001144409,-0.001350403,0,
00:04.3,0.000938416,-0.001150131,-0.001327515,0,
00:04.3,0.000915527,-0.001161575,-0.001316071,0,
00:04.3,0.000898361,-0.001155853,-0.001293182,0,
00:04.3,0.000909805,-0.001144409,-0.001321793,0,
00:04.3,0.000921249,-0.001138687,-0.001316071,0,
00:04.3,0.000909805,-0.001138687,-0.001316071,0,
00:04.3,0.000921249,-0.001138687,-0.001356125,0,
00:04.3,0.000944138,-0.001132965,-0.001379013,0,
00:04.3,0.000915527,-0.001144409,-0.001327515,0,
00:04.3,0.000915527,-0.001144409,-0.001310349,0,
00:04.3,0.000909805,-0.001150131,-0.001310349,0,
00:04.3,0.000909805,-0.001150131,-0.001316071,0,
00:04.4,0.000921249,-0.001144409,-0.001333237,0,
00:04.4,0.000938416,-0.001132965,-0.001384735,0,
00:04.4,0.000898361,-0.001138687,-0.001384735,0,
00:04.4,0.000898361,-0.001132965,-0.001338959,0,
00:04.4,0.000926971,-0.001132965,-0.001276016,0,
00:04.4,0.000932693,-0.001144409,-0.001304626,0,
00:04.4,0.000909805,-0.001150131,-0.001310349,0,
00:04.4,0.000915527,-0.001138687,-0.001327515,0,
00:04.4,0.000915527,-0.001127243,-0.001379013,0,
00:04.4,0.000909805,-0.001121521,-0.001367569,0,
00:04.4,0.000926971,-0.001132965,-0.001344681,0,
00:04.4,0.000926971,-0.001132965,-0.001327515,0,
00:04.4,0.000898361,-0.001132965,-0.001321793,0,
00:04.4,0.000909805,-0.001127243,-0.001333237,0,
00:04.4,0.000909805,-0.001132965,-0.001327515,0,
00:04.4,0.000898361,-0.001138687,-0.001327515,0,
00:04.4,0.000921249,-0.001127243,-0.001338959,0,
00:04.4,0.000915527,-0.001127243,-0.001367569,0,
00:04.4,0.000915527,-0.001138687,-0.001356125,0,
00:04.4,0.000926971,-0.001150131,-0.001327515,0,
00:04.4,0.000904083,-0.001150131,-0.001338959,0,
00:04.4,0.000915527,-0.001127243,-0.001350403,0,
00:04.4,0.000909805,-0.001127243,-0.001316071,0,
00:04.4,0.000892639,-0.001144409,-0.001321793,0,
00:04.4,0.000904083,-0.001155853,-0.001338959,0,
00:04.5,0.000904083,-0.001144409,-0.001356125,0,
00:04.5,0.000904083,-0.001121521,-0.001367569,0,
00:04.5,0.000881195,-0.001115799,-0.001304626,0,
00:04.5,0.000886917,-0.001121521,-0.001298904,0,
00:04.5,0.000926971,-0.001115799,-0.001333237,0,
00:04.5,0.000932693,-0.001115799,-0.001338959,0,
00:04.5,0.000932693,-0.001110077,-0.001367569,0,
00:04.5,0.000926971,-0.001121521,-0.001356125,0,
00:04.5,0.000904083,-0.001121521,-0.001298904,0,
00:04.5,0.000904083,-0.001115799,-0.001316071,0,
00:04.5,0.000921249,-0.001121521,-0.001356125,0,
00:04.5,0.000898361,-0.001132965,-0.001379013,0,
00:04.5,0.000904083,-0.001121521,-0.001321793,0,
00:04.5,0.000915527,-0.001115799,-0.001338959,0,
00:04.5,0.000915527,-0.001115799,-0.001379013,0,
00:04.5,0.000886917,-0.001115799,-0.001350403,0,
00:04.5,0.000892639,-0.001132965,-0.001310349,0,
00:04.5,0.000904083,-0.001144409,-0.001327515,0,
00:04.5,0.000898361,-0.001144409,-0.001333237,0,
00:04.5,0.000904083,-0.001115799,-0.001350403,0,
00:04.5,0.000909805,-0.001110077,-0.001361847,0,
00:04.5,0.000892639,-0.001121521,-0.001333237,0,
00:04.5,0.000915527,-0.001121521,-0.001333237,0,
00:04.5,0.000909805,-0.001138687,-0.001350403,0,
00:04.5,0.000909805,-0.001150131,-0.001327515,0,
00:04.6,0.000898361,-0.001138687,-0.001327515,0,
00:04.6,0.000881195,-0.001115799,-0.001316071,0,
00:04.6,0.000898361,-0.001104355,-0.001333237,0,
00:04.6,0.000915527,-0.001104355,-0.001361847,0,
00:04.6,0.000915527,-0.001110077,-0.001350403,0,
00:04.6,0.000904083,-0.001121521,-0.001327515,0,
00:04.6,0.000909805,-0.001115799,-0.001316071,0,
00:04.6,0.000909805,-0.001110077,-0.001333237,0,
00:04.6,0.000915527,-0.001110077,-0.001338959,0,
00:04.6,0.000904083,-0.001115799,-0.001379013,0,
00:04.6,0.000886917,-0.001121521,-0.001338959,0,
00:04.6,0.000909805,-0.001127243,-0.001321793,0,
00:04.6,0.000921249,-0.001115799,-0.001333237,0,
00:04.6,0.000909805,-0.001121521,-0.001367569,0,
00:04.6,0.000904083,-0.001121521,-0.001356125,0,
00:04.6,0.000909805,-0.001115799,-0.001338959,0,
00:04.6,0.000898361,-0.001115799,-0.001327515,0,
00:04.6,0.000904083,-0.001115799,-0.001344681,0,
00:04.6,0.000915527,-0.001115799,-0.001396179,0,
00:04.6,0.000909805,-0.001115799,-0.001356125,0,
00:04.6,0.000904083,-0.001121521,-0.001321793,0,
00:04.6,0.000898361,-0.001127243,-0.001350403,0,
00:04.6,0.000892639,-0.001127243,-0.001316071,0,
00:04.6,0.000904083,-0.001121521,-0.001316071,0,
00:04.6,0.000904083,-0.001115799,-0.001356125,0,
00:04.7,0.000909805,-0.001115799,-0.001333237,0,
00:04.7,0.000904083,-0.001121521,-0.001344681,0,
00:04.7,0.000886917,-0.001127243,-0.001373291,0,
00:04.7,0.000892639,-0.001127243,-0.001379013,0,
00:04.7,0.000898361,-0.001110077,-0.001338959,0,
00:04.7,0.000909805,-0.001104355,-0.001333237,0,
00:04.7,0.000898361,-0.001121521,-0.001321793,0,
00:04.7,0.000869751,-0.001144409,-0.001304626,0,
00:04.7,0.000875473,-0.001138687,-0.001367569,0,
00:04.7,0.000886917,-0.001121521,-0.001356125,0,
00:04.7,0.000892639,-0.001104355,-0.001321793,0,
00:04.7,0.000921249,-0.001115799,-0.001338959,0,
00:04.7,0.000926971,-0.001110077,-0.001350403,0,
00:04.7,0.000904083,-0.001098633,-0.001373291,0,
00:04.7,0.000904083,-0.001104355,-0.001361847,0,
00:04.7,0.000921249,-0.001110077,-0.00128746,0,
00:04.7,0.000898361,-0.001104355,-0.001327515,0,
00:04.7,0.000898361,-0.001110077,-0.001356125,0,
00:04.7,0.000904083,-0.001115799,-0.001367569,0,
00:04.7,0.000898361,-0.001115799,-0.001350403,0,
00:04.7,0.000886917,-0.001121521,-0.001333237,0,
00:04.7,0.000886917,-0.001121521,-0.001367569,0,
00:04.7,0.000904083,-0.001110077,-0.001333237,0,
00:04.7,0.000886917,-0.001104355,-0.001333237,0,
00:04.7,0.000869751,-0.001110077,-0.001344681,0,
00:04.8,0.000869751,-0.001115799,-0.001419067,0,
00:04.8,0.000898361,-0.001115799,-0.001367569,0,
00:04.8,0.000904083,-0.001110077,-0.001310349,0,
00:04.8,0.000904083,-0.001115799,-0.001338959,0,
00:04.8,0.000881195,-0.001110077,-0.001350403,0,
00:04.8,0.000864029,-0.001110077,-0.001327515,0,
00:04.8,0.000909805,-0.001115799,-0.001327515,0,
00:04.8,0.000886917,-0.001098633,-0.001350403,0,
00:04.8,0.000909805,-0.001098633,-0.001367569,0,
00:04.8,0.000898361,-0.001110077,-0.001350403,0,
00:04.8,0.000886917,-0.001110077,-0.001356125,0,
00:04.8,0.000892639,-0.001110077,-0.001373291,0,
00:04.8,0.000898361,-0.001110077,-0.001396179,0,
00:04.8,0.000904083,-0.001110077,-0.001350403,0,
00:04.8,0.000892639,-0.001121521,-0.001321793,0,
00:04.8,0.000892639,-0.001121521,-0.001327515,0,
00:04.8,0.000886917,-0.001115799,-0.001321793,0,
00:04.8,0.000904083,-0.001110077,-0.001356125,0,
00:04.8,0.000886917,-0.001110077,-0.001338959,0,
00:04.8,0.000881195,-0.001104355,-0.001356125,0,
00:04.8,0.000881195,-0.001098633,-0.001373291,0,
00:04.8,0.000881195,-0.001104355,-0.001361847,0,
00:04.8,0.000881195,-0.001110077,-0.001350403,0,
00:04.8,0.000915527,-0.001098633,-0.001373291,0,
00:04.8,0.000909805,-0.001098633,-0.001367569,0,
00:04.9,0.000892639,-0.001104355,-0.001350403,0,
00:04.9,0.000898361,-0.001104355,-0.001356125,0,
00:04.9,0.000898361,-0.001104355,-0.001384735,0,
00:04.9,0.000869751,-0.001110077,-0.001356125,0,
00:04.9,0.000875473,-0.001115799,-0.001338959,0,
00:04.9,0.000909805,-0.001110077,-0.001373291,0,
00:04.9,0.000909805,-0.001098633,-0.001361847,0,
00:04.9,0.000909805,-0.001098633,-0.001367569,0,
00:04.9,0.000886917,-0.001110077,-0.001379013,0,
00:04.9,0.000886917,-0.001110077,-0.001379013,0,
00:04.9,0.000892639,-0.001115799,-0.001367569,0,
00:04.9,0.000892639,-0.001115799,-0.001350403,0,
00:04.9,0.000875473,-0.001110077,-0.001333237,0,
00:04.9,0.000864029,-0.001115799,-0.001333237,0,
00:04.9,0.000881195,-0.001110077,-0.001379013,0,
00:04.9,0.000892639,-0.001092911,-0.001379013,0,
00:04.9,0.000875473,-0.001098633,-0.001356125,0,
00:04.9,0.000881195,-0.001110077,-0.001361847,0,
00:04.9,0.000886917,-0.001115799,-0.001356125,0,
00:04.9,0.000881195,-0.001110077,-0.001367569,0,
00:04.9,0.000875473,-0.001092911,-0.001361847,0,
00:04.9,0.000869751,-0.001104355,-0.001327515,0,
00:04.9,0.000869751,-0.001104355,-0.001361847,0,
00:04.9,0.000909805,-0.001098633,-0.001401901,0,
00:04.9,0.000881195,-0.001104355,-0.001367569,0,
00:05.0,0.000875473,-0.001121521,-0.001361847,0,
00:05.0,0.000852585,-0.001121521,-0.001344681,0,
00:05.0,0.000881195,-0.001092911,-0.001367569,0,
00:05.0,0.000898361,-0.001081467,-0.001396179,0,
00:05.0,0.000898361,-0.001087189,-0.001419067,0,
00:05.0,0.000892639,-0.001087189,-0.001350403,0,
00:05.0,0.000869751,-0.001098633,-0.001344681,0,
00:05.0,0.000875473,-0.001098633,-0.001356125,0,
00:05.0,0.000881195,-0.001098633,-0.001373291,0,
00:05.0,0.000881195,-0.001087189,-0.001338959,0,
00:05.0,0.000892639,-0.001087189,-0.001361847,0,
00:05.0,0.000892639,-0.001092911,-0.001390457,0,
00:00:05,0.000892639,-0.001098633,-0.001367569,0,
00:05.0,0.000886917,-0.001098633,-0.001373291,0,
00:05.0,0.000869751,-0.001098633,-0.001356125,0,
00:05.0,0.000858307,-0.001104355,-0.001384735,0,
00:05.0,0.000858307,-0.001098633,-0.001356125,0,
00:05.0,0.000898361,-0.001092911,-0.001361847,0,
00:05.0,0.000869751,-0.001092911,-0.001384735,0,
00:05.0,0.000852585,-0.001092911,-0.001350403,0,
00:05.0,0.000875473,-0.001087189,-0.001373291,0,
00:05.0,0.000886917,-0.001098633,-0.001373291,0,
00:05.0,0.000875473,-0.001104355,-0.001356125,0,
00:05.0,0.000875473,-0.001110077,-0.001344681,0,
00:05.0,0.000892639,-0.001104355,-0.001367569,0,
00:05.1,0.000852585,-0.001098633,-0.001367569,0,
00:05.1,0.000852585,-0.001092911,-0.001396179,0,
00:05.1,0.000864029,-0.001092911,-0.001373291,0,
00:05.1,0.000858307,-0.001092911,-0.001344681,0,
00:05.1,0.000881195,-0.001087189,-0.001379013,0,
00:05.1,0.000892639,-0.001087189,-0.001384735,0,
00:05.1,0.000886917,-0.001081467,-0.001396179,0,
00:05.1,0.000886917,-0.001081467,-0.001373291,0,
00:05.1,0.000875473,-0.001092911,-0.001361847,0,
00:05.1,0.000875473,-0.001092911,-0.001379013,0,
00:05.1,0.000869751,-0.001092911,-0.001373291,0,
00:05.1,0.000852585,-0.001104355,-0.001350403,0,
00:05.1,0.000881195,-0.001092911,-0.001361847,0,
00:05.1,0.000886917,-0.001081467,-0.001367569,0,
00:05.1,0.000869751,-0.001081467,-0.001379013,0,
00:05.1,0.000875473,-0.001075745,-0.001384735,0,
00:05.1,0.000864029,-0.001081467,-0.001373291,0,
00:05.1,0.000864029,-0.001075745,-0.001338959,0,
00:05.1,0.000881195,-0.001075745,-0.001361847,0,
00:05.1,0.000858307,-0.001075745,-0.001361847,0,
00:05.1,0.000869751,-0.001087189,-0.001350403,0,
00:05.1,0.000869751,-0.001087189,-0.001350403,0,
00:05.1,0.000852585,-0.001081467,-0.001356125,0,
00:05.1,0.000904083,-0.001075745,-0.001384735,0,
00:05.1,0.000892639,-0.001075745,-0.001390457,0,
00:05.2,0.000858307,-0.001081467,-0.001367569,0,
00:05.2,0.000864029,-0.001081467,-0.001356125,0,
00:05.2,0.000864029,-0.001098633,-0.001407623,0,
00:05.2,0.000858307,-0.001104355,-0.001373291,0,
00:05.2,0.000835419,-0.001092911,-0.001379013,0,
00:05.2,0.000875473,-0.001075745,-0.001407623,0,
00:05.2,0.000852585,-0.001081467,-0.001344681,0,
00:05.2,0.000869751,-0.001092911,-0.001327515,0,
00:05.2,0.000864029,-0.001087189,-0.001379013,0,
00:05.2,0.000864029,-0.001087189,-0.001401901,0,
00:05.2,0.000869751,-0.001075745,-0.001390457,0,
00:05.2,0.000858307,-0.001070023,-0.001350403,0,
00:05.2,0.000852585,-0.001081467,-0.001367569,0,
00:05.2,0.000858307,-0.001075745,-0.001373291,0,
00:05.2,0.000852585,-0.001081467,-0.001350403,0,
00:05.2,0.000864029,-0.001058578,-0.001356125,0,
00:05.2,0.000869751,-0.001052856,-0.001361847,0,
00:05.2,0.000858307,-0.001064301,-0.001390457,0,
00:05.2,0.000875473,-0.001070023,-0.001379013,0,
00:05.2,0.000875473,-0.001075745,-0.001379013,0,
00:05.2,0.000864029,-0.001075745,-0.001407623,0,
00:05.2,0.000864029,-0.001075745,-0.001396179,0,
00:05.2,0.000852585,-0.001075745,-0.001361847,0,
00:05.2,0.000846863,-0.001075745,-0.001396179,0,
00:05.2,0.000852585,-0.001075745,-0.001350403,0,
00:05.3,0.000852585,-0.001081467,-0.001333237,0,
00:05.3,0.000846863,-0.001087189,-0.001361847,0,
00:05.3,0.000852585,-0.001087189,-0.001401901,0,
00:05.3,0.000846863,-0.001087189,-0.001390457,0,
00:05.3,0.000841141,-0.001087189,-0.001384735,0,
00:05.3,0.000881195,-0.001081467,-0.001373291,0,
00:05.3,0.000852585,-0.001075745,-0.001373291,0,
00:05.3,0.000858307,-0.001064301,-0.001379013,0,
00:05.3,0.000858307,-0.001075745,-0.001350403,0,
00:05.3,0.000869751,-0.001064301,-0.001384735,0,
00:05.3,0.000864029,-0.001081467,-0.001396179,0,
00:05.3,0.000818253,-0.001098633,-0.001373291,0,
00:05.3,0.000841141,-0.001098633,-0.001373291,0,
00:05.3,0.000881195,-0.001064301,-0.001413345,0,
00:05.3,0.000875473,-0.001064301,-0.001441956,0,
00:05.3,0.000852585,-0.001075745,-0.001390457,0,
00:05.3,0.000852585,-0.001087189,-0.001356125,0,
00:05.3,0.000852585,-0.001081467,-0.001361847,0,
00:05.3,0.000852585,-0.001081467,-0.001379013,0,
00:05.3,0.000846863,-0.001075745,-0.001390457,0,
00:05.3,0.000858307,-0.001058578,-0.001390457,0,
00:05.3,0.000852585,-0.001075745,-0.001373291,0,
00:05.3,0.000846863,-0.001087189,-0.001373291,0,
00:05.3,0.000852585,-0.001075745,-0.001390457,0,
00:05.3,0.000846863,-0.001052856,-0.001396179,0,
00:05.4,0.000852585,-0.001047134,-0.001396179,0,
00:05.4,0.000846863,-0.001058578,-0.001419067,0,
00:05.4,0.000852585,-0.001064301,-0.001407623,0,
00:05.4,0.000852585,-0.001064301,-0.001384735,0,
00:05.4,0.000858307,-0.001064301,-0.001384735,0,
00:05.4,0.000858307,-0.001058578,-0.001407623,0,
00:05.4,0.000858307,-0.001064301,-0.001424789,0,
00:05.4,0.000829697,-0.001064301,-0.001379013,0,
00:05.4,0.000818253,-0.001070023,-0.001379013,0,
00:05.4,0.000829697,-0.001064301,-0.001390457,0,
00:05.4,0.000875473,-0.001058578,-0.001373291,0,
00:05.4,0.000852585,-0.001064301,-0.001344681,0,
00:05.4,0.000812531,-0.001075745,-0.001367569,0,
00:05.4,0.000801086,-0.001081467,-0.001373291,0,
00:05.4,0.000806808,-0.001087189,-0.001367569,0,
00:05.4,0.000864029,-0.001075745,-0.001436234,0,
00:05.4,0.000858307,-0.001075745,-0.001401901,0,
00:05.4,0.000864029,-0.001058578,-0.001367569,0,
00:05.4,0.000852585,-0.001058578,-0.001396179,0,
00:05.4,0.000835419,-0.001058578,-0.001419067,0,
00:05.4,0.000841141,-0.001064301,-0.001396179,0,
00:05.4,0.000835419,-0.001064301,-0.001384735,0,
00:05.4,0.000841141,-0.001058578,-0.001419067,0,
00:05.4,0.000829697,-0.001058578,-0.001379013,0,
00:05.4,0.000835419,-0.001064301,-0.001356125,0,
00:05.5,0.000835419,-0.001070023,-0.001373291,0,
00:05.5,0.000829697,-0.001070023,-0.001407623,0,
00:05.5,0.000841141,-0.001064301,-0.001401901,0,
00:05.5,0.000841141,-0.001058578,-0.001384735,0,
00:05.5,0.000835419,-0.001052856,-0.001407623,0,
00:05.5,0.000829697,-0.001058578,-0.001384735,0,
00:05.5,0.000818253,-0.001075745,-0.001373291,0,
00:05.5,0.000846863,-0.001070023,-0.001379013,0,
00:05.5,0.000835419,-0.001075745,-0.001413345,0,
00:05.5,0.000801086,-0.001075745,-0.001390457,0,
00:05.5,0.000829697,-0.001070023,-0.001356125,0,
00:05.5,0.000841141,-0.001058578,-0.001441956,0,
00:05.5,0.000841141,-0.001064301,-0.001430511,0,
00:05.5,0.000823975,-0.001058578,-0.001430511,0,
00:05.5,0.000823975,-0.001058578,-0.001373291,0,
00:05.5,0.000835419,-0.001058578,-0.001338959,0,
00:05.5,0.000818253,-0.001058578,-0.001373291,0,
00:05.5,0.000823975,-0.001064301,-0.001384735,0,
00:05.5,0.000829697,-0.001075745,-0.001373291,0,
00:05.5,0.000841141,-0.001081467,-0.001396179,0,
00:05.5,0.000835419,-0.001064301,-0.001373291,0,
00:05.5,0.000823975,-0.001047134,-0.001390457,0,
00:05.5,0.000846863,-0.00103569,-0.001396179,0,
00:05.5,0.000846863,-0.001047134,-0.001390457,0,
00:05.5,0.000823975,-0.001052856,-0.001384735,0,
00:05.6,0.000823975,-0.001058578,-0.001407623,0,
00:05.6,0.000823975,-0.001058578,-0.001384735,0,
00:05.6,0.000818253,-0.001064301,-0.001396179,0,
00:05.6,0.000795364,-0.001070023,-0.001367569,0,
00:05.6,0.000829697,-0.001064301,-0.001407623,0,
00:05.6,0.000835419,-0.001058578,-0.001447678,0,
00:05.6,0.000852585,-0.001058578,-0.001459122,0,
00:05.6,0.000841141,-0.001075745,-0.001396179,0,
00:05.6,0.000818253,-0.001075745,-0.001333237,0,
00:05.6,0.000818253,-0.001052856,-0.001396179,0,
00:05.6,0.000823975,-0.001047134,-0.001390457,0,
00:05.6,0.000818253,-0.001058578,-0.001361847,0,
00:05.6,0.000841141,-0.001058578,-0.001373291,0,
00:05.6,0.000829697,-0.001052856,-0.001396179,0,
00:05.6,0.000823975,-0.001058578,-0.001413345,0,
00:05.6,0.000812531,-0.001058578,-0.001361847,0,
00:05.6,0.000829697,-0.001058578,-0.001390457,0,
00:05.6,0.000823975,-0.001052856,-0.001390457,0,
00:05.6,0.000829697,-0.001047134,-0.001384735,0,
00:05.6,0.000818253,-0.001064301,-0.001373291,0,
00:05.6,0.000829697,-0.001058578,-0.001419067,0,
00:05.6,0.000818253,-0.001058578,-0.001413345,0,
00:05.6,0.000806808,-0.001064301,-0.001344681,0,
00:05.6,0.000818253,-0.001058578,-0.001396179,0,
00:05.6,0.000829697,-0.001052856,-0.001447678,0,
00:05.7,0.000818253,-0.001047134,-0.001384735,0,
00:05.7,0.000766754,-0.001058578,-0.001361847,0,
00:05.7,0.000795364,-0.001064301,-0.001390457,0,
00:05.7,0.000789642,-0.001064301,-0.001373291,0,
00:05.7,0.000846863,-0.001064301,-0.001413345,0,
00:05.7,0.000881195,-0.001058578,-0.001441956,0,
00:05.7,0.000829697,-0.001064301,-0.001373291,0,
00:05.7,0.00078392,-0.001070023,-0.001384735,0,
00:05.7,0.000801086,-0.001064301,-0.001373291,0,
00:05.7,0.000823975,-0.001052856,-0.001390457,0,
00:05.7,0.000806808,-0.001052856,-0.001401901,0,
00:05.7,0.000823975,-0.001047134,-0.001384735,0,
00:05.7,0.000829697,-0.001047134,-0.001401901,0,
00:05.7,0.000806808,-0.001052856,-0.001413345,0,
00:05.7,0.000812531,-0.001058578,-0.001384735,0,
00:05.7,0.000812531,-0.001058578,-0.001424789,0,
00:05.7,0.000818253,-0.001052856,-0.001436234,0,
00:05.7,0.000812531,-0.001052856,-0.001361847,0,
00:05.7,0.000801086,-0.001052856,-0.001350403,0,
00:05.7,0.000812531,-0.001052856,-0.001401901,0,
00:05.7,0.000806808,-0.001041412,-0.001436234,0,
00:05.7,0.000806808,-0.001041412,-0.001390457,0,
00:05.7,0.000818253,-0.001041412,-0.001390457,0,
00:05.7,0.000823975,-0.001041412,-0.001384735,0,
00:05.7,0.000789642,-0.001052856,-0.001424789,0,
00:05.8,0.000806808,-0.001064301,-0.001430511,0,
00:05.8,0.000823975,-0.001070023,-0.001379013,0,
00:05.8,0.000812531,-0.001070023,-0.001373291,0,
00:05.8,0.000795364,-0.001058578,-0.001356125,0,
00:05.8,0.000812531,-0.001058578,-0.001373291,0,
00:05.8,0.000829697,-0.001058578,-0.001447678,0,
00:05.8,0.000806808,-0.001064301,-0.001413345,0,
00:05.8,0.000801086,-0.001058578,-0.001419067,0,
00:05.8,0.000818253,-0.00103569,-0.001384735,0,
00:05.8,0.000812531,-0.00103569,-0.001367569,0,
00:05.8,0.000812531,-0.00103569,-0.001419067,0,
00:05.8,0.000818253,-0.00103569,-0.001424789,0,
00:05.8,0.000812531,-0.001041412,-0.001396179,0,
00:05.8,0.000812531,-0.001041412,-0.001401901,0,
00:05.8,0.000806808,-0.001047134,-0.001413345,0,
00:05.8,0.000795364,-0.001058578,-0.001424789,0,
00:05.8,0.000795364,-0.001070023,-0.001396179,0,
00:05.8,0.000795364,-0.001058578,-0.001396179,0,
00:05.8,0.000795364,-0.001047134,-0.001390457,0,
00:05.8,0.000812531,-0.001029968,-0.001396179,0,
00:05.8,0.000801086,-0.001041412,-0.001384735,0,
00:05.8,0.000812531,-0.00103569,-0.001407623,0,
00:05.8,0.000812531,-0.00103569,-0.001476288,0,
00:05.8,0.000806808,-0.001041412,-0.001407623,0,
00:05.8,0.000772476,-0.001047134,-0.001356125,0,
00:05.9,0.00078392,-0.001047134,-0.001367569,0,
00:05.9,0.000806808,-0.00103569,-0.001447678,0,
00:05.9,0.000801086,-0.00103569,-0.001419067,0,
00:05.9,0.000801086,-0.001052856,-0.001361847,0,
00:05.9,0.000801086,-0.001058578,-0.001424789,0,
00:05.9,0.00078392,-0.001058578,-0.001390457,0,
00:05.9,0.000812531,-0.001052856,-0.001401901,0,
00:05.9,0.000801086,-0.00103569,-0.001396179,0,
00:05.9,0.000801086,-0.00103569,-0.001384735,0,
00:05.9,0.000778198,-0.001052856,-0.001401901,0,
00:05.9,0.000789642,-0.001058578,-0.001441956,0,
00:05.9,0.000806808,-0.001052856,-0.001430511,0,
00:05.9,0.000801086,-0.001052856,-0.001384735,0,
00:05.9,0.000812531,-0.001029968,-0.001390457,0,
00:05.9,0.000795364,-0.001018524,-0.001396179,0,
00:05.9,0.000778198,-0.001018524,-0.001407623,0,
00:05.9,0.000789642,-0.001029968,-0.001407623,0,
00:05.9,0.000795364,-0.00103569,-0.001390457,0,
00:05.9,0.000795364,-0.00103569,-0.001396179,0,
00:05.9,0.000806808,-0.00103569,-0.001413345,0,
00:05.9,0.000812531,-0.001029968,-0.001430511,0,
00:05.9,0.000789642,-0.00103569,-0.001407623,0,
00:05.9,0.000806808,-0.001029968,-0.001401901,0,
00:05.9,0.000818253,-0.001029968,-0.001390457,0,
00:05.9,0.000795364,-0.00103569,-0.001401901,0,
00:06.0,0.000772476,-0.001047134,-0.001424789,0,
00:06.0,0.000749588,-0.001052856,-0.001413345,0,
00:06.0,0.000778198,-0.001047134,-0.001390457,0,
00:06.0,0.000812531,-0.001029968,-0.001401901,0,
00:06.0,0.000812531,-0.001024246,-0.001396179,0,
00:06.0,0.000801086,-0.001041412,-0.001384735,0,
00:06.0,0.000761032,-0.001047134,-0.001424789,0,
00:06.0,0.000801086,-0.001024246,-0.001459122,0,
00:06.0,0.000801086,-0.00103569,-0.001396179,0,
00:06.0,0.000801086,-0.001041412,-0.001401901,0,
00:06.0,0.00078392,-0.001041412,-0.001407623,0,
00:06.0,0.000761032,-0.00103569,-0.001384735,0,
00:00:06,0.000795364,-0.00103569,-0.001401901,0,
00:06.0,0.000795364,-0.001047134,-0.001407623,0,
00:06.0,0.000789642,-0.001047134,-0.001430511,0,
00:06.0,0.000795364,-0.00103569,-0.001447678,0,
00:06.0,0.000795364,-0.00103569,-0.001407623,0,
00:06.0,0.000806808,-0.00103569,-0.001430511,0,
00:06.0,0.000772476,-0.001041412,-0.001419067,0,
00:06.0,0.000778198,-0.00103569,-0.001413345,0,
00:06.0,0.000789642,-0.00103569,-0.001407623,0,
00:06.0,0.000789642,-0.00103569,-0.001430511,0,
00:06.0,0.000772476,-0.001047134,-0.001436234,0,
00:06.0,0.00078392,-0.001047134,-0.001407623,0,
00:06.0,0.00078392,-0.00103569,-0.001407623,0,
00:06.1,0.000761032,-0.001029968,-0.001441956,0,
00:06.1,0.00075531,-0.001041412,-0.001379013,0,
00:06.1,0.000778198,-0.001024246,-0.001407623,0,
00:06.1,0.000823975,-0.001018524,-0.001424789,0,
00:06.1,0.000806808,-0.001029968,-0.001424789,0,
00:06.1,0.00078392,-0.001029968,-0.001419067,0,
00:06.1,0.00078392,-0.001029968,-0.001396179,0,
00:06.1,0.000789642,-0.00103569,-0.001396179,0,
00:06.1,0.000766754,-0.001041412,-0.001407623,0,
00:06.1,0.000772476,-0.001041412,-0.001419067,0,
00:06.1,0.000778198,-0.001047134,-0.001396179,0,
00:06.1,0.000795364,-0.001024246,-0.001441956,0,
00:06.1,0.000789642,-0.001024246,-0.001464844,0,
00:06.1,0.000795364,-0.001018524,-0.001396179,0,
00:06.1,0.000789642,-0.001024246,-0.001419067,0,
00:06.1,0.000795364,-0.001024246,-0.001447678,0,
00:06.1,0.00078392,-0.001024246,-0.001413345,0,
00:06.1,0.00078392,-0.001024246,-0.001470566,0,
00:06.1,0.000778198,-0.001024246,-0.001447678,0,
00:06.1,0.000778198,-0.001029968,-0.001419067,0,
00:06.1,0.000772476,-0.00103569,-0.001407623,0,
00:06.1,0.00078392,-0.00103569,-0.001379013,0,
00:06.1,0.00078392,-0.001029968,-0.001390457,0,
00:06.1,0.000766754,-0.001041412,-0.001413345,0,
00:06.1,0.000778198,-0.001041412,-0.001436234,0,
00:06.2,0.000749588,-0.001041412,-0.001396179,0,
00:06.2,0.00078392,-0.00103569,-0.001361847,0,
00:06.2,0.000778198,-0.001018524,-0.001430511,0,
00:06.2,0.000795364,-0.001018524,-0.001464844,0,
00:06.2,0.000772476,-0.001029968,-0.001436234,0,
00:06.2,0.000778198,-0.001029968,-0.001424789,0,
00:06.2,0.000772476,-0.001029968,-0.001396179,0,
00:06.2,0.000789642,-0.001024246,-0.001407623,0,
00:06.2,0.000772476,-0.001029968,-0.001459122,0,
00:06.2,0.000772476,-0.00103569,-0.001447678,0,
00:06.2,0.000778198,-0.001029968,-0.0014534,0,
00:06.2,0.000789642,-0.001018524,-0.001430511,0,
00:06.2,0.000761032,-0.001018524,-0.001430511,0,
00:06.2,0.000761032,-0.001018524,-0.001413345,0,
00:06.2,0.000772476,-0.001024246,-0.001413345,0,
00:06.2,0.00078392,-0.001024246,-0.001401901,0,
00:06.2,0.00078392,-0.001024246,-0.001430511,0,
00:06.2,0.000772476,-0.00103569,-0.001447678,0,
00:06.2,0.000766754,-0.001041412,-0.001424789,0,
00:06.2,0.000766754,-0.001041412,-0.001413345,0,
00:06.2,0.000766754,-0.001041412,-0.001413345,0,
00:06.2,0.000778198,-0.001024246,-0.0014534,0,
00:06.2,0.000778198,-0.001018524,-0.001459122,0,
00:06.2,0.000761032,-0.001018524,-0.001396179,0,
00:06.2,0.00075531,-0.001018524,-0.001401901,0,
00:06.3,0.000778198,-0.001012802,-0.0014534,0,
00:06.3,0.00078392,-0.001012802,-0.0014534,0,
00:06.3,0.000778198,-0.001012802,-0.001447678,0,
00:06.3,0.000749588,-0.001024246,-0.001361847,0,
00:06.3,0.000749588,-0.001041412,-0.001361847,0,
00:06.3,0.000778198,-0.00103569,-0.001413345,0,
00:06.3,0.00078392,-0.001018524,-0.00148201,0,
00:06.3,0.000778198,-0.001012802,-0.0014534,0,
00:06.3,0.000772476,-0.001012802,-0.001407623,0,
00:06.3,0.000778198,-0.00100708,-0.001413345,0,
00:06.3,0.000772476,-0.00100708,-0.001464844,0,
00:06.3,0.000772476,-0.001018524,-0.001447678,0,
00:06.3,0.000801086,-0.001018524,-0.0014534,0,
00:06.3,0.000766754,-0.001024246,-0.001407623,0,
00:06.3,0.000749588,-0.001024246,-0.001413345,0,
00:06.3,0.000766754,-0.001029968,-0.001401901,0,
00:06.3,0.000772476,-0.001024246,-0.001441956,0,
00:06.3,0.000772476,-0.001018524,-0.001464844,0,
00:06.3,0.000772476,-0.001012802,-0.00148201,0,
00:06.3,0.00075531,-0.001012802,-0.001436234,0,
00:06.3,0.000766754,-0.001018524,-0.001401901,0,
00:06.3,0.000766754,-0.001012802,-0.001413345,0,
00:06.3,0.000772476,-0.001018524,-0.001424789,0,
00:06.3,0.000761032,-0.001012802,-0.001441956,0,
00:06.3,0.000766754,-0.001012802,-0.001430511,0,
00:06.4,0.000761032,-0.001018524,-0.001407623,0,
00:06.4,0.00075531,-0.001012802,-0.001424789,0,
00:06.4,0.000766754,-0.001018524,-0.001459122,0,
00:06.4,0.000766754,-0.001024246,-0.001430511,0,
00:06.4,0.000761032,-0.001018524,-0.001447678,0,
00:06.4,0.000732422,-0.001018524,-0.001424789,0,
00:06.4,0.000766754,-0.001018524,-0.001401901,0,
00:06.4,0.000761032,-0.00100708,-0.001430511,0,
00:06.4,0.000766754,-0.001018524,-0.001441956,0,
00:06.4,0.000778198,-0.00100708,-0.001441956,0,
00:06.4,0.000761032,-0.001001358,-0.001459122,0,
00:06.4,0.000778198,-0.001001358,-0.001430511,0,
00:06.4,0.000772476,-0.00100708,-0.001436234,0,
00:06.4,0.000772476,-0.001001358,-0.001464844,0,
00:06.4,0.000766754,-0.001012802,-0.001424789,0,
00:06.4,0.00075531,-0.00100708,-0.001436234,0,
00:06.4,0.000766754,-0.001001358,-0.001464844,0,
00:06.4,0.00075531,-0.00100708,-0.001476288,0,
00:06.4,0.000749588,-0.001012802,-0.001413345,0,
00:06.4,0.00078392,-0.00100708,-0.001424789,0,
00:06.4,0.000772476,-0.001001358,-0.001447678,0,
00:06.4,0.000761032,-0.00100708,-0.001424789,0,
00:06.4,0.00075531,-0.00100708,-0.001447678,0,
00:06.4,0.000738144,-0.00100708,-0.001441956,0,
00:06.4,0.00078392,-0.00100708,-0.001424789,0,
00:06.5,0.000789642,-0.001001358,-0.001476288,0,
00:06.5,0.000772476,-0.00100708,-0.001430511,0,
00:06.5,0.000743866,-0.001001358,-0.001413345,0,
00:06.5,0.00075531,-0.001001358,-0.001419067,0,
00:06.5,0.000761032,-0.001012802,-0.001470566,0,
00:06.5,0.000766754,-0.001018524,-0.001476288,0,
00:06.5,0.00075531,-0.001012802,-0.001459122,0,
00:06.5,0.00075531,-0.001012802,-0.001424789,0,
00:06.5,0.00078392,-0.001012802,-0.001407623,0,
00:06.5,0.000761032,-0.001012802,-0.001447678,0,
00:06.5,0.000749588,-0.001012802,-0.001470566,0,
00:06.5,0.000749588,-0.00100708,-0.0014534,0,
00:06.5,0.000766754,-0.000995636,-0.001476288,0,
00:06.5,0.00075531,-0.001001358,-0.001464844,0,
00:06.5,0.000743866,-0.001024246,-0.001401901,0,
00:06.5,0.000743866,-0.001012802,-0.001419067,0,
00:06.5,0.00075531,-0.001001358,-0.001487732,0,
00:06.5,0.000749588,-0.000989914,-0.001516342,0,
00:06.5,0.0007267,-0.000995636,-0.001407623,0,
00:06.5,0.000761032,-0.001001358,-0.001419067,0,
00:06.5,0.000766754,-0.001001358,-0.001441956,0,
00:06.5,0.0007267,-0.001012802,-0.001441956,0,
00:06.5,0.000732422,-0.00100708,-0.001470566,0,
00:06.5,0.000766754,-0.001001358,-0.001441956,0,
00:06.5,0.00075531,-0.001001358,-0.0014534,0,
00:06.6,0.00075531,-0.000995636,-0.001441956,0,
00:06.6,0.000766754,-0.000995636,-0.001459122,0,
00:06.6,0.000749588,-0.001001358,-0.001430511,0,
00:06.6,0.000749588,-0.00100708,-0.001430511,0,
00:06.6,0.000761032,-0.00100708,-0.001459122,0,
00:06.6,0.000749588,-0.001001358,-0.001447678,0,
00:06.6,0.000743866,-0.001012802,-0.001459122,0,
00:06.6,0.000761032,-0.00100708,-0.001499176,0,
00:06.6,0.000743866,-0.000995636,-0.001487732,0,
00:06.6,0.000738144,-0.00100708,-0.001436234,0,
00:06.6,0.000766754,-0.001001358,-0.001430511,0,
00:06.6,0.000743866,-0.00100708,-0.001441956,0,
00:06.6,0.000743866,-0.000995636,-0.001459122,0,
00:06.6,0.000749588,-0.000989914,-0.001419067,0,
00:06.6,0.000761032,-0.000995636,-0.0014534,0,
00:06.6,0.00075531,-0.00100708,-0.0014534,0,
00:06.6,0.000732422,-0.001012802,-0.001464844,0,
00:06.6,0.000743866,-0.00100708,-0.001424789,0,
00:06.6,0.000761032,-0.000995636,-0.001447678,0,
00:06.6,0.000743866,-0.000995636,-0.001464844,0,
00:06.6,0.00075531,-0.001012802,-0.001430511,0,
00:06.6,0.000761032,-0.001012802,-0.001436234,0,
00:06.6,0.000732422,-0.001001358,-0.00148201,0,
00:06.6,0.000743866,-0.001001358,-0.001464844,0,
00:06.6,0.000743866,-0.000984192,-0.001470566,0,
00:06.7,0.0007267,-0.000989914,-0.001430511,0,
00:06.7,0.000720978,-0.00100708,-0.001441956,0,
00:06.7,0.000749588,-0.001018524,-0.001476288,0,
00:06.7,0.000761032,-0.00100708,-0.001459122,0,
00:06.7,0.000743866,-0.000989914,-0.001499176,0,
00:06.7,0.000738144,-0.001001358,-0.001487732,0,
00:06.7,0.000743866,-0.001001358,-0.001390457,0,
00:06.7,0.000743866,-0.000995636,-0.0014534,0,
00:06.7,0.000720978,-0.00100708,-0.001459122,0,
00:06.7,0.0007267,-0.001018524,-0.001441956,0,
00:06.7,0.000743866,-0.001018524,-0.001441956,0,
00:06.7,0.000732422,-0.001012802,-0.001436234,0,
00:06.7,0.000738144,-0.001018524,-0.001464844,0,
00:06.7,0.000743866,-0.001001358,-0.001459122,0,
00:06.7,0.000743866,-0.00097847,-0.001441956,0,
00:06.7,0.000738144,-0.000989914,-0.001447678,0,
00:06.7,0.000738144,-0.001001358,-0.001459122,0,
00:06.7,0.000749588,-0.000984192,-0.001459122,0,
00:06.7,0.00075531,-0.00097847,-0.001487732,0,
00:06.7,0.000738144,-0.000984192,-0.001476288,0,
00:06.7,0.0007267,-0.000995636,-0.001487732,0,
00:06.7,0.000720978,-0.000995636,-0.001476288,0,
00:06.7,0.000749588,-0.000984192,-0.001499176,0,
00:06.7,0.000738144,-0.000989914,-0.001499176,0,
00:06.7,0.000720978,-0.000995636,-0.001436234,0,
00:06.8,0.000766754,-0.000984192,-0.001470566,0,
00:06.8,0.000749588,-0.000995636,-0.001476288,0,
00:06.8,0.0007267,-0.001001358,-0.001419067,0,
00:06.8,0.000720978,-0.001001358,-0.001419067,0,
00:06.8,0.000715256,-0.00100708,-0.001424789,0,
00:06.8,0.000715256,-0.00100708,-0.001430511,0,
00:06.8,0.000732422,-0.000984192,-0.001459122,0,
00:06.8,0.000761032,-0.000984192,-0.001493454,0,
00:06.8,0.000732422,-0.000995636,-0.001459122,0,
00:06.8,0.000743866,-0.000989914,-0.001447678,0,
00:06.8,0.000749588,-0.000984192,-0.00148201,0,
00:06.8,0.000743866,-0.000972748,-0.001499176,0,
00:06.8,0.000749588,-0.000984192,-0.001499176,0,
00:06.8,0.000709534,-0.001001358,-0.001470566,0,
00:06.8,0.000715256,-0.00100708,-0.001430511,0,
00:06.8,0.000743866,-0.000995636,-0.0014534,0,
00:06.8,0.000743866,-0.000989914,-0.001464844,0,
00:06.8,0.000732422,-0.00097847,-0.001493454,0,
00:06.8,0.000732422,-0.00097847,-0.001522064,0,
00:06.8,0.000738144,-0.000984192,-0.001476288,0,
00:06.8,0.000738144,-0.000984192,-0.001436234,0,
00:06.8,0.0007267,-0.000984192,-0.001464844,0,
00:06.8,0.0007267,-0.000989914,-0.001464844,0,
00:06.8,0.0007267,-0.001001358,-0.0014534,0,
00:06.8,0.000715256,-0.000995636,-0.001459122,0,
00:06.9,0.000749588,-0.000984192,-0.001464844,0,
00:06.9,0.000738144,-0.000984192,-0.00148201,0,
00:06.9,0.000738144,-0.000984192,-0.001464844,0,
00:06.9,0.0007267,-0.00097847,-0.001470566,0,
00:06.9,0.000743866,-0.00097847,-0.001487732,0,
00:06.9,0.000738144,-0.000984192,-0.001470566,0,
00:06.9,0.0007267,-0.000984192,-0.001459122,0,
00:06.9,0.000732422,-0.000984192,-0.00148201,0,
00:06.9,0.000738144,-0.00097847,-0.001504898,0,
00:06.9,0.000743866,-0.000972748,-0.001487732,0,
00:06.9,0.000720978,-0.00097847,-0.001493454,0,
00:06.9,0.000709534,-0.000989914,-0.00148201,0,
00:06.9,0.0007267,-0.000989914,-0.001459122,0,
00:06.9,0.000715256,-0.000989914,-0.0014534,0,
00:06.9,0.000720978,-0.00097847,-0.0014534,0,
00:06.9,0.000738144,-0.000972748,-0.001493454,0,
00:06.9,0.000743866,-0.000972748,-0.001504898,0,
00:06.9,0.000732422,-0.000984192,-0.00148201,0,
00:06.9,0.000692368,-0.000995636,-0.0014534,0,
00:06.9,0.000738144,-0.000984192,-0.001487732,0,
00:06.9,0.00075531,-0.000972748,-0.001493454,0,
00:06.9,0.0007267,-0.00097847,-0.001493454,0,
00:06.9,0.000738144,-0.00097847,-0.001470566,0,
00:06.9,0.000715256,-0.00097847,-0.001430511,0,
00:06.9,0.000709534,-0.000972748,-0.001487732,0,
00:07.0,0.000720978,-0.00097847,-0.001476288,0,
00:07.0,0.000738144,-0.000972748,-0.001516342,0,
00:07.0,0.000743866,-0.000972748,-0.001522064,0,
00:07.0,0.000720978,-0.000972748,-0.00151062,0,
00:07.0,0.000743866,-0.000984192,-0.001476288,0,
00:07.0,0.000715256,-0.000984192,-0.0014534,0,
00:07.0,0.000715256,-0.000984192,-0.00151062,0,
00:07.0,0.000703812,-0.000984192,-0.001493454,0,
00:07.0,0.000709534,-0.00097847,-0.001470566,0,
00:07.0,0.0007267,-0.000972748,-0.001441956,0,
00:07.0,0.0007267,-0.000984192,-0.00148201,0,
00:07.0,0.000709534,-0.000984192,-0.001493454,0,
00:00:07,0.0007267,-0.000989914,-0.001487732,0,
00:07.0,0.000709534,-0.000989914,-0.001487732,0,
00:07.0,0.0007267,-0.000984192,-0.001522064,0,
00:07.0,0.000749588,-0.000972748,-0.001550674,0,
00:07.0,0.0007267,-0.00097847,-0.001464844,0,
00:07.0,0.000720978,-0.00097847,-0.001476288,0,
00:07.0,0.0007267,-0.000967026,-0.00148201,0,
00:07.0,0.000720978,-0.000972748,-0.00151062,0,
00:07.0,0.000738144,-0.00097847,-0.001516342,0,
00:07.0,0.000715256,-0.000984192,-0.001487732,0,
00:07.0,0.000720978,-0.000995636,-0.001447678,0,
00:07.0,0.00069809,-0.000989914,-0.001470566,0,
00:07.0,0.000703812,-0.00097847,-0.001487732,0,
00:07.1,0.000720978,-0.00094986,-0.00151062,0,
00:07.1,0.000738144,-0.000955582,-0.001504898,0,
00:07.1,0.000732422,-0.000967026,-0.00148201,0,
00:07.1,0.0007267,-0.000967026,-0.001522064,0,
00:07.1,0.000715256,-0.000972748,-0.001499176,0,
00:07.1,0.000720978,-0.000984192,-0.001470566,0,
00:07.1,0.000715256,-0.000984192,-0.001487732,0,
00:07.1,0.000692368,-0.000972748,-0.001470566,0,
00:07.1,0.000715256,-0.000961304,-0.001504898,0,
00:07.1,0.000709534,-0.000961304,-0.00148201,0,
00:07.1,0.000709534,-0.000967026,-0.001476288,0,
00:07.1,0.000686646,-0.000972748,-0.00151062,0,
00:07.1,0.000686646,-0.000972748,-0.001504898,0,
00:07.1,0.0007267,-0.000972748,-0.001533508,0,
00:07.1,0.000738144,-0.000967026,-0.001533508,0,
00:07.1,0.000720978,-0.000972748,-0.00151062,0,
00:07.1,0.000720978,-0.000967026,-0.001493454,0,
00:07.1,0.000715256,-0.000972748,-0.001493454,0,
00:07.1,0.000720978,-0.00097847,-0.001487732,0,
00:07.1,0.000709534,-0.000972748,-0.001487732,0,
00:07.1,0.000732422,-0.000955582,-0.001504898,0,
00:07.1,0.000709534,-0.00094986,-0.001493454,0,
00:07.1,0.0007267,-0.000955582,-0.00151062,0,
00:07.1,0.000720978,-0.000961304,-0.001487732,0,
00:07.1,0.000715256,-0.000972748,-0.001476288,0,
00:07.2,0.000703812,-0.000972748,-0.001487732,0,
00:07.2,0.000709534,-0.000972748,-0.001522064,0,
00:07.2,0.000715256,-0.00097847,-0.001522064,0,
00:07.2,0.000703812,-0.000972748,-0.00151062,0,
00:07.2,0.000715256,-0.000967026,-0.001516342,0,
00:07.2,0.000715256,-0.00097847,-0.001476288,0,
00:07.2,0.000715256,-0.000972748,-0.00151062,0,
00:07.2,0.0007267,-0.000955582,-0.001533508,0,
00:07.2,0.000709534,-0.000955582,-0.001499176,0,
00:07.2,0.000692368,-0.000972748,-0.001464844,0,
00:07.2,0.000720978,-0.00097847,-0.001522064,0,
00:07.2,0.0007267,-0.000972748,-0.001579285,0,
00:07.2,0.000715256,-0.00097847,-0.00153923,0,
00:07.2,0.000720978,-0.000961304,-0.00148201,0,
00:07.2,0.000720978,-0.000967026,-0.001470566,0,
00:07.2,0.00069809,-0.000967026,-0.001499176,0,
00:07.2,0.000720978,-0.000967026,-0.00148201,0,
00:07.2,0.000703812,-0.000972748,-0.001504898,0,
00:07.2,0.00069809,-0.000967026,-0.001533508,0,
00:07.2,0.000715256,-0.000967026,-0.00153923,0,
00:07.2,0.000715256,-0.000967026,-0.00151062,0,
00:07.2,0.000709534,-0.000967026,-0.00151062,0,
00:07.2,0.000709534,-0.000972748,-0.001527786,0,
00:07.2,0.00069809,-0.000989914,-0.00148201,0,
00:07.2,0.000680923,-0.000984192,-0.00153923,0,
00:07.3,0.000715256,-0.000967026,-0.001533508,0,
00:07.3,0.000715256,-0.000961304,-0.001527786,0,
00:07.3,0.000703812,-0.000972748,-0.00151062,0,
00:07.3,0.000703812,-0.000972748,-0.001487732,0,
00:07.3,0.00069809,-0.000967026,-0.001516342,0,
00:07.3,0.00069809,-0.000967026,-0.001533508,0,
00:07.3,0.000703812,-0.000961304,-0.001544952,0,
00:07.3,0.000709534,-0.00094986,-0.00151062,0,
00:07.3,0.0007267,-0.000961304,-0.001522064,0,
00:07.3,0.000709534,-0.000972748,-0.001522064,0,
00:07.3,0.000692368,-0.000967026,-0.00148201,0,
00:07.3,0.00069809,-0.000967026,-0.001499176,0,
00:07.3,0.000703812,-0.000955582,-0.001499176,0,
00:07.3,0.000692368,-0.000955582,-0.001550674,0,
00:07.3,0.000675201,-0.000961304,-0.001544952,0,
00:07.3,0.000720978,-0.000961304,-0.001533508,0,
00:07.3,0.000720978,-0.000961304,-0.00153923,0,
00:07.3,0.00069809,-0.000967026,-0.00153923,0,
00:07.3,0.000692368,-0.000961304,-0.001487732,0,
00:07.3,0.00069809,-0.000967026,-0.001516342,0,
00:07.3,0.000709534,-0.000967026,-0.00151062,0,
00:07.3,0.000686646,-0.00097847,-0.001550674,0,
00:07.3,0.000692368,-0.000972748,-0.001527786,0,
00:07.3,0.00069809,-0.000961304,-0.00153923,0,
00:07.3,0.000703812,-0.00094986,-0.001499176,0,
00:07.4,0.000703812,-0.000955582,-0.001499176,0,
00:07.4,0.00069809,-0.000972748,-0.00151062,0,
00:07.4,0.000692368,-0.000967026,-0.001487732,0,
00:07.4,0.00069809,-0.00094986,-0.001516342,0,
00:07.4,0.000703812,-0.00094986,-0.001533508,0,
00:07.4,0.000692368,-0.000961304,-0.001522064,0,
00:07.4,0.000686646,-0.000961304,-0.00153923,0,
00:07.4,0.00069809,-0.000961304,-0.001567841,0,
00:07.4,0.000703812,-0.000972748,-0.001573563,0,
00:07.4,0.00069809,-0.000984192,-0.00148201,0,
00:07.4,0.000686646,-0.000967026,-0.001487732,0,
00:07.4,0.000720978,-0.000961304,-0.00151062,0,
00:07.4,0.000720978,-0.000961304,-0.001533508,0,
00:07.4,0.000686646,-0.000961304,-0.001544952,0,
00:07.4,0.00069809,-0.000961304,-0.001522064,0,
00:07.4,0.000686646,-0.000961304,-0.001544952,0,
00:07.4,0.000680923,-0.000955582,-0.00153923,0,
00:07.4,0.000715256,-0.000955582,-0.001544952,0,
00:07.4,0.000692368,-0.000961304,-0.001544952,0,
00:07.4,0.000703812,-0.000967026,-0.001504898,0,
00:07.4,0.0007267,-0.000961304,-0.001504898,0,
00:07.4,0.000715256,-0.000955582,-0.001533508,0,
00:07.4,0.000680923,-0.000961304,-0.001522064,0,
00:07.4,0.000686646,-0.000961304,-0.001522064,0,
00:07.4,0.00069809,-0.000961304,-0.001550674,0,
00:07.5,0.000703812,-0.000961304,-0.001533508,0,
00:07.5,0.000692368,-0.000967026,-0.001516342,0,
00:07.5,0.00069809,-0.000967026,-0.001556396,0,
00:07.5,0.000692368,-0.00094986,-0.001544952,0,
00:07.5,0.000703812,-0.00094986,-0.00151062,0,
00:07.5,0.000703812,-0.000955582,-0.001533508,0,
00:07.5,0.00069809,-0.000972748,-0.001527786,0,
00:07.5,0.000686646,-0.000967026,-0.001562119,0,
00:07.5,0.000669479,-0.000961304,-0.001516342,0,
00:07.5,0.000686646,-0.000944138,-0.001533508,0,
00:07.5,0.000715256,-0.000944138,-0.00153923,0,
00:07.5,0.000703812,-0.000944138,-0.001533508,0,
00:07.5,0.000680923,-0.000955582,-0.001544952,0,
00:07.5,0.000703812,-0.00094986,-0.001544952,0,
00:07.5,0.000703812,-0.000961304,-0.001504898,0,
00:07.5,0.000732422,-0.000961304,-0.001487732,0,
00:07.5,0.000686646,-0.000955582,-0.001527786,0,
00:07.5,0.00069809,-0.000955582,-0.00153923,0,
00:07.5,0.00069809,-0.000955582,-0.001567841,0,
00:07.5,0.000703812,-0.00094986,-0.001590729,0,
00:07.5,0.00069809,-0.000932693,-0.00153923,0,
00:07.5,0.00069809,-0.000938416,-0.001499176,0,
00:07.5,0.00069809,-0.00094986,-0.001533508,0,
00:07.5,0.000686646,-0.000955582,-0.00153923,0,
00:07.5,0.000680923,-0.000944138,-0.00153923,0,
00:07.6,0.000680923,-0.00094986,-0.00153923,0,
00:07.6,0.000703812,-0.00094986,-0.00153923,0,
00:07.6,0.000709534,-0.000944138,-0.001544952,0,
00:07.6,0.000680923,-0.000944138,-0.001556396,0,
00:07.6,0.00069809,-0.000944138,-0.001527786,0,
00:07.6,0.000715256,-0.000944138,-0.001550674,0,
00:07.6,0.00069809,-0.000944138,-0.001550674,0,
00:07.6,0.000703812,-0.000955582,-0.001585007,0,
00:07.6,0.000680923,-0.000944138,-0.00151062,0,
00:07.6,0.000646591,-0.00094986,-0.001464844,0,
00:07.6,0.000686646,-0.000955582,-0.00151062,0,
00:07.6,0.000749588,-0.000932693,-0.001596451,0,
00:07.6,0.000709534,-0.000938416,-0.00153923,0,
00:07.6,0.000709534,-0.00094986,-0.001522064,0,
00:07.6,0.000720978,-0.00094986,-0.001527786,0,
00:07.6,0.00069809,-0.000955582,-0.001544952,0,
00:07.6,0.000680923,-0.00094986,-0.001567841,0,
00:07.6,0.000680923,-0.00094986,-0.001544952,0,
00:07.6,0.000680923,-0.000938416,-0.001527786,0,
00:07.6,0.000686646,-0.000926971,-0.001567841,0,
00:07.6,0.000692368,-0.000932693,-0.001544952,0,
00:07.6,0.0007267,-0.000938416,-0.001527786,0,
00:07.6,0.000709534,-0.000944138,-0.001562119,0,
00:07.6,0.000686646,-0.00094986,-0.001550674,0,
00:07.6,0.000692368,-0.000955582,-0.001567841,0,
00:07.7,0.000680923,-0.000955582,-0.001556396,0,
00:07.7,0.000675201,-0.00094986,-0.001567841,0,
00:07.7,0.000675201,-0.000961304,-0.001585007,0,
00:07.7,0.000663757,-0.000955582,-0.001504898,0,
00:07.7,0.000703812,-0.000932693,-0.00153923,0,
00:07.7,0.000720978,-0.000932693,-0.00153923,0,
00:07.7,0.000709534,-0.000932693,-0.001544952,0,
00:07.7,0.000686646,-0.000938416,-0.001550674,0,
00:07.7,0.000658035,-0.000944138,-0.001550674,0,
00:07.7,0.000686646,-0.000938416,-0.001573563,0,
00:07.7,0.000703812,-0.000944138,-0.00153923,0,
00:07.7,0.00069809,-0.000944138,-0.001544952,0,
00:07.7,0.00069809,-0.000944138,-0.001567841,0,
00:07.7,0.000692368,-0.000955582,-0.001562119,0,
00:07.7,0.000680923,-0.000944138,-0.001533508,0,
00:07.7,0.000686646,-0.000932693,-0.00153923,0,
00:07.7,0.000703812,-0.000926971,-0.001567841,0,
00:07.7,0.000715256,-0.000932693,-0.001567841,0,
00:07.7,0.000703812,-0.000932693,-0.001573563,0,
00:07.7,0.000692368,-0.000932693,-0.001579285,0,
00:07.7,0.000686646,-0.000938416,-0.001556396,0,
00:07.7,0.000669479,-0.000932693,-0.001544952,0,
00:07.7,0.000692368,-0.000926971,-0.001573563,0,
00:07.7,0.000709534,-0.000938416,-0.001567841,0,
00:07.7,0.000709534,-0.000944138,-0.001544952,0,
00:07.8,0.000669479,-0.000938416,-0.001544952,0,
00:07.8,0.000675201,-0.000932693,-0.001556396,0,
00:07.8,0.000686646,-0.000932693,-0.001533508,0,
00:07.8,0.000692368,-0.000944138,-0.001550674,0,
00:07.8,0.000686646,-0.000938416,-0.001567841,0,
00:07.8,0.000686646,-0.000932693,-0.001550674,0,
00:07.8,0.000692368,-0.000926971,-0.001573563,0,
00:07.8,0.000686646,-0.000932693,-0.001567841,0,
00:07.8,0.000686646,-0.000938416,-0.001562119,0,
00:07.8,0.000686646,-0.000955582,-0.001550674,0,
00:07.8,0.000692368,-0.000955582,-0.001544952,0,
00:07.8,0.000680923,-0.000938416,-0.001579285,0,
00:07.8,0.000686646,-0.000926971,-0.001579285,0,
00:07.8,0.00069809,-0.000926971,-0.001585007,0,
00:07.8,0.000703812,-0.000926971,-0.001562119,0,
00:07.8,0.000686646,-0.000932693,-0.001573563,0,
00:07.8,0.000692368,-0.000938416,-0.001573563,0,
00:07.8,0.000686646,-0.000938416,-0.001544952,0,
00:07.8,0.000686646,-0.000932693,-0.001550674,0,
00:07.8,0.00069809,-0.000932693,-0.001579285,0,
00:07.8,0.000658035,-0.000938416,-0.001590729,0,
00:07.8,0.000663757,-0.000938416,-0.001619339,0,
00:07.8,0.000686646,-0.000938416,-0.00153923,0,
00:07.8,0.000709534,-0.000932693,-0.001550674,0,
00:07.8,0.000692368,-0.000938416,-0.001567841,0,
00:07.9,0.000675201,-0.000938416,-0.001504898,0,
00:07.9,0.000686646,-0.000926971,-0.00153923,0,
00:07.9,0.000703812,-0.000921249,-0.001590729,0,
00:07.9,0.000703812,-0.000921249,-0.001562119,0,
00:07.9,0.000703812,-0.000921249,-0.001596451,0,
00:07.9,0.000675201,-0.000932693,-0.001573563,0,
00:07.9,0.000675201,-0.000932693,-0.001544952,0,
00:07.9,0.000680923,-0.000926971,-0.001556396,0,
00:07.9,0.000675201,-0.000926971,-0.001585007,0,
00:07.9,0.000675201,-0.000932693,-0.001556396,0,
00:07.9,0.000692368,-0.000921249,-0.001573563,0,
00:07.9,0.000686646,-0.000926971,-0.001590729,0,
00:07.9,0.00069809,-0.000926971,-0.001567841,0,
00:07.9,0.000692368,-0.000932693,-0.001596451,0,
00:07.9,0.000663757,-0.000932693,-0.001579285,0,
00:07.9,0.000658035,-0.000926971,-0.001590729,0,
00:07.9,0.000652313,-0.000926971,-0.001619339,0,
00:07.9,0.000686646,-0.000926971,-0.001567841,0,
00:07.9,0.000720978,-0.000926971,-0.001504898,0,
00:07.9,0.000680923,-0.000921249,-0.001533508,0,
00:07.9,0.000640869,-0.000926971,-0.001556396,0,
00:07.9,0.000658035,-0.000944138,-0.001544952,0,
00:07.9,0.000686646,-0.000938416,-0.001573563,0,
00:07.9,0.000686646,-0.000926971,-0.001562119,0,
00:07.9,0.000686646,-0.000921249,-0.001573563,0,
00:08.0,0.000692368,-0.000915527,-0.001596451,0,
00:08.0,0.000680923,-0.000909805,-0.001590729,0,
00:08.0,0.000680923,-0.000921249,-0.00153923,0,
00:08.0,0.000686646,-0.000926971,-0.001556396,0,
00:08.0,0.000675201,-0.000926971,-0.001562119,0,
00:08.0,0.000686646,-0.000926971,-0.001596451,0,
00:08.0,0.000692368,-0.000926971,-0.001585007,0,
00:08.0,0.000686646,-0.000921249,-0.001585007,0,
00:08.0,0.000680923,-0.000921249,-0.001573563,0,
00:08.0,0.000680923,-0.000938416,-0.001590729,0,
00:08.0,0.000669479,-0.000938416,-0.001585007,0,
00:08.0,0.000663757,-0.000926971,-0.001522064,0,
00:00:08,0.000658035,-0.000926971,-0.00153923,0,
00:08.0,0.000669479,-0.000926971,-0.001556396,0,
00:08.0,0.000692368,-0.000915527,-0.001573563,0,
00:08.0,0.000692368,-0.000921249,-0.001596451,0,
00:08.0,0.000675201,-0.000921249,-0.001585007,0,
00:08.0,0.000669479,-0.000926971,-0.001562119,0,
00:08.0,0.000680923,-0.000926971,-0.001590729,0,
00:08.0,0.000652313,-0.000926971,-0.001556396,0,
00:08.0,0.000680923,-0.000926971,-0.001550674,0,
00:08.0,0.000680923,-0.000921249,-0.001590729,0,
00:08.0,0.000692368,-0.000921249,-0.001619339,0,
00:08.0,0.000692368,-0.000921249,-0.001585007,0,
00:08.0,0.000680923,-0.000921249,-0.001550674,0,
00:08.1,0.000663757,-0.000932693,-0.001544952,0,
00:08.1,0.000669479,-0.000921249,-0.001585007,0,
00:08.1,0.000686646,-0.000904083,-0.001579285,0,
00:08.1,0.000680923,-0.000909805,-0.001590729,0,
00:08.1,0.00069809,-0.000915527,-0.001596451,0,
00:08.1,0.000692368,-0.000932693,-0.001585007,0,
00:08.1,0.000658035,-0.000938416,-0.001596451,0,
00:08.1,0.000669479,-0.000921249,-0.001573563,0,
00:08.1,0.000686646,-0.000909805,-0.001522064,0,
00:08.1,0.000675201,-0.000915527,-0.001550674,0,
00:08.1,0.000675201,-0.000915527,-0.001579285,0,
00:08.1,0.000675201,-0.000915527,-0.001562119,0,
00:08.1,0.000675201,-0.000915527,-0.001562119,0,
00:08.1,0.000669479,-0.000915527,-0.001585007,0,
00:08.1,0.000669479,-0.000921249,-0.001573563,0,
00:08.1,0.000658035,-0.000926971,-0.001579285,0,
00:08.1,0.000680923,-0.000915527,-0.001556396,0,
00:08.1,0.000680923,-0.000915527,-0.001562119,0,
00:08.1,0.000669479,-0.000915527,-0.001573563,0,
00:08.1,0.000675201,-0.000915527,-0.001579285,0,
00:08.1,0.000669479,-0.000915527,-0.001596451,0,
00:08.1,0.000675201,-0.000921249,-0.001602173,0,
00:08.1,0.000663757,-0.000921249,-0.001567841,0,
00:08.1,0.000663757,-0.000926971,-0.00153923,0,
00:08.1,0.00069809,-0.000915527,-0.001573563,0,
00:08.2,0.00069809,-0.000926971,-0.001596451,0,
00:08.2,0.000669479,-0.000921249,-0.001585007,0,
00:08.2,0.000680923,-0.000915527,-0.001596451,0,
00:08.2,0.000680923,-0.000909805,-0.001596451,0,
00:08.2,0.000663757,-0.000904083,-0.001544952,0,
00:08.2,0.000663757,-0.000904083,-0.001590729,0,
00:08.2,0.000669479,-0.000909805,-0.001550674,0,
00:08.2,0.000692368,-0.000904083,-0.001544952,0,
00:08.2,0.000686646,-0.000909805,-0.001579285,0,
00:08.2,0.000669479,-0.000909805,-0.001567841,0,
00:08.2,0.000640869,-0.000915527,-0.001573563,0,
00:08.2,0.000663757,-0.000915527,-0.001567841,0,
00:08.2,0.000669479,-0.000915527,-0.001556396,0,
00:08.2,0.000652313,-0.000915527,-0.001579285,0,
00:08.2,0.000669479,-0.000915527,-0.001567841,0,
00:08.2,0.000635147,-0.000921249,-0.001550674,0,
00:08.2,0.000669479,-0.000915527,-0.001607895,0,
00:08.2,0.000675201,-0.000904083,-0.001625061,0,
00:08.2,0.000663757,-0.000915527,-0.001550674,0,
00:08.2,0.000680923,-0.000915527,-0.001590729,0,
00:08.2,0.000675201,-0.000915527,-0.001573563,0,
00:08.2,0.000669479,-0.000909805,-0.001579285,0,
00:08.2,0.000675201,-0.000915527,-0.001619339,0,
00:08.2,0.000663757,-0.000921249,-0.001613617,0,
00:08.2,0.000646591,-0.000926971,-0.001556396,0,
00:08.3,0.000646591,-0.000921249,-0.001516342,0,
00:08.3,0.000663757,-0.000915527,-0.001556396,0,
00:08.3,0.000686646,-0.000898361,-0.001590729,0,
00:08.3,0.000680923,-0.000904083,-0.001619339,0,
00:08.3,0.000669479,-0.000921249,-0.001544952,0,
00:08.3,0.000663757,-0.000921249,-0.001562119,0,
00:08.3,0.000652313,-0.000921249,-0.001573563,0,
00:08.3,0.000652313,-0.000915527,-0.001550674,0,
00:08.3,0.000675201,-0.000909805,-0.001579285,0,
00:08.3,0.000669479,-0.000909805,-0.001585007,0,
00:08.3,0.000658035,-0.000904083,-0.001585007,0,
00:08.3,0.000675201,-0.000904083,-0.001585007,0,
00:08.3,0.000652313,-0.000909805,-0.00153923,0,
00:08.3,0.000663757,-0.000921249,-0.001562119,0,
00:08.3,0.000663757,-0.000921249,-0.001602173,0,
00:08.3,0.000669479,-0.000921249,-0.001590729,0,
00:08.3,0.000635147,-0.000909805,-0.001562119,0,
00:08.3,0.000658035,-0.000898361,-0.001613617,0,
00:08.3,0.000675201,-0.000904083,-0.001602173,0,
00:08.3,0.000663757,-0.000909805,-0.001573563,0,
00:08.3,0.000669479,-0.000898361,-0.001602173,0,
00:08.3,0.000663757,-0.000904083,-0.001607895,0,
00:08.3,0.000629425,-0.000915527,-0.001562119,0,
00:08.3,0.000675201,-0.000909805,-0.001573563,0,
00:08.3,0.000663757,-0.000921249,-0.001562119,0,
00:08.4,0.000663757,-0.000921249,-0.001550674,0,
00:08.4,0.000646591,-0.000909805,-0.001573563,0,
00:08.4,0.000663757,-0.000904083,-0.001590729,0,
00:08.4,0.000658035,-0.000898361,-0.001567841,0,
00:08.4,0.000658035,-0.000898361,-0.001590729,0,
00:08.4,0.000652313,-0.000898361,-0.001573563,0,
00:08.4,0.000675201,-0.000904083,-0.001567841,0,
00:08.4,0.000669479,-0.000904083,-0.001573563,0,
00:08.4,0.000669479,-0.000898361,-0.001607895,0,
00:08.4,0.000675201,-0.000904083,-0.001602173,0,
00:08.4,0.000658035,-0.000904083,-0.001579285,0,
00:08.4,0.000663757,-0.000898361,-0.001602173,0,
00:08.4,0.000669479,-0.000909805,-0.001590729,0,
00:08.4,0.000663757,-0.000921249,-0.001585007,0,
00:08.4,0.000652313,-0.000904083,-0.001625061,0,
00:08.4,0.000675201,-0.000898361,-0.001579285,0,
00:08.4,0.000652313,-0.000909805,-0.001544952,0,
00:08.4,0.000646591,-0.000909805,-0.001556396,0,
00:08.4,0.000658035,-0.000904083,-0.001596451,0,
00:08.4,0.000663757,-0.000898361,-0.001596451,0,
00:08.4,0.000646591,-0.000892639,-0.001573563,0,
00:08.4,0.000646591,-0.000898361,-0.001590729,0,
00:08.4,0.000635147,-0.000909805,-0.001550674,0,
00:08.4,0.000686646,-0.000904083,-0.001585007,0,
00:08.4,0.000675201,-0.000904083,-0.001596451,0,
00:08.5,0.000646591,-0.000898361,-0.001573563,0,
00:08.5,0.000658035,-0.000898361,-0.001567841,0,
00:08.5,0.000658035,-0.000892639,-0.001607895,0,
00:08.5,0.000646591,-0.000892639,-0.001602173,0,
00:08.5,0.000663757,-0.000892639,-0.001562119,0,
00:08.5,0.000663757,-0.000892639,-0.001613617,0,
00:08.5,0.000669479,-0.000898361,-0.001607895,0,
00:08.5,0.000686646,-0.000898361,-0.001590729,0,
00:08.5,0.000663757,-0.000909805,-0.001579285,0,
00:08.5,0.000646591,-0.000904083,-0.001550674,0,
00:08.5,0.000646591,-0.000892639,-0.001642227,0,
00:08.5,0.000663757,-0.000886917,-0.001619339,0,
00:08.5,0.000669479,-0.000886917,-0.001573563,0,
00:08.5,0.000658035,-0.000892639,-0.001544952,0,
00:08.5,0.000658035,-0.000892639,-0.001573563,0,
00:08.5,0.000640869,-0.000898361,-0.001585007,0,
00:08.5,0.000663757,-0.000904083,-0.001607895,0,
00:08.5,0.000658035,-0.000904083,-0.001596451,0,
00:08.5,0.000663757,-0.000892639,-0.001590729,0,
00:08.5,0.000675201,-0.000881195,-0.001579285,0,
00:08.5,0.000663757,-0.000886917,-0.001590729,0,
00:08.5,0.000663757,-0.000886917,-0.001607895,0,
00:08.5,0.000658035,-0.000898361,-0.001573563,0,
00:08.5,0.000652313,-0.000909805,-0.001596451,0,
00:08.5,0.000658035,-0.000909805,-0.001619339,0,
00:08.6,0.000663757,-0.000904083,-0.001625061,0,
00:08.6,0.000617981,-0.000898361,-0.001613617,0,
00:08.6,0.000640869,-0.000892639,-0.001585007,0,
00:08.6,0.000663757,-0.000886917,-0.001573563,0,
00:08.6,0.000669479,-0.000886917,-0.001556396,0,
00:08.6,0.000652313,-0.000886917,-0.001579285,0,
00:08.6,0.000652313,-0.000892639,-0.001585007,0,
00:08.6,0.000663757,-0.000892639,-0.001596451,0,
00:08.6,0.000652313,-0.000898361,-0.001596451,0,
00:08.6,0.000640869,-0.000892639,-0.001590729,0,
00:08.6,0.000646591,-0.000886917,-0.001636505,0,
00:08.6,0.000658035,-0.000892639,-0.001596451,0,
00:08.6,0.000658035,-0.000898361,-0.001573563,0,
00:08.6,0.000652313,-0.000892639,-0.001585007,0,
00:08.6,0.000663757,-0.000892639,-0.001596451,0,
00:08.6,0.000646591,-0.000892639,-0.001602173,0,
00:08.6,0.000652313,-0.000892639,-0.001590729,0,
00:08.6,0.000658035,-0.000892639,-0.001596451,0,
00:08.6,0.000658035,-0.000886917,-0.001607895,0,
00:08.6,0.000652313,-0.000892639,-0.001607895,0,
00:08.6,0.000658035,-0.000886917,-0.001607895,0,
00:08.6,0.000658035,-0.000886917,-0.001619339,0,
00:08.6,0.000652313,-0.000886917,-0.001647949,0,
00:08.6,0.000663757,-0.000881195,-0.001625061,0,
00:08.6,0.000669479,-0.000881195,-0.001642227,0,
00:08.7,0.000675201,-0.000892639,-0.001590729,0,
00:08.7,0.000617981,-0.000898361,-0.001596451,0,
00:08.7,0.000640869,-0.000892639,-0.001590729,0,
00:08.7,0.000675201,-0.000881195,-0.001653671,0,
00:08.7,0.000658035,-0.000881195,-0.001585007,0,
00:08.7,0.000629425,-0.000892639,-0.001567841,0,
00:08.7,0.000663757,-0.000904083,-0.001630783,0,
00:08.7,0.000652313,-0.000904083,-0.001625061,0,
00:08.7,0.000623703,-0.000898361,-0.001590729,0,
00:08.7,0.000652313,-0.000875473,-0.001607895,0,
00:08.7,0.000669479,-0.000869751,-0.001625061,0,
00:08.7,0.000658035,-0.000881195,-0.001613617,0,
00:08.7,0.000658035,-0.000886917,-0.001619339,0,
00:08.7,0.000669479,-0.000886917,-0.001630783,0,
00:08.7,0.000646591,-0.000886917,-0.001642227,0,
00:08.7,0.000652313,-0.000886917,-0.001619339,0,
00:08.7,0.000652313,-0.000898361,-0.001579285,0,
00:08.7,0.000640869,-0.000904083,-0.001607895,0,
00:08.7,0.000640869,-0.000898361,-0.001619339,0,
00:08.7,0.000640869,-0.000886917,-0.001602173,0,
00:08.7,0.000646591,-0.000886917,-0.001602173,0,
00:08.7,0.000652313,-0.000875473,-0.001607895,0,
00:08.7,0.000658035,-0.000881195,-0.001607895,0,
00:08.7,0.000658035,-0.000886917,-0.001619339,0,
00:08.7,0.000652313,-0.000886917,-0.001653671,0,
00:08.8,0.000640869,-0.000892639,-0.001619339,0,
00:08.8,0.000612259,-0.000898361,-0.001625061,0,
00:08.8,0.000658035,-0.000886917,-0.001636505,0,
00:08.8,0.000646591,-0.000881195,-0.001665115,0,
00:08.8,0.000635147,-0.000881195,-0.001625061,0,
00:08.8,0.000663757,-0.000881195,-0.001630783,0,
00:08.8,0.000658035,-0.000892639,-0.001613617,0,
00:08.8,0.000658035,-0.000898361,-0.001625061,0,
00:08.8,0.000646591,-0.000898361,-0.001607895,0,
00:08.8,0.000663757,-0.000886917,-0.001585007,0,
00:08.8,0.000658035,-0.000881195,-0.001625061,0,
00:08.8,0.000646591,-0.000881195,-0.001625061,0,
00:08.8,0.000646591,-0.000881195,-0.001602173,0,
00:08.8,0.000652313,-0.000886917,-0.001613617,0,
00:08.8,0.000646591,-0.000892639,-0.001607895,0,
00:08.8,0.000629425,-0.000892639,-0.001619339,0,
00:08.8,0.000652313,-0.000881195,-0.001613617,0,
00:08.8,0.000669479,-0.000875473,-0.001642227,0,
00:08.8,0.000652313,-0.000875473,-0.001636505,0,
00:08.8,0.000635147,-0.000875473,-0.001630783,0,
00:08.8,0.000612259,-0.000886917,-0.001619339,0,
00:08.8,0.000663757,-0.000886917,-0.001653671,0,
00:08.8,0.000646591,-0.000886917,-0.001625061,0,
00:08.8,0.000658035,-0.000881195,-0.001665115,0,
00:08.8,0.000646591,-0.000892639,-0.001653671,0,
00:08.9,0.000640869,-0.000892639,-0.001636505,0,
00:08.9,0.000629425,-0.000886917,-0.001625061,0,
00:08.9,0.000646591,-0.000881195,-0.001590729,0,
00:08.9,0.000640869,-0.000881195,-0.001590729,0,
00:08.9,0.000652313,-0.000881195,-0.001619339,0,
00:08.9,0.000652313,-0.000886917,-0.001659393,0,
00:08.9,0.000652313,-0.000886917,-0.001642227,0,
00:08.9,0.000658035,-0.000881195,-0.001596451,0,
00:08.9,0.000629425,-0.000875473,-0.001619339,0,
00:08.9,0.000640869,-0.000875473,-0.001642227,0,
00:08.9,0.000658035,-0.000875473,-0.001642227,0,
00:08.9,0.000663757,-0.000875473,-0.001625061,0,
00:08.9,0.000652313,-0.000869751,-0.001607895,0,
00:08.9,0.000635147,-0.000875473,-0.001625061,0,
00:08.9,0.000652313,-0.000875473,-0.001613617,0,
00:08.9,0.000646591,-0.000875473,-0.001630783,0,
00:08.9,0.000652313,-0.000869751,-0.001665115,0,
00:08.9,0.000658035,-0.000869751,-0.001682281,0,
00:08.9,0.000640869,-0.000881195,-0.001602173,0,
00:08.9,0.000646591,-0.000881195,-0.001590729,0,
00:08.9,0.000652313,-0.000875473,-0.001630783,0,
00:08.9,0.000640869,-0.000875473,-0.001665115,0,
00:08.9,0.000623703,-0.000886917,-0.001636505,0,
00:08.9,0.000663757,-0.000881195,-0.001625061,0,
00:08.9,0.000652313,-0.000881195,-0.001659393,0,
00:09.0,0.000640869,-0.000881195,-0.001607895,0,
00:09.0,0.000606537,-0.000886917,-0.001625061,0,
00:09.0,0.000652313,-0.000875473,-0.001596451,0,
00:09.0,0.000640869,-0.000875473,-0.001607895,0,
00:09.0,0.000635147,-0.000881195,-0.001625061,0,
00:09.0,0.000646591,-0.000881195,-0.001630783,0,
00:09.0,0.000663757,-0.000869751,-0.001625061,0,
00:09.0,0.000658035,-0.000869751,-0.001636505,0,
00:09.0,0.000640869,-0.000869751,-0.001665115,0,
00:09.0,0.000640869,-0.000875473,-0.001670837,0,
00:09.0,0.000629425,-0.000875473,-0.001625061,0,
00:09.0,0.000629425,-0.000875473,-0.001607895,0,
00:00:09,0.000646591,-0.000875473,-0.001642227,0,
00:09.0,0.000646591,-0.000875473,-0.001642227,0,
00:09.0,0.000646591,-0.000869751,-0.001670837,0,
00:09.0,0.000629425,-0.000875473,-0.001665115,0,
00:09.0,0.000640869,-0.000875473,-0.001607895,0,
00:09.0,0.000635147,-0.000875473,-0.001602173,0,
00:09.0,0.000646591,-0.000875473,-0.001636505,0,
00:09.0,0.000617981,-0.000886917,-0.001619339,0,
00:09.0,0.000617981,-0.000892639,-0.001625061,0,
00:09.0,0.000640869,-0.000881195,-0.001647949,0,
00:09.0,0.000646591,-0.000869751,-0.001630783,0,
00:09.0,0.000640869,-0.000869751,-0.001630783,0,
00:09.0,0.000640869,-0.000869751,-0.001653671,0,
00:09.1,0.000640869,-0.000869751,-0.001647949,0,
00:09.1,0.000629425,-0.000875473,-0.001625061,0,
00:09.1,0.000612259,-0.000881195,-0.001630783,0,
00:09.1,0.000617981,-0.000875473,-0.001688004,0,
00:09.1,0.000658035,-0.000858307,-0.001693726,0,
00:09.1,0.000680923,-0.000875473,-0.001647949,0,
00:09.1,0.000640869,-0.000875473,-0.001602173,0,
00:09.1,0.000629425,-0.000881195,-0.001647949,0,
00:09.1,0.000635147,-0.000886917,-0.001619339,0,
00:09.1,0.000635147,-0.000881195,-0.001625061,0,
00:09.1,0.000635147,-0.000869751,-0.001653671,0,
00:09.1,0.000640869,-0.000869751,-0.001630783,0,
00:09.1,0.000617981,-0.000881195,-0.001625061,0,
00:09.1,0.000617981,-0.000881195,-0.001659393,0,
00:09.1,0.000635147,-0.000881195,-0.001630783,0,
00:09.1,0.000635147,-0.000886917,-0.001590729,0,
00:09.1,0.000635147,-0.000881195,-0.001619339,0,
00:09.1,0.000623703,-0.000864029,-0.001682281,0,
00:09.1,0.000635147,-0.000858307,-0.001682281,0,
00:09.1,0.000640869,-0.000864029,-0.001636505,0,
00:09.1,0.000646591,-0.000858307,-0.001670837,0,
00:09.1,0.000629425,-0.000864029,-0.001682281,0,
00:09.1,0.000629425,-0.000875473,-0.001642227,0,
00:09.1,0.000629425,-0.000869751,-0.001630783,0,
00:09.1,0.000623703,-0.000869751,-0.001647949,0,
00:09.2,0.000635147,-0.000869751,-0.001665115,0,
00:09.2,0.000612259,-0.000869751,-0.001676559,0,
00:09.2,0.000617981,-0.000881195,-0.001642227,0,
00:09.2,0.000635147,-0.000875473,-0.001613617,0,
00:09.2,0.000640869,-0.000864029,-0.001659393,0,
00:09.2,0.000629425,-0.000864029,-0.001642227,0,
00:09.2,0.000606537,-0.000869751,-0.001636505,0,
00:09.2,0.000606537,-0.000869751,-0.001670837,0,
00:09.2,0.000658035,-0.000875473,-0.001642227,0,
00:09.2,0.000640869,-0.000875473,-0.001688004,0,
00:09.2,0.000617981,-0.000875473,-0.001659393,0,
00:09.2,0.000635147,-0.000858307,-0.001653671,0,
00:09.2,0.000629425,-0.000858307,-0.001670837,0,
00:09.2,0.000623703,-0.000869751,-0.001676559,0,
00:09.2,0.000623703,-0.000869751,-0.001659393,0,
00:09.2,0.000629425,-0.000864029,-0.001647949,0,
00:09.2,0.000606537,-0.000864029,-0.001659393,0,
00:09.2,0.000623703,-0.000864029,-0.001665115,0,
00:09.2,0.000623703,-0.000858307,-0.001665115,0,
00:09.2,0.000640869,-0.000864029,-0.001670837,0,
00:09.2,0.000640869,-0.000864029,-0.001653671,0,
00:09.2,0.000617981,-0.000869751,-0.001647949,0,
00:09.2,0.000617981,-0.000869751,-0.001642227,0,
00:09.2,0.000617981,-0.000864029,-0.001665115,0,
00:09.2,0.000617981,-0.000864029,-0.001665115,0,
00:09.3,0.000623703,-0.000869751,-0.001659393,0,
00:09.3,0.000595093,-0.000875473,-0.001653671,0,
00:09.3,0.000600815,-0.000869751,-0.001642227,0,
00:09.3,0.000600815,-0.000864029,-0.001665115,0,
00:09.3,0.000623703,-0.000852585,-0.001716614,0,
00:09.3,0.000617981,-0.000852585,-0.001699448,0,
00:09.3,0.000606537,-0.000864029,-0.001670837,0,
00:09.3,0.000623703,-0.000869751,-0.001670837,0,
00:09.3,0.000617981,-0.000864029,-0.001630783,0,
00:09.3,0.000629425,-0.000852585,-0.001665115,0,
00:09.3,0.000606537,-0.000846863,-0.001682281,0,
00:09.3,0.000623703,-0.000852585,-0.001688004,0,
00:09.3,0.000623703,-0.000864029,-0.001676559,0,
00:09.3,0.000600815,-0.000869751,-0.001670837,0,
00:09.3,0.000612259,-0.000869751,-0.001682281,0,
00:09.3,0.000617981,-0.000852585,-0.001665115,0,
00:09.3,0.000623703,-0.000852585,-0.001670837,0,
00:09.3,0.000617981,-0.000858307,-0.001636505,0,
00:09.3,0.000606537,-0.000858307,-0.001642227,0,
00:09.3,0.000635147,-0.000858307,-0.001670837,0,
00:09.3,0.000640869,-0.000864029,-0.001710892,0,
00:09.3,0.000606537,-0.000858307,-0.00173378,0,
00:09.3,0.000577927,-0.000864029,-0.001676559,0,
00:09.3,0.000623703,-0.000858307,-0.001665115,0,
00:09.3,0.000617981,-0.000858307,-0.001659393,0,
00:09.4,0.000606537,-0.000864029,-0.001670837,0,
00:09.4,0.000600815,-0.000858307,-0.001642227,0,
00:09.4,0.000589371,-0.000864029,-0.001676559,0,
00:09.4,0.000612259,-0.000858307,-0.001682281,0,
00:09.4,0.000606537,-0.000852585,-0.001682281,0,
00:09.4,0.000612259,-0.000858307,-0.001676559,0,
00:09.4,0.000606537,-0.000852585,-0.001693726,0,
00:09.4,0.000595093,-0.000852585,-0.001699448,0,
00:09.4,0.000600815,-0.000852585,-0.001659393,0,
00:09.4,0.000600815,-0.000858307,-0.001636505,0,
00:09.4,0.000606537,-0.000852585,-0.001642227,0,
00:09.4,0.000617981,-0.000858307,-0.001676559,0,
00:09.4,0.000635147,-0.000852585,-0.00170517,0,
00:09.4,0.000635147,-0.000841141,-0.001739502,0,
00:09.4,0.000612259,-0.000858307,-0.001665115,0,
00:09.4,0.000589371,-0.000869751,-0.001625061,0,
00:09.4,0.000583649,-0.000864029,-0.001670837,0,
00:09.4,0.000600815,-0.000858307,-0.001676559,0,
00:09.4,0.000617981,-0.000846863,-0.001682281,0,
00:09.4,0.000617981,-0.000841141,-0.001676559,0,
00:09.4,0.000606537,-0.000846863,-0.001688004,0,
00:09.4,0.000606537,-0.000858307,-0.001682281,0,
00:09.4,0.000595093,-0.000852585,-0.001699448,0,
00:09.4,0.000606537,-0.000846863,-0.001647949,0,
00:09.4,0.000617981,-0.000852585,-0.001710892,0,
00:09.5,0.000589371,-0.000858307,-0.001699448,0,
00:09.5,0.000623703,-0.000852585,-0.001653671,0,
00:09.5,0.000600815,-0.000858307,-0.001659393,0,
00:09.5,0.000589371,-0.000846863,-0.001670837,0,
00:09.5,0.000589371,-0.000846863,-0.001682281,0,
00:09.5,0.000600815,-0.000852585,-0.001670837,0,
00:09.5,0.000612259,-0.000846863,-0.001676559,0,
00:09.5,0.000617981,-0.000852585,-0.001653671,0,
00:09.5,0.000617981,-0.000852585,-0.001676559,0,
00:09.5,0.000595093,-0.000846863,-0.001699448,0,
00:09.5,0.000606537,-0.000846863,-0.001670837,0,
00:09.5,0.000606537,-0.000841141,-0.001682281,0,
00:09.5,0.000600815,-0.000846863,-0.001688004,0,
00:09.5,0.000600815,-0.000852585,-0.001693726,0,
00:09.5,0.000606537,-0.000846863,-0.001676559,0,
00:09.5,0.000600815,-0.000841141,-0.001676559,0,
00:09.5,0.000589371,-0.000846863,-0.001722336,0,
00:09.5,0.000600815,-0.000852585,-0.001682281,0,
00:09.5,0.000595093,-0.000852585,-0.001682281,0,
00:09.5,0.000617981,-0.000852585,-0.001676559,0,
00:09.5,0.000617981,-0.000846863,-0.001699448,0,
00:09.5,0.000589371,-0.000846863,-0.001699448,0,
00:09.5,0.000600815,-0.000841141,-0.001688004,0,
00:09.5,0.000617981,-0.000846863,-0.001682281,0,
00:09.5,0.000606537,-0.000852585,-0.001670837,0,
00:09.6,0.000577927,-0.000864029,-0.001665115,0,
00:09.6,0.000600815,-0.000852585,-0.001642227,0,
00:09.6,0.000600815,-0.000841141,-0.001659393,0,
00:09.6,0.000577927,-0.000841141,-0.001682281,0,
00:09.6,0.000600815,-0.000841141,-0.001693726,0,
00:09.6,0.000623703,-0.000841141,-0.001682281,0,
00:09.6,0.000612259,-0.000835419,-0.001710892,0,
00:09.6,0.000589371,-0.000841141,-0.001670837,0,
00:09.6,0.000583649,-0.000841141,-0.001682281,0,
00:09.6,0.000595093,-0.000841141,-0.001716614,0,
00:09.6,0.000612259,-0.000841141,-0.001728058,0,
00:09.6,0.000600815,-0.000846863,-0.001682281,0,
00:09.6,0.000595093,-0.000841141,-0.001653671,0,
00:09.6,0.000606537,-0.000835419,-0.001699448,0,
00:09.6,0.000606537,-0.000841141,-0.001750946,0,
00:09.6,0.000589371,-0.000846863,-0.001653671,0,
00:09.6,0.000595093,-0.000841141,-0.001647949,0,
00:09.6,0.000595093,-0.000841141,-0.001688004,0,
00:09.6,0.000595093,-0.000846863,-0.001676559,0,
00:09.6,0.000600815,-0.000841141,-0.001676559,0,
00:09.6,0.000595093,-0.000835419,-0.001676559,0,
00:09.6,0.000589371,-0.000852585,-0.001699448,0,
00:09.6,0.000595093,-0.000852585,-0.001688004,0,
00:09.6,0.000589371,-0.000846863,-0.001688004,0,
00:09.6,0.000606537,-0.000829697,-0.001682281,0,
00:09.7,0.000600815,-0.000823975,-0.001688004,0,
00:09.7,0.000589371,-0.000835419,-0.00170517,0,
00:09.7,0.000595093,-0.000835419,-0.001693726,0,
00:09.7,0.000606537,-0.000835419,-0.001693726,0,
00:09.7,0.000600815,-0.000829697,-0.00170517,0,
00:09.7,0.000577927,-0.000841141,-0.001653671,0,
00:09.7,0.000577927,-0.000841141,-0.001659393,0,
00:09.7,0.00056076,-0.000846863,-0.001688004,0,
00:09.7,0.000577927,-0.000846863,-0.00170517,0,
00:09.7,0.000635147,-0.000829697,-0.001768112,0,
00:09.7,0.000583649,-0.000835419,-0.001699448,0,
00:09.7,0.000600815,-0.000841141,-0.001682281,0,
00:09.7,0.000600815,-0.000835419,-0.001647949,0,
00:09.7,0.000595093,-0.000835419,-0.001636505,0,
00:09.7,0.000572205,-0.000835419,-0.001688004,0,
00:09.7,0.000583649,-0.000835419,-0.001710892,0,
00:09.7,0.000589371,-0.000829697,-0.001716614,0,
00:09.7,0.000583649,-0.000835419,-0.001682281,0,
00:09.7,0.000600815,-0.000841141,-0.001670837,0,
00:09.7,0.000600815,-0.000841141,-0.001665115,0,
00:09.7,0.000595093,-0.000835419,-0.001676559,0,
00:09.7,0.000589371,-0.000829697,-0.001688004,0,
00:09.7,0.000595093,-0.000823975,-0.001710892,0,
00:09.7,0.000595093,-0.000823975,-0.001722336,0,
00:09.7,0.000595093,-0.000829697,-0.001693726,0,
00:09.8,0.000583649,-0.000835419,-0.001688004,0,
00:09.8,0.000583649,-0.000835419,-0.001710892,0,
00:09.8,0.000577927,-0.000841141,-0.001665115,0,
00:09.8,0.000589371,-0.000835419,-0.001693726,0,
00:09.8,0.000595093,-0.000823975,-0.00170517,0,
00:09.8,0.000583649,-0.000829697,-0.00173378,0,
00:09.8,0.000600815,-0.000835419,-0.001682281,0,
00:09.8,0.000589371,-0.000829697,-0.001682281,0,
00:09.8,0.00056076,-0.000835419,-0.001676559,0,
00:09.8,0.000572205,-0.000829697,-0.00170517,0,
00:09.8,0.000595093,-0.000835419,-0.001670837,0,
00:09.8,0.000595093,-0.000829697,-0.001670837,0,
00:09.8,0.000629425,-0.000829697,-0.001699448,0,
00:09.8,0.000612259,-0.000841141,-0.001710892,0,
00:09.8,0.000583649,-0.000835419,-0.001699448,0,
00:09.8,0.000589371,-0.000835419,-0.001693726,0,
00:09.8,0.000600815,-0.000823975,-0.001693726,0,
00:09.8,0.000612259,-0.000823975,-0.001670837,0,
00:09.8,0.000612259,-0.000835419,-0.001693726,0,
00:09.8,0.000583649,-0.000829697,-0.001670837,0,
00:09.8,0.000577927,-0.000823975,-0.001676559,0,
00:09.8,0.000583649,-0.000823975,-0.001688004,0,
00:09.8,0.000595093,-0.000829697,-0.001693726,0,
00:09.8,0.000606537,-0.000823975,-0.001699448,0,
