Elapsed_Time,EMG1,EMG2,EMG3,BioRadio Event,Unnamed: 5
00:00:00,0.001527786,0.00094986,0.014293671,0,
00:00.0,0.001533508,0.00094986,0.014287949,0,
00:00.0,0.001533508,0.000967026,0.014293671,0,
00:00.0,0.00153923,0.000972748,0.014276505,0,
00:00.0,0.001533508,0.000967026,0.014310837,0,
00:00.0,0.001533508,0.000955582,0.014310837,0,
00:00.0,0.001522064,0.00094986,0.014305115,0,
00:00.0,0.00153923,0.000967026,0.014299393,0,
00:00.0,0.001533508,0.000967026,0.014293671,0,
00:00.0,0.001527786,0.000961304,0.014305115,0,
00:00.0,0.001533508,0.000961304,0.014305115,0,
00:00.0,0.00153923,0.000972748,0.014293671,0,
00:00.0,0.001533508,0.000967026,0.014293671,0,
00:00.1,0.001527786,0.000972748,0.014310837,0,
00:00.1,0.001533508,0.000955582,0.014310837,0,
00:00.1,0.001527786,0.00094986,0.014276505,0,
00:00.1,0.001533508,0.000967026,0.014310837,0,
00:00.1,0.001527786,0.000972748,0.014322281,0,
00:00.1,0.001522064,0.000967026,0.014305115,0,
00:00.1,0.001533508,0.000961304,0.014310837,0,
00:00.1,0.001533508,0.000967026,0.014299393,0,
00:00.1,0.001533508,0.000967026,0.014293671,0,
00:00.1,0.001527786,0.000967026,0.014293671,0,
00:00.1,0.001522064,0.000967026,0.014293671,0,
00:00.1,0.001533508,0.000961304,0.014310837,0,
00:00.1,0.001533508,0.000961304,0.014310837,0,
00:00.1,0.001533508,0.000961304,0.014305115,0,
00:00.1,0.001533508,0.000967026,0.014305115,0,
00:00.1,0.00153923,0.000984192,0.014299393,0,
00:00.1,0.001533508,0.000984192,0.014299393,0,
00:00.1,0.001527786,0.00094986,0.014299393,0,
00:00.1,0.00153923,0.000955582,0.014287949,0,
00:00.1,0.00153923,0.000972748,0.014316559,0,
00:00.1,0.001544952,0.00097847,0.014310837,0,
00:00.1,0.001533508,0.000972748,0.014299393,0,
00:00.1,0.001527786,0.000967026,0.014305115,0,
00:00.1,0.001533508,0.000955582,0.014299393,0,
00:00.1,0.001533508,0.000967026,0.014310837,0,
00:00.2,0.001533508,0.000972748,0.014310837,0,
00:00.2,0.001533508,0.000967026,0.014310837,0,
00:00.2,0.001533508,0.000955582,0.014293671,0,
00:00.2,0.001527786,0.000961304,0.014305115,0,
00:00.2,0.001533508,0.000967026,0.014299393,0,
00:00.2,0.001533508,0.000972748,0.014310837,0,
00:00.2,0.001533508,0.000961304,0.014299393,0,
00:00.2,0.00153923,0.000961304,0.014299393,0,
00:00.2,0.00153923,0.000967026,0.014310837,0,
00:00.2,0.001533508,0.000967026,0.014322281,0,
00:00.2,0.001533508,0.000972748,0.014316559,0,
00:00.2,0.001533508,0.000961304,0.014305115,0,
00:00.2,0.001533508,0.000955582,0.014305115,0,
00:00.2,0.001533508,0.000955582,0.014305115,0,
00:00.2,0.00153923,0.000972748,0.014310837,0,
00:00.2,0.001533508,0.000984192,0.014305115,0,
00:00.2,0.001533508,0.000972748,0.014299393,0,
00:00.2,0.001550674,0.000972748,0.014305115,0,
00:00.2,0.001544952,0.000967026,0.014310837,0,
00:00.2,0.00153923,0.000961304,0.014305115,0,
00:00.2,0.001533508,0.000967026,0.014310837,0,
00:00.2,0.00153923,0.000967026,0.014305115,0,
00:00.2,0.00153923,0.000955582,0.014282227,0,
00:00.2,0.001533508,0.000961304,0.014299393,0,
00:00.2,0.001550674,0.00097847,0.014333725,0,
00:00.3,0.001533508,0.00097847,0.014322281,0,
00:00.3,0.001533508,0.000967026,0.014299393,0,
00:00.3,0.001544952,0.000961304,0.014299393,0,
00:00.3,0.00153923,0.000967026,0.014305115,0,
00:00.3,0.001544952,0.00097847,0.014310837,0,
00:00.3,0.00153923,0.000984192,0.014305115,0,
00:00.3,0.00153923,0.00097847,0.014310837,0,
00:00.3,0.001533508,0.000955582,0.014305115,0,
00:00.3,0.00153923,0.000961304,0.014310837,0,
00:00.3,0.001550674,0.000972748,0.014322281,0,
00:00.3,0.001533508,0.000967026,0.014316559,0,
00:00.3,0.001533508,0.000967026,0.014310837,0,
00:00.3,0.001533508,0.000961304,0.014293671,0,
00:00.3,0.001533508,0.000967026,0.014322281,0,
00:00.3,0.00153923,0.000972748,0.014305115,0,
00:00.3,0.001544952,0.000984192,0.014305115,0,
00:00.3,0.001544952,0.00097847,0.014299393,0,
00:00.3,0.00153923,0.000967026,0.014299393,0,
00:00.3,0.001533508,0.000961304,0.014322281,0,
00:00.3,0.00153923,0.00097847,0.014316559,0,
00:00.3,0.00153923,0.00097847,0.014310837,0,
00:00.3,0.001544952,0.00097847,0.014310837,0,
00:00.3,0.001533508,0.000972748,0.014310837,0,
00:00.3,0.001533508,0.000972748,0.014305115,0,
00:00.3,0.001544952,0.00097847,0.014322281,0,
00:00.4,0.001544952,0.00097847,0.014316559,0,
00:00.4,0.001533508,0.000961304,0.014305115,0,
00:00.4,0.001544952,0.000967026,0.014305115,0,
00:00.4,0.001544952,0.000972748,0.014322281,0,
00:00.4,0.00153923,0.00097847,0.014328003,0,
00:00.4,0.001533508,0.00097847,0.014316559,0,
00:00.4,0.001544952,0.000972748,0.014316559,0,
00:00.4,0.00153923,0.000967026,0.014310837,0,
00:00.4,0.00153923,0.000967026,0.014316559,0,
00:00.4,0.001544952,0.00097847,0.014310837,0,
00:00.4,0.001544952,0.000984192,0.014299393,0,
00:00.4,0.00153923,0.000972748,0.014310837,0,
00:00.4,0.001533508,0.000961304,0.014305115,0,
00:00.4,0.001550674,0.000967026,0.014316559,0,
00:00.4,0.001550674,0.000972748,0.014328003,0,
00:00.4,0.001544952,0.000972748,0.014333725,0,
00:00.4,0.00153923,0.000967026,0.014310837,0,
00:00.4,0.00153923,0.000972748,0.014305115,0,
00:00.4,0.001533508,0.000967026,0.014322281,0,
00:00.4,0.001556396,0.000989914,0.014316559,0,
00:00.4,0.001550674,0.000984192,0.014316559,0,
00:00.4,0.001544952,0.000972748,0.014322281,0,
00:00.4,0.001544952,0.000967026,0.014322281,0,
00:00.4,0.00153923,0.000967026,0.014316559,0,
00:00.4,0.001544952,0.00097847,0.014310837,0,
00:00.5,0.001544952,0.000972748,0.014316559,0,
00:00.5,0.001550674,0.000972748,0.014316559,0,
00:00.5,0.001550674,0.00097847,0.014316559,0,
00:00.5,0.001544952,0.000967026,0.014310837,0,
00:00.5,0.00153923,0.000967026,0.014299393,0,
00:00.5,0.001544952,0.00097847,0.014310837,0,
00:00.5,0.001544952,0.000972748,0.014339447,0,
00:00.5,0.00153923,0.000961304,0.014333725,0,
00:00.5,0.001544952,0.000967026,0.014316559,0,
00:00.5,0.001550674,0.00097847,0.014322281,0,
00:00.5,0.001544952,0.00097847,0.014316559,0,
00:00.5,0.001527786,0.000967026,0.014310837,0,
00:00.5,0.001533508,0.000967026,0.014310837,0,
00:00.5,0.001556396,0.000967026,0.014316559,0,
00:00.5,0.001556396,0.00097847,0.014316559,0,
00:00.5,0.001550674,0.000984192,0.014305115,0,
00:00.5,0.001544952,0.000972748,0.014305115,0,
00:00.5,0.001550674,0.000961304,0.014322281,0,
00:00.5,0.001556396,0.00097847,0.014328003,0,
00:00.5,0.001550674,0.00097847,0.014328003,0,
00:00.5,0.001550674,0.00097847,0.014316559,0,
00:00.5,0.001550674,0.00097847,0.014305115,0,
00:00.5,0.001550674,0.000972748,0.014322281,0,
00:00.5,0.001550674,0.000967026,0.014339447,0,
00:00.5,0.001550674,0.000972748,0.014339447,0,
00:00.6,0.001550674,0.00097847,0.014328003,0,
00:00.6,0.001544952,0.000972748,0.014316559,0,
00:00.6,0.001544952,0.000967026,0.014316559,0,
00:00.6,0.001544952,0.000972748,0.014322281,0,
00:00.6,0.001550674,0.000972748,0.014310837,0,
00:00.6,0.001544952,0.00097847,0.014299393,0,
00:00.6,0.001544952,0.000972748,0.014328003,0,
00:00.6,0.001544952,0.000961304,0.014322281,0,
00:00.6,0.001544952,0.000972748,0.014316559,0,
00:00.6,0.00153923,0.000989914,0.014322281,0,
00:00.6,0.001544952,0.000984192,0.014333725,0,
00:00.6,0.001544952,0.00097847,0.014328003,0,
00:00.6,0.001556396,0.000967026,0.014328003,0,
00:00.6,0.001550674,0.000967026,0.014328003,0,
00:00.6,0.001550674,0.000984192,0.014322281,0,
00:00.6,0.001544952,0.00097847,0.014328003,0,
00:00.6,0.001544952,0.000972748,0.014322281,0,
00:00.6,0.001550674,0.000967026,0.014333725,0,
00:00.6,0.001550674,0.000972748,0.014328003,0,
00:00.6,0.001550674,0.000984192,0.014316559,0,
00:00.6,0.001544952,0.000984192,0.014316559,0,
00:00.6,0.001544952,0.000967026,0.014316559,0,
00:00.6,0.001550674,0.000967026,0.014322281,0,
00:00.6,0.001556396,0.000972748,0.014328003,0,
00:00.6,0.001550674,0.00097847,0.014328003,0,
00:00.7,0.001556396,0.000989914,0.014322281,0,
00:00.7,0.001556396,0.000984192,0.014328003,0,
00:00.7,0.00153923,0.000961304,0.014316559,0,
00:00.7,0.001550674,0.000972748,0.014322281,0,
00:00.7,0.001544952,0.000984192,0.014328003,0,
00:00.7,0.001544952,0.000989914,0.014339447,0,
00:00.7,0.001556396,0.000972748,0.014328003,0,
00:00.7,0.001550674,0.000961304,0.014322281,0,
00:00.7,0.00153923,0.000961304,0.014310837,0,
00:00.7,0.001544952,0.000984192,0.014328003,0,
00:00.7,0.001562119,0.000995636,0.014316559,0,
00:00.7,0.001550674,0.00097847,0.014328003,0,
00:00.7,0.001550674,0.000972748,0.014322281,0,
00:00.7,0.001556396,0.00097847,0.014316559,0,
00:00.7,0.001550674,0.00097847,0.014316559,0,
00:00.7,0.001556396,0.000984192,0.014339447,0,
00:00.7,0.001556396,0.00097847,0.014328003,0,
00:00.7,0.001556396,0.000972748,0.014316559,0,
00:00.7,0.001550674,0.000967026,0.014333725,0,
00:00.7,0.001550674,0.000984192,0.014333725,0,
00:00.7,0.001550674,0.00097847,0.014316559,0,
00:00.7,0.001550674,0.000972748,0.014322281,0,
00:00.7,0.001550674,0.000967026,0.014328003,0,
00:00.7,0.001556396,0.000967026,0.014339447,0,
00:00.7,0.001550674,0.000972748,0.014333725,0,
00:00.8,0.001550674,0.000984192,0.014322281,0,
00:00.8,0.001544952,0.00097847,0.014322281,0,
00:00.8,0.00153923,0.000972748,0.014322281,0,
00:00.8,0.001562119,0.000984192,0.014328003,0,
00:00.8,0.001556396,0.00097847,0.014322281,0,
00:00.8,0.001550674,0.000984192,0.014316559,0,
00:00.8,0.001550674,0.000972748,0.014328003,0,
00:00.8,0.001544952,0.000967026,0.014333725,0,
00:00.8,0.001550674,0.000972748,0.014328003,0,
00:00.8,0.001550674,0.00097847,0.014322281,0,
00:00.8,0.001550674,0.00097847,0.014322281,0,
00:00.8,0.001556396,0.000972748,0.014316559,0,
00:00.8,0.001556396,0.00097847,0.014328003,0,
00:00.8,0.001556396,0.000972748,0.014345169,0,
00:00.8,0.001550674,0.00097847,0.014339447,0,
00:00.8,0.001550674,0.000984192,0.014328003,0,
00:00.8,0.001550674,0.00097847,0.014316559,0,
00:00.8,0.001556396,0.000972748,0.014316559,0,
00:00.8,0.001550674,0.000972748,0.014322281,0,
00:00.8,0.001550674,0.00097847,0.014333725,0,
00:00.8,0.001550674,0.000984192,0.014328003,0,
00:00.8,0.001550674,0.00097847,0.014339447,0,
00:00.8,0.001544952,0.000972748,0.014328003,0,
00:00.8,0.001550674,0.000972748,0.014322281,0,
00:00.8,0.001550674,0.000984192,0.014322281,0,
00:00.9,0.001544952,0.000972748,0.014345169,0,
00:00.9,0.001556396,0.00097847,0.014333725,0,
00:00.9,0.001556396,0.00097847,0.014328003,0,
00:00.9,0.001556396,0.00097847,0.014328003,0,
00:00.9,0.001550674,0.00097847,0.014328003,0,
00:00.9,0.001544952,0.000989914,0.014328003,0,
00:00.9,0.001550674,0.000989914,0.014322281,0,
00:00.9,0.001556396,0.000967026,0.014333725,0,
00:00.9,0.001550674,0.000967026,0.014333725,0,
00:00.9,0.001550674,0.000984192,0.014333725,0,
00:00.9,0.001550674,0.000984192,0.014333725,0,
00:00.9,0.001550674,0.00097847,0.014316559,0,
00:00.9,0.001550674,0.00097847,0.014310837,0,
00:00.9,0.001556396,0.000984192,0.014328003,0,
00:00.9,0.001556396,0.00097847,0.014345169,0,
00:00.9,0.001556396,0.000984192,0.014328003,0,
00:00.9,0.001550674,0.000972748,0.014339447,0,
00:00.9,0.00153923,0.000972748,0.014333725,0,
00:00.9,0.001562119,0.000989914,0.014328003,0,
00:00.9,0.001567841,0.000984192,0.014328003,0,
00:00.9,0.001562119,0.000984192,0.014333725,0,
00:00.9,0.001562119,0.00097847,0.014328003,0,
00:00.9,0.001556396,0.000972748,0.014328003,0,
00:00.9,0.001550674,0.000967026,0.014339447,0,
00:00.9,0.001562119,0.00097847,0.014333725,0,
00:01.0,0.001556396,0.000972748,0.014339447,0,
00:01.0,0.001550674,0.000967026,0.014322281,0,
00:01.0,0.001556396,0.000972748,0.014328003,0,
00:01.0,0.001562119,0.000984192,0.014322281,0,
00:01.0,0.001556396,0.000984192,0.014322281,0,
00:01.0,0.001550674,0.000984192,0.014333725,0,
00:01.0,0.001562119,0.00097847,0.014310837,0,
00:01.0,0.001562119,0.000967026,0.014305115,0,
00:01.0,0.001567841,0.000972748,0.014345169,0,
00:01.0,0.001556396,0.000972748,0.014339447,0,
00:01.0,0.001562119,0.000989914,0.014328003,0,
00:01.0,0.001562119,0.000989914,0.014328003,0,
00:00:01,0.001556396,0.000984192,0.014322281,0,
00:01.0,0.001544952,0.000961304,0.014328003,0,
00:01.0,0.001567841,0.00097847,0.014328003,0,
00:01.0,0.001562119,0.00097847,0.014333725,0,
00:01.0,0.001556396,0.000972748,0.014333725,0,
00:01.0,0.001556396,0.00097847,0.014328003,0,
00:01.0,0.001562119,0.00097847,0.014316559,0,
00:01.0,0.001550674,0.000972748,0.014328003,0,
00:01.0,0.001556396,0.000972748,0.014333725,0,
00:01.0,0.001556396,0.000972748,0.014328003,0,
00:01.0,0.001556396,0.000972748,0.014328003,0,
00:01.0,0.001562119,0.00097847,0.014322281,0,
00:01.0,0.001562119,0.000989914,0.014328003,0,
00:01.1,0.001562119,0.000989914,0.014322281,0,
00:01.1,0.001556396,0.000972748,0.014310837,0,
00:01.1,0.001556396,0.000972748,0.014305115,0,
00:01.1,0.001556396,0.000984192,0.014333725,0,
00:01.1,0.001562119,0.00097847,0.014345169,0,
00:01.1,0.001562119,0.00097847,0.014328003,0,
00:01.1,0.001567841,0.000984192,0.014322281,0,
00:01.1,0.001562119,0.000967026,0.014333725,0,
00:01.1,0.001556396,0.000972748,0.014333725,0,
00:01.1,0.001544952,0.00097847,0.014310837,0,
00:01.1,0.001562119,0.000984192,0.014316559,0,
00:01.1,0.001567841,0.000984192,0.014316559,0,
00:01.1,0.001567841,0.000972748,0.014322281,0,
00:01.1,0.001562119,0.000972748,0.014328003,0,
00:01.1,0.001562119,0.00097847,0.014328003,0,
00:01.1,0.001567841,0.000984192,0.014322281,0,
00:01.1,0.001573563,0.000989914,0.014333725,0,
00:01.1,0.001556396,0.000967026,0.014328003,0,
00:01.1,0.001562119,0.000967026,0.014316559,0,
00:01.1,0.001567841,0.00097847,0.014333725,0,
00:01.1,0.001567841,0.000989914,0.014328003,0,
00:01.1,0.001562119,0.000984192,0.014316559,0,
00:01.1,0.001567841,0.000972748,0.014316559,0,
00:01.1,0.001567841,0.000972748,0.014310837,0,
00:01.1,0.001562119,0.00097847,0.014310837,0,
00:01.2,0.001556396,0.000972748,0.014333725,0,
00:01.2,0.001567841,0.000972748,0.014333725,0,
00:01.2,0.001579285,0.00097847,0.014310837,0,
00:01.2,0.001573563,0.000989914,0.014316559,0,
00:01.2,0.001556396,0.000984192,0.014333725,0,
00:01.2,0.001556396,0.00097847,0.014339447,0,
00:01.2,0.001567841,0.00097847,0.014333725,0,
00:01.2,0.001567841,0.000972748,0.014333725,0,
00:01.2,0.001567841,0.000972748,0.014333725,0,
00:01.2,0.001573563,0.000989914,0.014322281,0,
00:01.2,0.001573563,0.000989914,0.014310837,0,
00:01.2,0.001562119,0.00097847,0.014316559,0,
00:01.2,0.001567841,0.000972748,0.014328003,0,
00:01.2,0.001567841,0.000972748,0.014310837,0,
00:01.2,0.001573563,0.000989914,0.014322281,0,
00:01.2,0.001573563,0.000995636,0.014310837,0,
00:01.2,0.001567841,0.00097847,0.014339447,0,
00:01.2,0.001573563,0.00097847,0.014328003,0,
00:01.2,0.001573563,0.000984192,0.014316559,0,
00:01.2,0.001567841,0.000984192,0.014299393,0,
00:01.2,0.001573563,0.000989914,0.014310837,0,
00:01.2,0.001567841,0.00097847,0.014350891,0,
00:01.2,0.001556396,0.000967026,0.014333725,0,
00:01.2,0.001579285,0.00097847,0.014322281,0,
00:01.2,0.001573563,0.000989914,0.014305115,0,
00:01.3,0.001567841,0.000989914,0.014316559,0,
00:01.3,0.001567841,0.00097847,0.014333725,0,
00:01.3,0.001579285,0.00097847,0.014322281,0,
00:01.3,0.001573563,0.00097847,0.014328003,0,
00:01.3,0.001573563,0.000984192,0.014310837,0,
00:01.3,0.001579285,0.001001358,0.014328003,0,
00:01.3,0.001585007,0.000995636,0.014333725,0,
00:01.3,0.001567841,0.000972748,0.014322281,0,
00:01.3,0.001579285,0.000989914,0.014310837,0,
00:01.3,0.001573563,0.000984192,0.014339447,0,
00:01.3,0.001573563,0.00097847,0.014345169,0,
00:01.3,0.001567841,0.00097847,0.014316559,0,
00:01.3,0.001579285,0.000984192,0.014333725,0,
00:01.3,0.001573563,0.000984192,0.014322281,0,
00:01.3,0.001573563,0.000989914,0.014322281,0,
00:01.3,0.001573563,0.000984192,0.014333725,0,
00:01.3,0.001567841,0.000972748,0.014333725,0,
00:01.3,0.001573563,0.000967026,0.014328003,0,
00:01.3,0.001579285,0.000984192,0.014287949,0,
00:01.3,0.001585007,0.001001358,0.014287949,0,
00:01.3,0.001579285,0.000995636,0.014345169,0,
00:01.3,0.001562119,0.00097847,0.014328003,0,
00:01.3,0.001567841,0.000967026,0.014316559,0,
00:01.3,0.001585007,0.000984192,0.014333725,0,
00:01.3,0.001579285,0.001001358,0.014328003,0,
00:01.4,0.001579285,0.001001358,0.014310837,0,
00:01.4,0.001585007,0.000984192,0.014322281,0,
00:01.4,0.001573563,0.000972748,0.014333725,0,
00:01.4,0.001579285,0.000984192,0.014339447,0,
00:01.4,0.001585007,0.001001358,0.014328003,0,
00:01.4,0.001579285,0.000995636,0.014310837,0,
00:01.4,0.001579285,0.000984192,0.014305115,0,
00:01.4,0.001579285,0.00097847,0.014345169,0,
00:01.4,0.001573563,0.000984192,0.014339447,0,
00:01.4,0.001579285,0.000989914,0.014316559,0,
00:01.4,0.001579285,0.000995636,0.014322281,0,
00:01.4,0.001579285,0.000989914,0.014333725,0,
00:01.4,0.001585007,0.000984192,0.014328003,0,
00:01.4,0.001585007,0.000984192,0.014316559,0,
00:01.4,0.001579285,0.000995636,0.014322281,0,
00:01.4,0.001579285,0.001001358,0.014305115,0,
00:01.4,0.001585007,0.000989914,0.014328003,0,
00:01.4,0.001579285,0.00097847,0.014333725,0,
00:01.4,0.001579285,0.000984192,0.014322281,0,
00:01.4,0.001573563,0.000989914,0.014305115,0,
00:01.4,0.001579285,0.000984192,0.014339447,0,
00:01.4,0.001573563,0.000989914,0.014333725,0,
00:01.4,0.001579285,0.000995636,0.014328003,0,
00:01.4,0.001579285,0.000984192,0.014328003,0,
00:01.4,0.001579285,0.000984192,0.014322281,0,
00:01.5,0.001585007,0.00100708,0.014316559,0,
00:01.5,0.001590729,0.000995636,0.014328003,0,
00:01.5,0.001579285,0.000989914,0.014322281,0,
00:01.5,0.001573563,0.00097847,0.014316559,0,
00:01.5,0.001579285,0.000984192,0.014322281,0,
00:01.5,0.001585007,0.000995636,0.014333725,0,
00:01.5,0.001585007,0.000989914,0.014328003,0,
00:01.5,0.001585007,0.00097847,0.014322281,0,
00:01.5,0.001585007,0.000989914,0.014328003,0,
00:01.5,0.001585007,0.001001358,0.014333725,0,
00:01.5,0.001579285,0.000989914,0.014328003,0,
00:01.5,0.001573563,0.000984192,0.014310837,0,
00:01.5,0.001567841,0.00097847,0.014287949,0,
00:01.5,0.001579285,0.000989914,0.014333725,0,
00:01.5,0.001585007,0.001001358,0.014328003,0,
00:01.5,0.001585007,0.00100708,0.014333725,0,
00:01.5,0.001579285,0.000989914,0.014322281,0,
00:01.5,0.001579285,0.000984192,0.014310837,0,
00:01.5,0.001579285,0.000989914,0.014310837,0,
00:01.5,0.001573563,0.001001358,0.014310837,0,
00:01.5,0.001579285,0.000989914,0.014350891,0,
00:01.5,0.001579285,0.000989914,0.014339447,0,
00:01.5,0.001579285,0.000984192,0.014316559,0,
00:01.5,0.001585007,0.000995636,0.014316559,0,
00:01.5,0.001579285,0.000995636,0.014322281,0,
00:01.6,0.001579285,0.000995636,0.014322281,0,
00:01.6,0.001585007,0.000995636,0.014328003,0,
00:01.6,0.001585007,0.000984192,0.014316559,0,
00:01.6,0.001579285,0.000984192,0.014322281,0,
00:01.6,0.001585007,0.00100708,0.014316559,0,
00:01.6,0.001579285,0.001001358,0.014310837,0,
00:01.6,0.001573563,0.000989914,0.014316559,0,
00:01.6,0.001579285,0.000989914,0.014310837,0,
00:01.6,0.001579285,0.000995636,0.014316559,0,
00:01.6,0.001573563,0.001001358,0.014322281,0,
00:01.6,0.001573563,0.00100708,0.014322281,0,
00:01.6,0.001579285,0.000995636,0.014316559,0,
00:01.6,0.001573563,0.000984192,0.014305115,0,
00:01.6,0.001573563,0.000989914,0.014333725,0,
00:01.6,0.001579285,0.00100708,0.014310837,0,
00:01.6,0.001579285,0.001001358,0.014293671,0,
00:01.6,0.001573563,0.000989914,0.014333725,0,
00:01.6,0.001579285,0.00097847,0.014339447,0,
00:01.6,0.001579285,0.000984192,0.014339447,0,
00:01.6,0.001579285,0.000995636,0.014322281,0,
00:01.6,0.001579285,0.000995636,0.014322281,0,
00:01.6,0.001567841,0.000989914,0.014328003,0,
00:01.6,0.001579285,0.000989914,0.014316559,0,
00:01.6,0.001579285,0.000995636,0.014310837,0,
00:01.6,0.001579285,0.00100708,0.014316559,0,
00:01.7,0.001585007,0.00100708,0.014328003,0,
00:01.7,0.001579285,0.001001358,0.014316559,0,
00:01.7,0.001585007,0.000989914,0.014322281,0,
00:01.7,0.001573563,0.000989914,0.014310837,0,
00:01.7,0.001573563,0.000989914,0.014310837,0,
00:01.7,0.001579285,0.001001358,0.014322281,0,
00:01.7,0.001579285,0.001001358,0.014316559,0,
00:01.7,0.001585007,0.001001358,0.014310837,0,
00:01.7,0.001579285,0.001001358,0.014310837,0,
00:01.7,0.001573563,0.000989914,0.014333725,0,
00:01.7,0.001573563,0.000995636,0.014316559,0,
00:01.7,0.001573563,0.000984192,0.014316559,0,
00:01.7,0.001579285,0.000984192,0.014322281,0,
00:01.7,0.001579285,0.000995636,0.014316559,0,
00:01.7,0.001579285,0.001012802,0.014316559,0,
00:01.7,0.001579285,0.001012802,0.014305115,0,
00:01.7,0.001573563,0.00097847,0.014310837,0,
00:01.7,0.001579285,0.000984192,0.014310837,0,
00:01.7,0.001585007,0.000995636,0.014316559,0,
00:01.7,0.001590729,0.001012802,0.014316559,0,
00:01.7,0.001585007,0.001001358,0.014316559,0,
00:01.7,0.001579285,0.000989914,0.014333725,0,
00:01.7,0.001573563,0.000984192,0.014350891,0,
00:01.7,0.001585007,0.000989914,0.014339447,0,
00:01.7,0.001585007,0.001001358,0.014333725,0,
00:01.8,0.001579285,0.001012802,0.014333725,0,
00:01.8,0.001585007,0.000995636,0.014316559,0,
00:01.8,0.001579285,0.000984192,0.014310837,0,
00:01.8,0.001579285,0.000995636,0.014328003,0,
00:01.8,0.001579285,0.001001358,0.014316559,0,
00:01.8,0.001585007,0.001001358,0.014310837,0,
00:01.8,0.001585007,0.000995636,0.014322281,0,
00:01.8,0.001585007,0.000995636,0.014322281,0,
00:01.8,0.001585007,0.001001358,0.014333725,0,
00:01.8,0.001579285,0.00100708,0.014305115,0,
00:01.8,0.001579285,0.001001358,0.014316559,0,
00:01.8,0.001585007,0.000989914,0.014322281,0,
00:01.8,0.001585007,0.000984192,0.014333725,0,
00:01.8,0.001590729,0.000989914,0.014310837,0,
00:01.8,0.001579285,0.001018524,0.014287949,0,
00:01.8,0.001585007,0.001012802,0.014333725,0,
00:01.8,0.001585007,0.000984192,0.014333725,0,
00:01.8,0.001579285,0.000989914,0.014316559,0,
00:01.8,0.001585007,0.00100708,0.014305115,0,
00:01.8,0.001590729,0.001012802,0.014345169,0,
00:01.8,0.001579285,0.00100708,0.014316559,0,
00:01.8,0.001579285,0.000995636,0.014333725,0,
00:01.8,0.001596451,0.000995636,0.014328003,0,
00:01.8,0.001585007,0.001001358,0.014322281,0,
00:01.8,0.001579285,0.001001358,0.014316559,0,
00:01.9,0.001579285,0.00100708,0.014322281,0,
00:01.9,0.001585007,0.001001358,0.014310837,0,
00:01.9,0.001602173,0.001012802,0.014316559,0,
00:01.9,0.001590729,0.00100708,0.014322281,0,
00:01.9,0.001579285,0.001001358,0.014322281,0,
00:01.9,0.001585007,0.00100708,0.014322281,0,
00:01.9,0.001585007,0.001001358,0.014305115,0,
00:01.9,0.001590729,0.001001358,0.014316559,0,
00:01.9,0.001590729,0.001001358,0.014350891,0,
00:01.9,0.001579285,0.00100708,0.014328003,0,
00:01.9,0.001579285,0.001001358,0.014305115,0,
00:01.9,0.001596451,0.001001358,0.014322281,0,
00:01.9,0.001585007,0.000989914,0.014322281,0,
00:01.9,0.001585007,0.000995636,0.014328003,0,
00:01.9,0.001590729,0.001001358,0.014339447,0,
00:01.9,0.001590729,0.001012802,0.014299393,0,
00:01.9,0.001590729,0.00100708,0.014316559,0,
00:01.9,0.001590729,0.000995636,0.014339447,0,
00:01.9,0.001585007,0.001001358,0.014322281,0,
00:01.9,0.001585007,0.001012802,0.014328003,0,
00:01.9,0.001585007,0.001012802,0.014322281,0,
00:01.9,0.001596451,0.001001358,0.014339447,0,
00:01.9,0.001585007,0.000995636,0.014322281,0,
00:01.9,0.001590729,0.00100708,0.014305115,0,
00:01.9,0.001590729,0.00100708,0.014333725,0,
00:02.0,0.001590729,0.00100708,0.014328003,0,
00:02.0,0.001590729,0.00100708,0.014322281,0,
00:02.0,0.001585007,0.000989914,0.014322281,0,
00:02.0,0.001585007,0.000995636,0.014328003,0,
00:02.0,0.001573563,0.00100708,0.014322281,0,
00:02.0,0.001590729,0.00100708,0.014316559,0,
00:02.0,0.001596451,0.00100708,0.014310837,0,
00:02.0,0.001596451,0.00100708,0.014345169,0,
00:02.0,0.001585007,0.000995636,0.014328003,0,
00:02.0,0.001585007,0.00100708,0.014322281,0,
00:02.0,0.001590729,0.001012802,0.014328003,0,
00:02.0,0.001585007,0.001001358,0.014322281,0,
00:00:02,0.001585007,0.000995636,0.014299393,0,
00:02.0,0.001579285,0.00100708,0.014305115,0,
00:02.0,0.001590729,0.001024246,0.014328003,0,
00:02.0,0.001585007,0.001018524,0.014322281,0,
00:02.0,0.001573563,0.001001358,0.014310837,0,
00:02.0,0.001573563,0.000995636,0.014305115,0,
00:02.0,0.001590729,0.00100708,0.014328003,0,
00:02.0,0.001585007,0.001018524,0.014322281,0,
00:02.0,0.001579285,0.001012802,0.014322281,0,
00:02.0,0.001585007,0.001001358,0.014333725,0,
00:02.0,0.001585007,0.001012802,0.014333725,0,
00:02.0,0.001590729,0.001012802,0.014328003,0,
00:02.0,0.001585007,0.001018524,0.014316559,0,
00:02.1,0.001585007,0.00100708,0.014328003,0,
00:02.1,0.001579285,0.001001358,0.014310837,0,
00:02.1,0.001567841,0.000995636,0.014322281,0,
00:02.1,0.001585007,0.00100708,0.014316559,0,
00:02.1,0.001596451,0.001024246,0.014305115,0,
00:02.1,0.001579285,0.00100708,0.014339447,0,
00:02.1,0.001585007,0.00100708,0.014333725,0,
00:02.1,0.001590729,0.00100708,0.014316559,0,
00:02.1,0.001579285,0.001001358,0.014322281,0,
00:02.1,0.001579285,0.001012802,0.014328003,0,
00:02.1,0.001585007,0.001012802,0.014316559,0,
00:02.1,0.001585007,0.001001358,0.014316559,0,
00:02.1,0.001579285,0.000995636,0.014328003,0,
00:02.1,0.001585007,0.001012802,0.014328003,0,
00:02.1,0.001585007,0.001018524,0.014328003,0,
00:02.1,0.001585007,0.001018524,0.014322281,0,
00:02.1,0.001585007,0.001012802,0.014316559,0,
00:02.1,0.001585007,0.00100708,0.014322281,0,
00:02.1,0.001590729,0.001012802,0.014322281,0,
00:02.1,0.001590729,0.001018524,0.014322281,0,
00:02.1,0.001590729,0.001018524,0.014339447,0,
00:02.1,0.001579285,0.001001358,0.014316559,0,
00:02.1,0.001585007,0.000995636,0.014333725,0,
00:02.1,0.001585007,0.001012802,0.014333725,0,
00:02.1,0.001579285,0.001012802,0.014345169,0,
00:02.2,0.001579285,0.00100708,0.014322281,0,
00:02.2,0.001567841,0.001001358,0.014322281,0,
00:02.2,0.001585007,0.001001358,0.014328003,0,
00:02.2,0.001590729,0.001012802,0.014322281,0,
00:02.2,0.001590729,0.001024246,0.014316559,0,
00:02.2,0.001579285,0.001024246,0.014339447,0,
00:02.2,0.001579285,0.00100708,0.014322281,0,
00:02.2,0.001590729,0.001001358,0.014333725,0,
00:02.2,0.001585007,0.001012802,0.014345169,0,
00:02.2,0.001590729,0.001029968,0.014333725,0,
00:02.2,0.001585007,0.001018524,0.014339447,0,
00:02.2,0.001579285,0.001001358,0.014322281,0,
00:02.2,0.001585007,0.001001358,0.014316559,0,
00:02.2,0.001590729,0.00100708,0.014328003,0,
00:02.2,0.001585007,0.001018524,0.014333725,0,
00:02.2,0.001585007,0.001018524,0.014328003,0,
00:02.2,0.001573563,0.00100708,0.014293671,0,
00:02.2,0.001585007,0.001012802,0.014356613,0,
00:02.2,0.001596451,0.001029968,0.014345169,0,
00:02.2,0.001585007,0.001018524,0.014339447,0,
00:02.2,0.001579285,0.001012802,0.014322281,0,
00:02.2,0.001585007,0.001018524,0.014333725,0,
00:02.2,0.001579285,0.00100708,0.014333725,0,
00:02.2,0.001585007,0.001018524,0.014345169,0,
00:02.2,0.001585007,0.001018524,0.014339447,0,
00:02.3,0.001579285,0.001024246,0.014328003,0,
00:02.3,0.001567841,0.001012802,0.014293671,0,
00:02.3,0.001585007,0.001024246,0.014328003,0,
00:02.3,0.001596451,0.001029968,0.014339447,0,
00:02.3,0.001585007,0.001012802,0.014339447,0,
00:02.3,0.001585007,0.001018524,0.014350891,0,
00:02.3,0.001585007,0.001012802,0.014333725,0,
00:02.3,0.001585007,0.001012802,0.014322281,0,
00:02.3,0.001585007,0.001029968,0.014287949,0,
00:02.3,0.001590729,0.001029968,0.014339447,0,
00:02.3,0.001585007,0.001024246,0.014339447,0,
00:02.3,0.001590729,0.001029968,0.014282227,0,
00:02.3,0.001585007,0.001018524,0.014333725,0,
00:02.3,0.001590729,0.001018524,0.014379501,0,
00:02.3,0.001590729,0.001024246,0.014356613,0,
00:02.3,0.001585007,0.001018524,0.014345169,0,
00:02.3,0.001579285,0.001012802,0.014328003,0,
00:02.3,0.001585007,0.001018524,0.014328003,0,
00:02.3,0.001590729,0.001029968,0.014322281,0,
00:02.3,0.001585007,0.001029968,0.014333725,0,
00:02.3,0.001579285,0.001018524,0.014316559,0,
00:02.3,0.001579285,0.001012802,0.014305115,0,
00:02.3,0.001585007,0.001012802,0.014328003,0,
00:02.3,0.001585007,0.001012802,0.014350891,0,
00:02.3,0.001567841,0.001018524,0.014345169,0,
00:02.4,0.001590729,0.00103569,0.014333725,0,
00:02.4,0.001602173,0.001029968,0.014333725,0,
00:02.4,0.001596451,0.001024246,0.014322281,0,
00:02.4,0.001590729,0.001024246,0.014322281,0,
00:02.4,0.001579285,0.001012802,0.014350891,0,
00:02.4,0.001585007,0.001024246,0.014339447,0,
00:02.4,0.001585007,0.001024246,0.014322281,0,
00:02.4,0.001590729,0.001024246,0.014293671,0,
00:02.4,0.001596451,0.001024246,0.014345169,0,
00:02.4,0.001585007,0.001018524,0.014362335,0,
00:02.4,0.001590729,0.001029968,0.014339447,0,
00:02.4,0.001579285,0.001012802,0.014333725,0,
00:02.4,0.001579285,0.00100708,0.014350891,0,
00:02.4,0.001585007,0.001024246,0.014345169,0,
00:02.4,0.001590729,0.00103569,0.014333725,0,
00:02.4,0.001590729,0.001041412,0.014322281,0,
00:02.4,0.001585007,0.001024246,0.014305115,0,
00:02.4,0.001585007,0.001018524,0.014328003,0,
00:02.4,0.001585007,0.001018524,0.014333725,0,
00:02.4,0.001585007,0.001024246,0.014373779,0,
00:02.4,0.001590729,0.001029968,0.014345169,0,
00:02.4,0.001590729,0.001029968,0.014328003,0,
00:02.4,0.001596451,0.001018524,0.014339447,0,
00:02.4,0.001573563,0.001024246,0.014333725,0,
00:02.4,0.001590729,0.001041412,0.014339447,0,
00:02.5,0.001579285,0.001024246,0.014356613,0,
00:02.5,0.001579285,0.00100708,0.014322281,0,
00:02.5,0.001585007,0.001018524,0.014316559,0,
00:02.5,0.001596451,0.001029968,0.014350891,0,
00:02.5,0.001590729,0.00103569,0.014339447,0,
00:02.5,0.001585007,0.001024246,0.014339447,0,
00:02.5,0.001585007,0.001024246,0.014333725,0,
00:02.5,0.001585007,0.001018524,0.014345169,0,
00:02.5,0.001585007,0.001024246,0.014345169,0,
00:02.5,0.001590729,0.00103569,0.014333725,0,
00:02.5,0.001596451,0.001041412,0.014333725,0,
00:02.5,0.001585007,0.001018524,0.014339447,0,
00:02.5,0.001585007,0.001012802,0.014322281,0,
00:02.5,0.001585007,0.00103569,0.014322281,0,
00:02.5,0.001590729,0.001047134,0.014339447,0,
00:02.5,0.001596451,0.00103569,0.014356613,0,
00:02.5,0.001596451,0.001024246,0.014350891,0,
00:02.5,0.001585007,0.001012802,0.014345169,0,
00:02.5,0.001585007,0.001029968,0.014339447,0,
00:02.5,0.001596451,0.001052856,0.014328003,0,
00:02.5,0.001590729,0.00103569,0.014333725,0,
00:02.5,0.001573563,0.001018524,0.014322281,0,
00:02.5,0.001596451,0.001029968,0.014345169,0,
00:02.5,0.001590729,0.001018524,0.014339447,0,
00:02.5,0.001585007,0.001024246,0.014362335,0,
00:02.6,0.001590729,0.001029968,0.014356613,0,
00:02.6,0.001596451,0.00103569,0.014345169,0,
00:02.6,0.001590729,0.001029968,0.014339447,0,
00:02.6,0.001579285,0.001018524,0.014328003,0,
00:02.6,0.001602173,0.00103569,0.014339447,0,
00:02.6,0.001590729,0.001029968,0.014350891,0,
00:02.6,0.001585007,0.001024246,0.014333725,0,
00:02.6,0.001590729,0.001029968,0.014333725,0,
00:02.6,0.001590729,0.001029968,0.014345169,0,
00:02.6,0.001579285,0.001029968,0.014287949,0,
00:02.6,0.001596451,0.001041412,0.014362335,0,
00:02.6,0.001596451,0.001029968,0.014356613,0,
00:02.6,0.001590729,0.001024246,0.014350891,0,
00:02.6,0.001585007,0.001024246,0.014368057,0,
00:02.6,0.001590729,0.001029968,0.014350891,0,
00:02.6,0.001596451,0.001029968,0.014333725,0,
00:02.6,0.001590729,0.001029968,0.014339447,0,
00:02.6,0.001602173,0.00103569,0.014339447,0,
00:02.6,0.001596451,0.00103569,0.014350891,0,
00:02.6,0.001590729,0.00103569,0.014345169,0,
00:02.6,0.001585007,0.001029968,0.014328003,0,
00:02.6,0.001590729,0.001029968,0.014356613,0,
00:02.6,0.001585007,0.001024246,0.014328003,0,
00:02.6,0.001596451,0.00103569,0.014345169,0,
00:02.6,0.001596451,0.001041412,0.014379501,0,
00:02.7,0.001596451,0.001041412,0.014350891,0,
00:02.7,0.001590729,0.001024246,0.014345169,0,
00:02.7,0.001596451,0.001024246,0.014356613,0,
00:02.7,0.001590729,0.001029968,0.014350891,0,
00:02.7,0.001585007,0.001041412,0.014333725,0,
00:02.7,0.001590729,0.00103569,0.014350891,0,
00:02.7,0.001596451,0.00103569,0.014362335,0,
00:02.7,0.001596451,0.00103569,0.014356613,0,
00:02.7,0.001585007,0.00103569,0.014333725,0,
00:02.7,0.001590729,0.001041412,0.014350891,0,
00:02.7,0.001596451,0.001047134,0.014322281,0,
00:02.7,0.001602173,0.001047134,0.014356613,0,
00:02.7,0.001602173,0.00103569,0.014356613,0,
00:02.7,0.001590729,0.001024246,0.014362335,0,
00:02.7,0.001590729,0.001041412,0.014345169,0,
00:02.7,0.001590729,0.001047134,0.014345169,0,
00:02.7,0.001596451,0.001041412,0.014356613,0,
00:02.7,0.001590729,0.00103569,0.014345169,0,
00:02.7,0.001590729,0.00103569,0.014322281,0,
00:02.7,0.001590729,0.001047134,0.014356613,0,
00:02.7,0.001585007,0.00103569,0.014362335,0,
00:02.7,0.001596451,0.001041412,0.014362335,0,
00:02.7,0.001590729,0.001041412,0.014350891,0,
00:02.7,0.001579285,0.001041412,0.014328003,0,
00:02.7,0.001590729,0.001047134,0.014350891,0,
00:02.8,0.001585007,0.001052856,0.014356613,0,
00:02.8,0.001596451,0.00103569,0.014339447,0,
00:02.8,0.001585007,0.001012802,0.014356613,0,
00:02.8,0.001590729,0.001041412,0.014356613,0,
00:02.8,0.001590729,0.001052856,0.014345169,0,
00:02.8,0.001590729,0.001047134,0.014322281,0,
00:02.8,0.001590729,0.001041412,0.014350891,0,
00:02.8,0.001590729,0.001041412,0.014356613,0,
00:02.8,0.001590729,0.001052856,0.014345169,0,
00:02.8,0.001590729,0.001052856,0.014345169,0,
00:02.8,0.001596451,0.001047134,0.014345169,0,
00:02.8,0.001596451,0.00103569,0.014345169,0,
00:02.8,0.001585007,0.001024246,0.014362335,0,
00:02.8,0.001590729,0.00103569,0.014368057,0,
00:02.8,0.001596451,0.001047134,0.014362335,0,
00:02.8,0.001590729,0.001047134,0.014350891,0,
00:02.8,0.001596451,0.001047134,0.014345169,0,
00:02.8,0.001596451,0.001047134,0.014345169,0,
00:02.8,0.001596451,0.001052856,0.014339447,0,
00:02.8,0.001590729,0.001047134,0.014350891,0,
00:02.8,0.001590729,0.001047134,0.014373779,0,
00:02.8,0.001590729,0.001041412,0.014350891,0,
00:02.8,0.001596451,0.001047134,0.014339447,0,
00:02.8,0.001596451,0.001041412,0.014362335,0,
00:02.8,0.001596451,0.001064301,0.014362335,0,
00:02.9,0.001596451,0.001064301,0.014339447,0,
00:02.9,0.001590729,0.001041412,0.014356613,0,
00:02.9,0.001590729,0.00103569,0.014345169,0,
00:02.9,0.001590729,0.001058578,0.014356613,0,
00:02.9,0.001596451,0.001058578,0.014350891,0,
00:02.9,0.001596451,0.001047134,0.014368057,0,
00:02.9,0.001590729,0.001041412,0.014362335,0,
00:02.9,0.001602173,0.001041412,0.014356613,0,
00:02.9,0.001596451,0.001047134,0.014373779,0,
00:02.9,0.001590729,0.001052856,0.014356613,0,
00:02.9,0.001590729,0.001047134,0.014356613,0,
00:02.9,0.001585007,0.00103569,0.014356613,0,
00:02.9,0.001590729,0.00103569,0.014356613,0,
00:02.9,0.001596451,0.001041412,0.014339447,0,
00:02.9,0.001596451,0.001058578,0.014350891,0,
00:02.9,0.001607895,0.001075745,0.014339447,0,
00:02.9,0.001607895,0.001070023,0.014322281,0,
00:02.9,0.001596451,0.001041412,0.014362335,0,
00:02.9,0.001585007,0.00103569,0.014373779,0,
00:02.9,0.001602173,0.001058578,0.014379501,0,
00:02.9,0.001596451,0.001052856,0.014390945,0,
00:02.9,0.001590729,0.00103569,0.014373779,0,
00:02.9,0.001590729,0.001029968,0.014356613,0,
00:02.9,0.001590729,0.001041412,0.014356613,0,
00:02.9,0.001590729,0.001052856,0.014362335,0,
00:03.0,0.001590729,0.001052856,0.014362335,0,
00:03.0,0.001590729,0.001041412,0.014356613,0,
00:03.0,0.001590729,0.001047134,0.014356613,0,
00:03.0,0.001590729,0.001052856,0.014356613,0,
00:03.0,0.001602173,0.001081467,0.014333725,0,
00:03.0,0.001596451,0.001087189,0.014345169,0,
00:03.0,0.001590729,0.001058578,0.014328003,0,
00:03.0,0.001596451,0.001047134,0.014362335,0,
00:03.0,0.001607895,0.001058578,0.014368057,0,
00:03.0,0.001590729,0.001047134,0.014379501,0,
00:03.0,0.001585007,0.001041412,0.014390945,0,
00:03.0,0.001585007,0.001029968,0.014385223,0,
00:00:03,0.001590729,0.00103569,0.014368057,0,
00:03.0,0.001590729,0.001052856,0.014362335,0,
00:03.0,0.001596451,0.001064301,0.014362335,0,
00:03.0,0.001590729,0.001052856,0.014362335,0,
00:03.0,0.001585007,0.001041412,0.014333725,0,
00:03.0,0.001596451,0.001052856,0.014356613,0,
00:03.0,0.001596451,0.001058578,0.014390945,0,
00:03.0,0.001590729,0.001064301,0.014356613,0,
00:03.0,0.001590729,0.001058578,0.014362335,0,
00:03.0,0.001579285,0.001058578,0.014350891,0,
00:03.0,0.001596451,0.001058578,0.014368057,0,
00:03.0,0.001590729,0.001052856,0.014373779,0,
00:03.0,0.001585007,0.001052856,0.014379501,0,
00:03.1,0.001596451,0.001070023,0.014379501,0,
00:03.1,0.001567841,0.001058578,0.014350891,0,
00:03.1,0.001522064,0.001052856,0.014373779,0,
00:03.1,0.001596451,0.001058578,0.014362335,0,
00:03.1,0.001550674,0.001064301,0.014356613,0,
00:03.1,0.001567841,0.001052856,0.014362335,0,
00:03.1,0.001607895,0.001047134,0.014379501,0,
00:03.1,0.001596451,0.001047134,0.014368057,0,
00:03.1,0.001585007,0.001064301,0.014368057,0,
00:03.1,0.001590729,0.001070023,0.014373779,0,
00:03.1,0.001585007,0.001070023,0.014373779,0,
00:03.1,0.001579285,0.001058578,0.014368057,0,
00:03.1,0.001590729,0.001047134,0.014368057,0,
00:03.1,0.001585007,0.001052856,0.014373779,0,
00:03.1,0.001590729,0.001070023,0.014368057,0,
00:03.1,0.001590729,0.001070023,0.014350891,0,
00:03.1,0.001579285,0.001052856,0.014385223,0,
00:03.1,0.001573563,0.001047134,0.014362335,0,
00:03.1,0.001573563,0.001052856,0.014362335,0,
00:03.1,0.001579285,0.001064301,0.014396667,0,
00:03.1,0.001585007,0.001070023,0.014385223,0,
00:03.1,0.001585007,0.001058578,0.014368057,0,
00:03.1,0.001573563,0.001052856,0.014362335,0,
00:03.1,0.001573563,0.001058578,0.014373779,0,
00:03.1,0.001573563,0.001064301,0.014373779,0,
00:03.2,0.001579285,0.001070023,0.014379501,0,
00:03.2,0.001573563,0.001064301,0.014373779,0,
00:03.2,0.001567841,0.001052856,0.014373779,0,
00:03.2,0.001573563,0.001058578,0.014368057,0,
00:03.2,0.001579285,0.001075745,0.014350891,0,
00:03.2,0.001579285,0.001070023,0.014362335,0,
00:03.2,0.001567841,0.001052856,0.014408112,0,
00:03.2,0.001567841,0.001052856,0.014373779,0,
00:03.2,0.001579285,0.001070023,0.014379501,0,
00:03.2,0.001579285,0.001075745,0.014396667,0,
00:03.2,0.001567841,0.001058578,0.014368057,0,
00:03.2,0.001567841,0.001058578,0.014390945,0,
00:03.2,0.001573563,0.001058578,0.014385223,0,
00:03.2,0.001579285,0.001064301,0.014368057,0,
00:03.2,0.001579285,0.001075745,0.014356613,0,
00:03.2,0.001579285,0.001075745,0.014362335,0,
00:03.2,0.001579285,0.001070023,0.014373779,0,
00:03.2,0.001579285,0.001058578,0.014390945,0,
00:03.2,0.001573563,0.001070023,0.014385223,0,
00:03.2,0.001573563,0.001070023,0.014373779,0,
00:03.2,0.001579285,0.001075745,0.014368057,0,
00:03.2,0.001573563,0.001064301,0.014345169,0,
00:03.2,0.001562119,0.001058578,0.014356613,0,
00:03.2,0.001585007,0.001064301,0.014385223,0,
00:03.2,0.001573563,0.001070023,0.014373779,0,
00:03.3,0.001579285,0.001075745,0.014385223,0,
00:03.3,0.001579285,0.001064301,0.014390945,0,
00:03.3,0.001573563,0.001058578,0.014379501,0,
00:03.3,0.001573563,0.001064301,0.014350891,0,
00:03.3,0.001579285,0.001075745,0.014362335,0,
00:03.3,0.001590729,0.001075745,0.014373779,0,
00:03.3,0.001585007,0.001058578,0.014379501,0,
00:03.3,0.001573563,0.001047134,0.014368057,0,
00:03.3,0.001579285,0.001064301,0.014385223,0,
00:03.3,0.001585007,0.001081467,0.014385223,0,
00:03.3,0.001579285,0.001075745,0.014362335,0,
00:03.3,0.001585007,0.001058578,0.014350891,0,
00:03.3,0.001590729,0.001070023,0.014379501,0,
00:03.3,0.001585007,0.001064301,0.014390945,0,
00:03.3,0.001579285,0.001075745,0.014350891,0,
00:03.3,0.001585007,0.001081467,0.014379501,0,
00:03.3,0.001590729,0.001070023,0.014362335,0,
00:03.3,0.001585007,0.001064301,0.014385223,0,
00:03.3,0.001562119,0.001058578,0.014362335,0,
00:03.3,0.001573563,0.001070023,0.014396667,0,
00:03.3,0.001585007,0.001070023,0.014385223,0,
00:03.3,0.001585007,0.001064301,0.014379501,0,
00:03.3,0.001585007,0.001070023,0.014373779,0,
00:03.3,0.001579285,0.001070023,0.014390945,0,
00:03.3,0.001579285,0.001075745,0.014385223,0,
00:03.4,0.001562119,0.001070023,0.014362335,0,
00:03.4,0.001573563,0.001070023,0.014373779,0,
00:03.4,0.001590729,0.001064301,0.014385223,0,
00:03.4,0.001579285,0.001064301,0.014373779,0,
00:03.4,0.001579285,0.001081467,0.014356613,0,
00:03.4,0.001585007,0.001075745,0.014385223,0,
00:03.4,0.001585007,0.001070023,0.014390945,0,
00:03.4,0.001573563,0.001064301,0.014368057,0,
00:03.4,0.001585007,0.001081467,0.014379501,0,
00:03.4,0.001585007,0.001081467,0.014396667,0,
00:03.4,0.001579285,0.001070023,0.014379501,0,
00:03.4,0.001573563,0.001052856,0.014373779,0,
00:03.4,0.001573563,0.001052856,0.014390945,0,
00:03.4,0.001579285,0.001070023,0.014396667,0,
00:03.4,0.001579285,0.001075745,0.014368057,0,
00:03.4,0.001579285,0.001070023,0.014396667,0,
00:03.4,0.001579285,0.001058578,0.014385223,0,
00:03.4,0.001579285,0.001058578,0.014385223,0,
00:03.4,0.001585007,0.001075745,0.014396667,0,
00:03.4,0.001573563,0.001070023,0.014373779,0,
00:03.4,0.001573563,0.001064301,0.014368057,0,
00:03.4,0.001573563,0.001058578,0.014373779,0,
00:03.4,0.001579285,0.001052856,0.01440239,0,
00:03.4,0.001585007,0.001064301,0.014396667,0,
00:03.4,0.001579285,0.001075745,0.014390945,0,
00:03.5,0.001573563,0.001075745,0.014368057,0,
00:03.5,0.001585007,0.001064301,0.014368057,0,
00:03.5,0.001579285,0.001070023,0.014408112,0,
00:03.5,0.001573563,0.001058578,0.014390945,0,
00:03.5,0.001590729,0.001081467,0.014396667,0,
00:03.5,0.001579285,0.001064301,0.014396667,0,
00:03.5,0.001579285,0.001058578,0.014390945,0,
00:03.5,0.001585007,0.001064301,0.014373779,0,
00:03.5,0.001590729,0.001070023,0.014379501,0,
00:03.5,0.001573563,0.001058578,0.01440239,0,
00:03.5,0.001573563,0.001064301,0.014390945,0,
00:03.5,0.001579285,0.001058578,0.014379501,0,
00:03.5,0.001579285,0.001058578,0.014385223,0,
00:03.5,0.001573563,0.001064301,0.014379501,0,
00:03.5,0.001573563,0.001070023,0.014356613,0,
00:03.5,0.001579285,0.001064301,0.014425278,0,
00:03.5,0.001573563,0.001047134,0.014408112,0,
00:03.5,0.001579285,0.001052856,0.014396667,0,
00:03.5,0.001573563,0.001058578,0.014390945,0,
00:03.5,0.001579285,0.001075745,0.014368057,0,
00:03.5,0.001579285,0.001070023,0.014379501,0,
00:03.5,0.001579285,0.001064301,0.014390945,0,
00:03.5,0.001579285,0.001052856,0.014390945,0,
00:03.5,0.001579285,0.001058578,0.014385223,0,
00:03.5,0.001579285,0.001070023,0.014368057,0,
00:03.6,0.001567841,0.001052856,0.014379501,0,
00:03.6,0.001573563,0.001029968,0.014413834,0,
00:03.6,0.001579285,0.001047134,0.014413834,0,
00:03.6,0.001579285,0.001070023,0.014396667,0,
00:03.6,0.001573563,0.001064301,0.014385223,0,
00:03.6,0.001579285,0.001064301,0.014390945,0,
00:03.6,0.001567841,0.001047134,0.014373779,0,
00:03.6,0.001573563,0.001047134,0.014390945,0,
00:03.6,0.001579285,0.001052856,0.014385223,0,
00:03.6,0.001579285,0.001058578,0.014390945,0,
00:03.6,0.001585007,0.001064301,0.014379501,0,
00:03.6,0.001573563,0.001058578,0.014356613,0,
00:03.6,0.001573563,0.001052856,0.014379501,0,
00:03.6,0.001585007,0.001047134,0.014408112,0,
00:03.6,0.001579285,0.001058578,0.014396667,0,
00:03.6,0.001573563,0.001058578,0.014385223,0,
00:03.6,0.001585007,0.001058578,0.014390945,0,
00:03.6,0.001573563,0.001041412,0.014385223,0,
00:03.6,0.001573563,0.001052856,0.014385223,0,
00:03.6,0.001567841,0.001052856,0.01440239,0,
00:03.6,0.001567841,0.001052856,0.014396667,0,
00:03.6,0.001573563,0.001047134,0.014390945,0,
00:03.6,0.001573563,0.001041412,0.014385223,0,
00:03.6,0.001573563,0.001047134,0.014385223,0,
00:03.6,0.001573563,0.001052856,0.014390945,0,
00:03.7,0.001573563,0.001047134,0.014390945,0,
00:03.7,0.001567841,0.001041412,0.014368057,0,
00:03.7,0.001573563,0.001041412,0.014390945,0,
00:03.7,0.001573563,0.001047134,0.014390945,0,
00:03.7,0.001567841,0.001041412,0.014396667,0,
00:03.7,0.001567841,0.001041412,0.014396667,0,
00:03.7,0.001573563,0.00103569,0.014385223,0,
00:03.7,0.001573563,0.00103569,0.014379501,0,
00:03.7,0.001562119,0.001029968,0.014390945,0,
00:03.7,0.001562119,0.001047134,0.01440239,0,
00:03.7,0.001550674,0.001047134,0.014385223,0,
00:03.7,0.001573563,0.001029968,0.014368057,0,
00:03.7,0.001573563,0.00103569,0.014390945,0,
00:03.7,0.001573563,0.001047134,0.014396667,0,
00:03.7,0.001562119,0.00103569,0.014390945,0,
00:03.7,0.001562119,0.00103569,0.014379501,0,
00:03.7,0.001567841,0.001029968,0.014379501,0,
00:03.7,0.001562119,0.001029968,0.014408112,0,
00:03.7,0.001567841,0.001041412,0.014396667,0,
00:03.7,0.001556396,0.00103569,0.014373779,0,
00:03.7,0.001562119,0.00103569,0.014385223,0,
00:03.7,0.001562119,0.001024246,0.014385223,0,
00:03.7,0.001556396,0.001024246,0.014396667,0,
00:03.7,0.001556396,0.001029968,0.014385223,0,
00:03.7,0.001567841,0.001041412,0.014385223,0,
00:03.8,0.001562119,0.00103569,0.014390945,0,
00:03.8,0.001550674,0.00100708,0.014413834,0,
00:03.8,0.001550674,0.001012802,0.014396667,0,
00:03.8,0.001556396,0.001018524,0.014396667,0,
00:03.8,0.001556396,0.001024246,0.01440239,0,
00:03.8,0.001556396,0.001018524,0.014385223,0,
00:03.8,0.001550674,0.001018524,0.014373779,0,
00:03.8,0.001567841,0.001024246,0.014385223,0,
00:03.8,0.001567841,0.001029968,0.01440239,0,
00:03.8,0.001556396,0.001018524,0.014390945,0,
00:03.8,0.001556396,0.001018524,0.014396667,0,
00:03.8,0.001556396,0.001012802,0.014390945,0,
00:03.8,0.001550674,0.00100708,0.014396667,0,
00:03.8,0.001556396,0.001012802,0.014396667,0,
00:03.8,0.001550674,0.001018524,0.014373779,0,
00:03.8,0.00153923,0.001012802,0.014373779,0,
00:03.8,0.001544952,0.000995636,0.014396667,0,
00:03.8,0.001562119,0.001001358,0.014396667,0,
00:03.8,0.001562119,0.001012802,0.014408112,0,
00:03.8,0.001556396,0.001012802,0.01440239,0,
00:03.8,0.001556396,0.00100708,0.014385223,0,
00:03.8,0.001550674,0.000989914,0.014379501,0,
00:03.8,0.001544952,0.000989914,0.014373779,0,
00:03.8,0.001562119,0.001012802,0.014413834,0,
00:03.8,0.001562119,0.001012802,0.014396667,0,
00:03.9,0.001544952,0.000989914,0.014390945,0,
00:03.9,0.001550674,0.00097847,0.014413834,0,
00:03.9,0.001550674,0.000984192,0.014419556,0,
00:03.9,0.001556396,0.00100708,0.014408112,0,
00:03.9,0.001550674,0.001001358,0.014390945,0,
00:03.9,0.001544952,0.000995636,0.014396667,0,
00:03.9,0.00153923,0.00097847,0.014390945,0,
00:03.9,0.001556396,0.00097847,0.014413834,0,
00:03.9,0.001544952,0.000984192,0.014408112,0,
00:03.9,0.001550674,0.000989914,0.014408112,0,
00:03.9,0.00153923,0.000972748,0.014413834,0,
00:03.9,0.001550674,0.00097847,0.01440239,0,
00:03.9,0.001550674,0.00097847,0.01440239,0,
00:03.9,0.00153923,0.000972748,0.01440239,0,
00:03.9,0.00153923,0.00097847,0.014396667,0,
00:03.9,0.00153923,0.000972748,0.014413834,0,
00:03.9,0.001544952,0.000967026,0.014408112,0,
00:03.9,0.001544952,0.000972748,0.014396667,0,
00:03.9,0.001544952,0.000984192,0.014385223,0,
00:03.9,0.001550674,0.00097847,0.014396667,0,
00:03.9,0.00153923,0.000967026,0.014390945,0,
00:03.9,0.001533508,0.000955582,0.014419556,0,
00:03.9,0.001527786,0.00094986,0.014425278,0,
00:03.9,0.001522064,0.000955582,0.014413834,0,
00:03.9,0.001550674,0.000972748,0.014413834,0,
00:04.0,0.001544952,0.000961304,0.014396667,0,
00:04.0,0.001533508,0.000944138,0.014408112,0,
00:04.0,0.001544952,0.000955582,0.014419556,0,
00:04.0,0.001556396,0.000972748,0.014413834,0,
00:04.0,0.001556396,0.00097847,0.01440239,0,
00:04.0,0.001533508,0.000938416,0.014408112,0,
00:04.0,0.001533508,0.000932693,0.014425278,0,
00:04.0,0.001533508,0.000938416,0.014431,0,
00:04.0,0.001544952,0.000955582,0.014419556,0,
00:04.0,0.001544952,0.000961304,0.014419556,0,
00:04.0,0.00153923,0.000955582,0.014413834,0,
00:04.0,0.001533508,0.000932693,0.01440239,0,
00:00:04,0.00153923,0.000932693,0.014419556,0,
00:04.0,0.001533508,0.000938416,0.014425278,0,
00:04.0,0.001533508,0.000932693,0.014425278,0,
00:04.0,0.001533508,0.000932693,0.014419556,0,
00:04.0,0.00153923,0.000932693,0.01440239,0,
00:04.0,0.001533508,0.000926971,0.014385223,0,
00:04.0,0.001544952,0.000938416,0.014442444,0,
00:04.0,0.001533508,0.000932693,0.014419556,0,
00:04.0,0.001533508,0.000921249,0.014413834,0,
00:04.0,0.00153923,0.000921249,0.014425278,0,
00:04.0,0.00153923,0.000915527,0.014425278,0,
00:04.0,0.00153923,0.000921249,0.014413834,0,
00:04.0,0.001544952,0.000944138,0.01440239,0,
00:04.1,0.001544952,0.000932693,0.014419556,0,
00:04.1,0.001533508,0.000909805,0.014436722,0,
00:04.1,0.001533508,0.000898361,0.014431,0,
00:04.1,0.001527786,0.000915527,0.014408112,0,
00:04.1,0.001522064,0.000921249,0.014425278,0,
00:04.1,0.00153923,0.000904083,0.014448166,0,
00:04.1,0.00153923,0.000904083,0.014436722,0,
00:04.1,0.001533508,0.000909805,0.014431,0,
00:04.1,0.00153923,0.000904083,0.014431,0,
00:04.1,0.001533508,0.000909805,0.014436722,0,
00:04.1,0.001533508,0.000904083,0.014431,0,
00:04.1,0.001533508,0.000892639,0.014425278,0,
00:04.1,0.00153923,0.000892639,0.014436722,0,
00:04.1,0.001544952,0.000909805,0.014431,0,
00:04.1,0.00153923,0.000909805,0.014419556,0,
00:04.1,0.001527786,0.000898361,0.014431,0,
00:04.1,0.001527786,0.000886917,0.014431,0,
00:04.1,0.001533508,0.000886917,0.014408112,0,
00:04.1,0.001522064,0.000881195,0.014425278,0,
00:04.1,0.001527786,0.000881195,0.014448166,0,
00:04.1,0.001527786,0.000881195,0.014425278,0,
00:04.1,0.001533508,0.000892639,0.014431,0,
00:04.1,0.001533508,0.000886917,0.01445961,0,
00:04.1,0.001527786,0.000881195,0.014436722,0,
00:04.1,0.001522064,0.000875473,0.014453888,0,
00:04.2,0.001522064,0.000869751,0.014448166,0,
00:04.2,0.001533508,0.000864029,0.014442444,0,
00:04.2,0.001527786,0.000869751,0.014436722,0,
00:04.2,0.001527786,0.000869751,0.014431,0,
00:04.2,0.00151062,0.000869751,0.014425278,0,
00:04.2,0.001527786,0.000869751,0.014448166,0,
00:04.2,0.001522064,0.000852585,0.014442444,0,
00:04.2,0.001533508,0.000858307,0.014442444,0,
00:04.2,0.00153923,0.000864029,0.014442444,0,
00:04.2,0.001527786,0.000869751,0.014453888,0,
00:04.2,0.001522064,0.000846863,0.014448166,0,
00:04.2,0.001527786,0.000846863,0.014442444,0,
00:04.2,0.001533508,0.000858307,0.014448166,0,
00:04.2,0.001522064,0.000846863,0.014448166,0,
00:04.2,0.001527786,0.000852585,0.014431,0,
00:04.2,0.001522064,0.000846863,0.01445961,0,
00:04.2,0.001527786,0.000841141,0.014453888,0,
00:04.2,0.001516342,0.000829697,0.014431,0,
00:04.2,0.001522064,0.000829697,0.014431,0,
00:04.2,0.001533508,0.000846863,0.014476776,0,
00:04.2,0.001533508,0.000841141,0.014482498,0,
00:04.2,0.001522064,0.000818253,0.01445961,0,
00:04.2,0.001516342,0.000818253,0.01445961,0,
00:04.2,0.001527786,0.000835419,0.014471054,0,
00:04.2,0.001527786,0.000835419,0.014465332,0,
00:04.3,0.001522064,0.000823975,0.01445961,0,
00:04.3,0.001522064,0.000812531,0.01445961,0,
00:04.3,0.001522064,0.000818253,0.014453888,0,
00:04.3,0.001522064,0.000823975,0.014465332,0,
00:04.3,0.001516342,0.000823975,0.014453888,0,
00:04.3,0.001516342,0.000801086,0.014465332,0,
00:04.3,0.001527786,0.000801086,0.014453888,0,
00:04.3,0.001533508,0.000818253,0.014465332,0,
00:04.3,0.001533508,0.000823975,0.014465332,0,
00:04.3,0.001516342,0.000812531,0.014482498,0,
00:04.3,0.001522064,0.000801086,0.014465332,0,
00:04.3,0.001533508,0.000795364,0.01445961,0,
00:04.3,0.001527786,0.000801086,0.014453888,0,
00:04.3,0.001522064,0.000795364,0.014465332,0,
00:04.3,0.001522064,0.000806808,0.01445961,0,
00:04.3,0.001527786,0.000806808,0.014476776,0,
00:04.3,0.001522064,0.00078392,0.014471054,0,
00:04.3,0.001522064,0.00078392,0.014471054,0,
00:04.3,0.001527786,0.000795364,0.01445961,0,
00:04.3,0.001527786,0.000801086,0.014465332,0,
00:04.3,0.001533508,0.000801086,0.014505386,0,
00:04.3,0.001522064,0.000778198,0.01448822,0,
00:04.3,0.00151062,0.000772476,0.01448822,0,
00:04.3,0.001516342,0.000778198,0.014471054,0,
00:04.3,0.001522064,0.000789642,0.014476776,0,
00:04.4,0.001527786,0.000778198,0.014476776,0,
00:04.4,0.001516342,0.000766754,0.014482498,0,
00:04.4,0.00151062,0.000761032,0.01448822,0,
00:04.4,0.001522064,0.000772476,0.01448822,0,
00:04.4,0.001522064,0.000778198,0.014476776,0,
00:04.4,0.001516342,0.000766754,0.014476776,0,
00:04.4,0.001522064,0.000761032,0.014482498,0,
00:04.4,0.001527786,0.000778198,0.014476776,0,
00:04.4,0.001516342,0.000772476,0.014476776,0,
00:04.4,0.001516342,0.000772476,0.014499664,0,
00:04.4,0.001522064,0.000766754,0.014499664,0,
00:04.4,0.001516342,0.00075531,0.014499664,0,
00:04.4,0.001533508,0.000766754,0.014465332,0,
00:04.4,0.001522064,0.00075531,0.014493942,0,
00:04.4,0.001516342,0.000749588,0.014499664,0,
00:04.4,0.001516342,0.00075531,0.014499664,0,
00:04.4,0.001516342,0.000743866,0.014505386,0,
00:04.4,0.001516342,0.000732422,0.014499664,0,
00:04.4,0.001522064,0.000749588,0.014493942,0,
00:04.4,0.001522064,0.000761032,0.014471054,0,
00:04.4,0.001527786,0.000761032,0.014493942,0,
00:04.4,0.001516342,0.000738144,0.014505386,0,
00:04.4,0.001516342,0.000732422,0.014505386,0,
00:04.4,0.001516342,0.000738144,0.014505386,0,
00:04.4,0.001522064,0.000743866,0.014511108,0,
00:04.5,0.001516342,0.000738144,0.014493942,0,
00:04.5,0.00151062,0.0007267,0.014499664,0,
00:04.5,0.001516342,0.0007267,0.014505386,0,
00:04.5,0.001504898,0.000738144,0.01451683,0,
00:04.5,0.00151062,0.000743866,0.014505386,0,
00:04.5,0.001527786,0.000738144,0.014499664,0,
00:04.5,0.001522064,0.0007267,0.014499664,0,
00:04.5,0.001516342,0.0007267,0.014493942,0,
00:04.5,0.00151062,0.000720978,0.014511108,0,
00:04.5,0.00151062,0.0007267,0.014493942,0,
00:04.5,0.00151062,0.0007267,0.014499664,0,
00:04.5,0.001522064,0.000715256,0.014528275,0,
00:04.5,0.001522064,0.000715256,0.01451683,0,
00:04.5,0.001516342,0.0007267,0.01451683,0,
00:04.5,0.00151062,0.000720978,0.014511108,0,
00:04.5,0.001516342,0.000720978,0.014505386,0,
00:04.5,0.00151062,0.000703812,0.014511108,0,
00:04.5,0.001504898,0.00069809,0.014493942,0,
00:04.5,0.001522064,0.000720978,0.014499664,0,
00:04.5,0.001522064,0.000720978,0.014522552,0,
00:04.5,0.001527786,0.0007267,0.014522552,0,
00:04.5,0.001527786,0.000715256,0.014528275,0,
00:04.5,0.001516342,0.00069809,0.014522552,0,
00:04.5,0.00151062,0.000703812,0.01451683,0,
00:04.5,0.001522064,0.000715256,0.014522552,0,
00:04.6,0.001516342,0.000709534,0.01451683,0,
00:04.6,0.00151062,0.000686646,0.01451683,0,
00:04.6,0.001516342,0.00069809,0.01451683,0,
00:04.6,0.001533508,0.000715256,0.014539719,0,
00:04.6,0.001516342,0.00069809,0.014528275,0,
00:04.6,0.00151062,0.000686646,0.01451683,0,
00:04.6,0.001516342,0.000680923,0.014522552,0,
00:04.6,0.001527786,0.000692368,0.014528275,0,
00:04.6,0.001522064,0.000703812,0.01451683,0,
00:04.6,0.001522064,0.000715256,0.014499664,0,
00:04.6,0.001522064,0.000686646,0.014551163,0,
00:04.6,0.001516342,0.000675201,0.014539719,0,
00:04.6,0.00151062,0.000680923,0.014528275,0,
00:04.6,0.001522064,0.000686646,0.014533997,0,
00:04.6,0.001522064,0.000686646,0.014533997,0,
00:04.6,0.001516342,0.000680923,0.014522552,0,
00:04.6,0.001516342,0.000680923,0.01451683,0,
00:04.6,0.00151062,0.000675201,0.014522552,0,
00:04.6,0.001522064,0.000692368,0.01451683,0,
00:04.6,0.001527786,0.000709534,0.014511108,0,
00:04.6,0.001522064,0.000680923,0.014545441,0,
00:04.6,0.001516342,0.000663757,0.014545441,0,
00:04.6,0.001516342,0.000658035,0.014539719,0,
00:04.6,0.001516342,0.000675201,0.014545441,0,
00:04.6,0.001522064,0.000686646,0.014528275,0,
00:04.7,0.001516342,0.000675201,0.014528275,0,
00:04.7,0.00151062,0.000652313,0.014533997,0,
00:04.7,0.00151062,0.000669479,0.014528275,0,
00:04.7,0.001522064,0.000680923,0.014539719,0,
00:04.7,0.001522064,0.000669479,0.014545441,0,
00:04.7,0.001516342,0.000669479,0.01451683,0,
00:04.7,0.001516342,0.000669479,0.014505386,0,
00:04.7,0.001527786,0.000663757,0.014562607,0,
00:04.7,0.001516342,0.000675201,0.014533997,0,
00:04.7,0.001516342,0.000675201,0.014511108,0,
00:04.7,0.001516342,0.000663757,0.014533997,0,
00:04.7,0.001527786,0.000663757,0.014545441,0,
00:04.7,0.001527786,0.000663757,0.014533997,0,
00:04.7,0.001516342,0.000663757,0.01451683,0,
00:04.7,0.001516342,0.000675201,0.014522552,0,
00:04.7,0.001522064,0.000675201,0.014522552,0,
00:04.7,0.00151062,0.000640869,0.014533997,0,
00:04.7,0.00151062,0.000640869,0.014528275,0,
00:04.7,0.001516342,0.000658035,0.014539719,0,
00:04.7,0.001516342,0.000669479,0.01451683,0,
00:04.7,0.001516342,0.000663757,0.014499664,0,
00:04.7,0.00151062,0.000646591,0.014562607,0,
00:04.7,0.00151062,0.000658035,0.014551163,0,
00:04.7,0.001527786,0.000669479,0.014533997,0,
00:04.7,0.001516342,0.000652313,0.014528275,0,
00:04.8,0.001516342,0.000646591,0.014545441,0,
00:04.8,0.00151062,0.000640869,0.014528275,0,
00:04.8,0.001516342,0.000646591,0.014528275,0,
00:04.8,0.001516342,0.000658035,0.014528275,0,
00:04.8,0.001516342,0.000652313,0.014533997,0,
00:04.8,0.001516342,0.000646591,0.014528275,0,
00:04.8,0.00151062,0.000640869,0.014533997,0,
00:04.8,0.001516342,0.000640869,0.014533997,0,
00:04.8,0.001516342,0.000652313,0.01451683,0,
00:04.8,0.001504898,0.000663757,0.014511108,0,
00:04.8,0.001522064,0.000658035,0.014522552,0,
00:04.8,0.001522064,0.000640869,0.014533997,0,
00:04.8,0.00151062,0.000635147,0.014539719,0,
00:04.8,0.001504898,0.000640869,0.014533997,0,
00:04.8,0.001516342,0.000652313,0.014533997,0,
00:04.8,0.001516342,0.000646591,0.014511108,0,
00:04.8,0.00151062,0.000635147,0.014522552,0,
00:04.8,0.00151062,0.000640869,0.014511108,0,
00:04.8,0.00151062,0.000646591,0.014522552,0,
00:04.8,0.001516342,0.000646591,0.014556885,0,
00:04.8,0.00151062,0.000640869,0.014539719,0,
00:04.8,0.001504898,0.000629425,0.01451683,0,
00:04.8,0.00151062,0.000635147,0.01451683,0,
00:04.8,0.00151062,0.000640869,0.014551163,0,
00:04.8,0.001516342,0.000646591,0.014528275,0,
00:04.9,0.00151062,0.000646591,0.014533997,0,
00:04.9,0.001499176,0.000629425,0.01451683,0,
00:04.9,0.00151062,0.000635147,0.014522552,0,
00:04.9,0.00151062,0.000646591,0.01451683,0,
00:04.9,0.00151062,0.000652313,0.014528275,0,
00:04.9,0.001504898,0.000646591,0.014511108,0,
00:04.9,0.001504898,0.000635147,0.014499664,0,
00:04.9,0.00151062,0.000640869,0.014511108,0,
00:04.9,0.001504898,0.000629425,0.014511108,0,
00:04.9,0.001499176,0.000635147,0.014505386,0,
00:04.9,0.00151062,0.000635147,0.014551163,0,
00:04.9,0.00151062,0.000635147,0.014539719,0,
00:04.9,0.001504898,0.000629425,0.014528275,0,
00:04.9,0.00151062,0.000640869,0.01451683,0,
00:04.9,0.00151062,0.000640869,0.01451683,0,
00:04.9,0.001504898,0.000629425,0.014511108,0,
00:04.9,0.00151062,0.000629425,0.014499664,0,
00:04.9,0.001516342,0.000640869,0.014505386,0,
00:04.9,0.00151062,0.000640869,0.014499664,0,
00:04.9,0.001504898,0.000635147,0.014493942,0,
00:04.9,0.001516342,0.000640869,0.014499664,0,
00:04.9,0.001516342,0.000646591,0.014511108,0,
00:04.9,0.00151062,0.000629425,0.014528275,0,
00:04.9,0.00151062,0.000640869,0.014511108,0,
00:04.9,0.00151062,0.000640869,0.01451683,0,
00:05.0,0.001504898,0.000623703,0.014511108,0,
00:05.0,0.00151062,0.000623703,0.014511108,0,
00:05.0,0.001516342,0.000635147,0.01451683,0,
00:05.0,0.001516342,0.000640869,0.014505386,0,
00:05.0,0.001516342,0.000640869,0.014499664,0,
00:05.0,0.001522064,0.000646591,0.014499664,0,
00:05.0,0.001504898,0.000629425,0.014482498,0,
00:05.0,0.001493454,0.000635147,0.014476776,0,
00:05.0,0.001527786,0.000652313,0.014511108,0,
00:05.0,0.00151062,0.000646591,0.014471054,0,
00:05.0,0.001516342,0.000629425,0.014528275,0,
00:05.0,0.00151062,0.000617981,0.014533997,0,
00:00:05,0.00151062,0.000635147,0.014511108,0,
00:05.0,0.001516342,0.000640869,0.014528275,0,
00:05.0,0.001499176,0.000629425,0.014511108,0,
00:05.0,0.001504898,0.000629425,0.014511108,0,
00:05.0,0.001499176,0.000623703,0.014493942,0,
00:05.0,0.001499176,0.000629425,0.014505386,0,
00:05.0,0.001504898,0.000640869,0.014505386,0,
00:05.0,0.001499176,0.000646591,0.014493942,0,
00:05.0,0.001499176,0.000635147,0.01448822,0,
00:05.0,0.001499176,0.000629425,0.014493942,0,
00:05.0,0.001499176,0.000640869,0.014493942,0,
00:05.0,0.001504898,0.000658035,0.01448822,0,
00:05.0,0.001499176,0.000646591,0.01448822,0,
00:05.1,0.001499176,0.000646591,0.014476776,0,
00:05.1,0.001499176,0.000640869,0.014471054,0,
00:05.1,0.001493454,0.000635147,0.014476776,0,
00:05.1,0.00148201,0.000640869,0.014476776,0,
00:05.1,0.00148201,0.000635147,0.01448822,0,
00:05.1,0.001470566,0.000629425,0.01448822,0,
00:05.1,0.001493454,0.000629425,0.014511108,0,
00:05.1,0.001499176,0.000629425,0.014482498,0,
00:05.1,0.001487732,0.000640869,0.014471054,0,
00:05.1,0.001487732,0.000646591,0.01448822,0,
00:05.1,0.001487732,0.000640869,0.014482498,0,
00:05.1,0.00148201,0.000629425,0.014476776,0,
00:05.1,0.00148201,0.000635147,0.014471054,0,
00:05.1,0.001487732,0.000652313,0.014482498,0,
00:05.1,0.00148201,0.000658035,0.014476776,0,
00:05.1,0.001476288,0.000640869,0.014465332,0,
00:05.1,0.00148201,0.000635147,0.014465332,0,
00:05.1,0.00148201,0.000640869,0.014465332,0,
00:05.1,0.00148201,0.000652313,0.01445961,0,
00:05.1,0.001476288,0.000652313,0.014448166,0,
00:05.1,0.00148201,0.000646591,0.01445961,0,
00:05.1,0.00148201,0.000646591,0.014453888,0,
00:05.1,0.00148201,0.000646591,0.014448166,0,
00:05.1,0.001476288,0.000663757,0.014442444,0,
00:05.1,0.001476288,0.000669479,0.014442444,0,
00:05.2,0.001476288,0.000640869,0.014471054,0,
00:05.2,0.001470566,0.000635147,0.014465332,0,
00:05.2,0.001470566,0.000640869,0.014448166,0,
00:05.2,0.001476288,0.000658035,0.014448166,0,
00:05.2,0.001470566,0.000658035,0.014448166,0,
00:05.2,0.001476288,0.000658035,0.014453888,0,
00:05.2,0.001470566,0.000652313,0.014425278,0,
00:05.2,0.001470566,0.000646591,0.014436722,0,
00:05.2,0.001464844,0.000658035,0.014442444,0,
00:05.2,0.001459122,0.000669479,0.014442444,0,
00:05.2,0.001464844,0.000658035,0.014436722,0,
00:05.2,0.001447678,0.000646591,0.014425278,0,
00:05.2,0.001464844,0.000652313,0.014413834,0,
00:05.2,0.001476288,0.000663757,0.014442444,0,
00:05.2,0.001470566,0.000680923,0.014425278,0,
00:05.2,0.001470566,0.000669479,0.014431,0,
00:05.2,0.001459122,0.000652313,0.014419556,0,
00:05.2,0.001464844,0.000663757,0.014431,0,
00:05.2,0.001470566,0.000675201,0.014425278,0,
00:05.2,0.001459122,0.000669479,0.014419556,0,
00:05.2,0.001459122,0.000658035,0.014419556,0,
00:05.2,0.001464844,0.000658035,0.01440239,0,
00:05.2,0.001464844,0.000675201,0.014413834,0,
00:05.2,0.0014534,0.000669479,0.014408112,0,
00:05.2,0.001459122,0.000675201,0.014396667,0,
00:05.3,0.0014534,0.000669479,0.014379501,0,
00:05.3,0.001459122,0.000675201,0.014425278,0,
00:05.3,0.001464844,0.000669479,0.014413834,0,
00:05.3,0.0014534,0.000663757,0.01440239,0,
00:05.3,0.001459122,0.000675201,0.01440239,0,
00:05.3,0.001459122,0.000680923,0.014390945,0,
00:05.3,0.0014534,0.000669479,0.014379501,0,
00:05.3,0.0014534,0.000669479,0.014390945,0,
00:05.3,0.001447678,0.000675201,0.014390945,0,
00:05.3,0.001459122,0.000692368,0.014390945,0,
00:05.3,0.0014534,0.000680923,0.014379501,0,
00:05.3,0.0014534,0.000669479,0.014362335,0,
00:05.3,0.0014534,0.000675201,0.014373779,0,
00:05.3,0.001459122,0.000692368,0.014373779,0,
00:05.3,0.001459122,0.000692368,0.014356613,0,
00:05.3,0.001447678,0.000686646,0.014339447,0,
00:05.3,0.001441956,0.000669479,0.014373779,0,
00:05.3,0.001441956,0.000675201,0.014373779,0,
00:05.3,0.001436234,0.000680923,0.014339447,0,
00:05.3,0.001441956,0.000686646,0.014379501,0,
00:05.3,0.0014534,0.000680923,0.014379501,0,
00:05.3,0.001447678,0.000680923,0.014356613,0,
00:05.3,0.001441956,0.000680923,0.014350891,0,
00:05.3,0.001441956,0.000692368,0.014356613,0,
00:05.3,0.001436234,0.000686646,0.014350891,0,
00:05.4,0.001441956,0.000686646,0.014333725,0,
00:05.4,0.001436234,0.000680923,0.014316559,0,
00:05.4,0.001430511,0.000680923,0.014345169,0,
00:05.4,0.001447678,0.000703812,0.014339447,0,
00:05.4,0.001447678,0.00069809,0.014339447,0,
00:05.4,0.001430511,0.000680923,0.014333725,0,
00:05.4,0.001430511,0.000675201,0.014333725,0,
00:05.4,0.001430511,0.000675201,0.014345169,0,
00:05.4,0.001430511,0.000686646,0.014316559,0,
00:05.4,0.001430511,0.000686646,0.014339447,0,
00:05.4,0.001424789,0.000686646,0.014328003,0,
00:05.4,0.001424789,0.000680923,0.014328003,0,
00:05.4,0.001430511,0.000692368,0.014322281,0,
00:05.4,0.001430511,0.000709534,0.014305115,0,
00:05.4,0.001424789,0.00069809,0.014328003,0,
00:05.4,0.001430511,0.000703812,0.014322281,0,
00:05.4,0.001424789,0.000686646,0.014305115,0,
00:05.4,0.001419067,0.000686646,0.014316559,0,
00:05.4,0.001419067,0.000703812,0.014299393,0,
00:05.4,0.001430511,0.000709534,0.014299393,0,
00:05.4,0.001424789,0.000703812,0.014299393,0,
00:05.4,0.001419067,0.00069809,0.014322281,0,
00:05.4,0.001396179,0.000675201,0.014305115,0,
00:05.4,0.001413345,0.000703812,0.014305115,0,
00:05.4,0.001424789,0.000709534,0.014299393,0,
00:05.5,0.001424789,0.00069809,0.014293671,0,
00:05.5,0.001419067,0.000686646,0.014287949,0,
00:05.5,0.001407623,0.000686646,0.014287949,0,
00:05.5,0.001419067,0.000703812,0.014276505,0,
00:05.5,0.001413345,0.000709534,0.014305115,0,
00:05.5,0.001413345,0.00069809,0.014287949,0,
00:05.5,0.001413345,0.000686646,0.01426506,0,
00:05.5,0.001419067,0.00069809,0.014259338,0,
00:05.5,0.001419067,0.000709534,0.014270782,0,
00:05.5,0.001407623,0.00069809,0.014287949,0,
00:05.5,0.001419067,0.000703812,0.014282227,0,
00:05.5,0.001424789,0.000715256,0.014259338,0,
00:05.5,0.001413345,0.000703812,0.014276505,0,
00:05.5,0.001413345,0.000703812,0.014287949,0,
00:05.5,0.001407623,0.000715256,0.014270782,0,
00:05.5,0.001413345,0.000709534,0.01426506,0,
00:05.5,0.001407623,0.000692368,0.014276505,0,
00:05.5,0.001413345,0.00069809,0.014259338,0,
00:05.5,0.001413345,0.000715256,0.014253616,0,
00:05.5,0.001407623,0.000715256,0.014259338,0,
00:05.5,0.001401901,0.000703812,0.01426506,0,
00:05.5,0.001419067,0.000703812,0.01423645,0,
00:05.5,0.001407623,0.000703812,0.014259338,0,
00:05.5,0.001407623,0.000709534,0.014253616,0,
00:05.5,0.001424789,0.000720978,0.014247894,0,
00:05.6,0.001419067,0.000715256,0.014259338,0,
00:05.6,0.001419067,0.000703812,0.014259338,0,
00:05.6,0.001413345,0.00069809,0.014247894,0,
00:05.6,0.001413345,0.000715256,0.01423645,0,
00:05.6,0.001407623,0.000709534,0.014247894,0,
00:05.6,0.001413345,0.000709534,0.014253616,0,
00:05.6,0.001413345,0.000709534,0.014242172,0,
00:05.6,0.001413345,0.000709534,0.014247894,0,
00:05.6,0.001413345,0.000715256,0.014253616,0,
00:05.6,0.001413345,0.000720978,0.014247894,0,
00:05.6,0.001413345,0.000715256,0.01423645,0,
00:05.6,0.001413345,0.000709534,0.01420784,0,
00:05.6,0.001424789,0.000720978,0.014247894,0,
00:05.6,0.001413345,0.000715256,0.014219284,0,
00:05.6,0.001407623,0.000720978,0.01420784,0,
00:05.6,0.001407623,0.000715256,0.014219284,0,
00:05.6,0.001413345,0.000709534,0.014259338,0,
00:05.6,0.001413345,0.000715256,0.014253616,0,
00:05.6,0.001413345,0.0007267,0.01423645,0,
00:05.6,0.001407623,0.0007267,0.014230728,0,
00:05.6,0.001401901,0.000720978,0.014213562,0,
00:05.6,0.001413345,0.000715256,0.014230728,0,
00:05.6,0.001419067,0.000720978,0.014213562,0,
00:05.6,0.001413345,0.000720978,0.014219284,0,
00:05.6,0.001401901,0.000720978,0.014225006,0,
00:05.7,0.001401901,0.000715256,0.014225006,0,
00:05.7,0.001419067,0.000720978,0.014219284,0,
00:05.7,0.001413345,0.0007267,0.014219284,0,
00:05.7,0.001413345,0.0007267,0.014219284,0,
00:05.7,0.001407623,0.0007267,0.014202118,0,
00:05.7,0.001407623,0.000720978,0.014202118,0,
00:05.7,0.001407623,0.0007267,0.01420784,0,
00:05.7,0.001407623,0.0007267,0.01420784,0,
00:05.7,0.001407623,0.000732422,0.014225006,0,
00:05.7,0.001407623,0.000738144,0.014213562,0,
00:05.7,0.001413345,0.000738144,0.01420784,0,
00:05.7,0.001413345,0.0007267,0.014213562,0,
00:05.7,0.001413345,0.000732422,0.014202118,0,
00:05.7,0.001407623,0.000732422,0.014202118,0,
00:05.7,0.001413345,0.000738144,0.014213562,0,
00:05.7,0.001413345,0.000738144,0.014202118,0,
00:05.7,0.001401901,0.0007267,0.014184952,0,
00:05.7,0.001413345,0.000732422,0.014196396,0,
00:05.7,0.001413345,0.000749588,0.01417923,0,
00:05.7,0.001407623,0.000738144,0.014213562,0,
00:05.7,0.001396179,0.000732422,0.014219284,0,
00:05.7,0.001407623,0.0007267,0.01420784,0,
00:05.7,0.001407623,0.0007267,0.014196396,0,
00:05.7,0.001413345,0.000749588,0.014202118,0,
00:05.7,0.001407623,0.000743866,0.014225006,0,
00:05.8,0.001407623,0.000732422,0.014202118,0,
00:05.8,0.001401901,0.000738144,0.014202118,0,
00:05.8,0.001401901,0.000743866,0.014196396,0,
00:05.8,0.001396179,0.000743866,0.014202118,0,
00:05.8,0.001413345,0.000743866,0.014202118,0,
00:05.8,0.001401901,0.000743866,0.014190674,0,
00:05.8,0.001413345,0.000749588,0.014190674,0,
00:05.8,0.001413345,0.000749588,0.01417923,0,
00:05.8,0.001407623,0.000761032,0.014184952,0,
00:05.8,0.001396179,0.000743866,0.014202118,0,
00:05.8,0.001401901,0.000738144,0.014190674,0,
00:05.8,0.001407623,0.000743866,0.014184952,0,
00:05.8,0.001401901,0.000743866,0.01417923,0,
00:05.8,0.001401901,0.00075531,0.014156342,0,
00:05.8,0.001401901,0.000761032,0.014173508,0,
00:05.8,0.001401901,0.00075531,0.014173508,0,
00:05.8,0.001401901,0.000738144,0.01417923,0,
00:05.8,0.001401901,0.000749588,0.014184952,0,
00:05.8,0.001401901,0.00075531,0.014173508,0,
00:05.8,0.001401901,0.000761032,0.01417923,0,
00:05.8,0.001396179,0.000749588,0.014173508,0,
00:05.8,0.001407623,0.000749588,0.014162064,0,
00:05.8,0.001413345,0.000749588,0.014167786,0,
00:05.8,0.001407623,0.000766754,0.014162064,0,
00:05.8,0.001407623,0.000766754,0.014162064,0,
00:05.9,0.001401901,0.000749588,0.014162064,0,
00:05.9,0.001401901,0.00075531,0.014173508,0,
00:05.9,0.001396179,0.000766754,0.014156342,0,
00:05.9,0.001396179,0.000772476,0.014156342,0,
00:05.9,0.001396179,0.000749588,0.014167786,0,
00:05.9,0.001401901,0.00075531,0.014162064,0,
00:05.9,0.001396179,0.000749588,0.014156342,0,
00:05.9,0.001401901,0.00075531,0.014144897,0,
00:05.9,0.001407623,0.000778198,0.014139175,0,
00:05.9,0.001401901,0.000772476,0.014144897,0,
00:05.9,0.001407623,0.000772476,0.014162064,0,
00:05.9,0.001396179,0.000761032,0.014167786,0,
00:05.9,0.001396179,0.00075531,0.014162064,0,
00:05.9,0.001401901,0.000772476,0.014156342,0,
00:05.9,0.001401901,0.000772476,0.014144897,0,
00:05.9,0.001390457,0.000761032,0.014122009,0,
00:05.9,0.001396179,0.000761032,0.014162064,0,
00:05.9,0.001401901,0.000772476,0.01415062,0,
00:05.9,0.001390457,0.00078392,0.014144897,0,
00:05.9,0.001401901,0.000772476,0.014144897,0,
00:05.9,0.001407623,0.000761032,0.014133453,0,
00:05.9,0.001401901,0.00075531,0.014139175,0,
00:05.9,0.001396179,0.000761032,0.014133453,0,
00:05.9,0.001396179,0.000772476,0.01415062,0,
00:05.9,0.001401901,0.00078392,0.01415062,0,
00:06.0,0.001401901,0.000778198,0.014144897,0,
00:06.0,0.001407623,0.000766754,0.014139175,0,
00:06.0,0.001390457,0.000761032,0.014133453,0,
00:06.0,0.001390457,0.000778198,0.014139175,0,
00:06.0,0.001390457,0.00078392,0.014139175,0,
00:06.0,0.001396179,0.000772476,0.014116287,0,
00:06.0,0.001396179,0.000761032,0.014116287,0,
00:06.0,0.001390457,0.000766754,0.014133453,0,
00:06.0,0.001396179,0.000789642,0.014133453,0,
00:06.0,0.001396179,0.00078392,0.014133453,0,
00:06.0,0.001390457,0.000766754,0.014116287,0,
00:06.0,0.001390457,0.000772476,0.014116287,0,
00:00:06,0.001390457,0.000778198,0.014133453,0,
00:06.0,0.001401901,0.000778198,0.014144897,0,
00:06.0,0.001390457,0.000778198,0.014127731,0,
00:06.0,0.001384735,0.000778198,0.014127731,0,
00:06.0,0.001384735,0.000766754,0.014116287,0,
00:06.0,0.001407623,0.000778198,0.014144897,0,
00:06.0,0.001396179,0.00078392,0.014133453,0,
00:06.0,0.001390457,0.00078392,0.014133453,0,
00:06.0,0.001396179,0.00078392,0.014122009,0,
00:06.0,0.001396179,0.000772476,0.014122009,0,
00:06.0,0.001390457,0.000778198,0.014110565,0,
00:06.0,0.001390457,0.00078392,0.014133453,0,
00:06.0,0.001390457,0.000789642,0.014133453,0,
00:06.1,0.001396179,0.000789642,0.014127731,0,
00:06.1,0.001390457,0.000778198,0.014116287,0,
00:06.1,0.001384735,0.000778198,0.014116287,0,
00:06.1,0.001390457,0.000795364,0.014104843,0,
00:06.1,0.001384735,0.00078392,0.014133453,0,
00:06.1,0.001373291,0.000772476,0.014139175,0,
00:06.1,0.001384735,0.000778198,0.014139175,0,
00:06.1,0.001390457,0.000778198,0.014133453,0,
00:06.1,0.001384735,0.000789642,0.014127731,0,
00:06.1,0.001379013,0.000795364,0.014116287,0,
00:06.1,0.001390457,0.000789642,0.014133453,0,
00:06.1,0.001390457,0.00078392,0.014122009,0,
00:06.1,0.001384735,0.000789642,0.014110565,0,
00:06.1,0.001379013,0.000801086,0.014116287,0,
00:06.1,0.001384735,0.000801086,0.014122009,0,
00:06.1,0.001373291,0.000795364,0.014116287,0,
00:06.1,0.001384735,0.000795364,0.014116287,0,
00:06.1,0.001407623,0.000812531,0.014110565,0,
00:06.1,0.001384735,0.000806808,0.014104843,0,
00:06.1,0.001373291,0.000789642,0.014122009,0,
00:06.1,0.001379013,0.000801086,0.014122009,0,
00:06.1,0.001384735,0.000801086,0.014122009,0,
00:06.1,0.001384735,0.000795364,0.014122009,0,
00:06.1,0.001379013,0.000795364,0.014116287,0,
00:06.1,0.001384735,0.000806808,0.014127731,0,
00:06.2,0.001379013,0.000789642,0.014156342,0,
00:06.2,0.001379013,0.000789642,0.014116287,0,
00:06.2,0.001379013,0.000801086,0.014110565,0,
00:06.2,0.001379013,0.000801086,0.014127731,0,
00:06.2,0.001367569,0.000806808,0.014122009,0,
00:06.2,0.001373291,0.000795364,0.014122009,0,
00:06.2,0.001390457,0.000795364,0.014116287,0,
00:06.2,0.001384735,0.000806808,0.014110565,0,
00:06.2,0.001384735,0.000812531,0.014116287,0,
00:06.2,0.001379013,0.000812531,0.014110565,0,
00:06.2,0.001379013,0.000806808,0.014110565,0,
00:06.2,0.001390457,0.000795364,0.014122009,0,
00:06.2,0.001390457,0.000806808,0.014122009,0,
00:06.2,0.001379013,0.000806808,0.014127731,0,
00:06.2,0.001373291,0.000801086,0.014099121,0,
00:06.2,0.001373291,0.000801086,0.014122009,0,
00:06.2,0.001379013,0.000795364,0.014127731,0,
00:06.2,0.001373291,0.000795364,0.014116287,0,
00:06.2,0.001379013,0.000806808,0.014133453,0,
00:06.2,0.001384735,0.000818253,0.014122009,0,
00:06.2,0.001384735,0.000818253,0.014116287,0,
00:06.2,0.001384735,0.000812531,0.014116287,0,
00:06.2,0.001384735,0.000801086,0.014116287,0,
00:06.2,0.001379013,0.000812531,0.014104843,0,
00:06.2,0.001390457,0.000829697,0.014116287,0,
00:06.3,0.001384735,0.000806808,0.014133453,0,
00:06.3,0.001379013,0.000795364,0.014110565,0,
00:06.3,0.001384735,0.000795364,0.014127731,0,
00:06.3,0.001384735,0.000812531,0.014116287,0,
00:06.3,0.001390457,0.000818253,0.014127731,0,
00:06.3,0.001384735,0.000806808,0.014099121,0,
00:06.3,0.001379013,0.000801086,0.014087677,0,
00:06.3,0.001384735,0.000812531,0.014156342,0,
00:06.3,0.001379013,0.000818253,0.014127731,0,
00:06.3,0.001379013,0.000823975,0.014122009,0,
00:06.3,0.001379013,0.000812531,0.014116287,0,
00:06.3,0.001384735,0.000801086,0.014122009,0,
00:06.3,0.001390457,0.000812531,0.014133453,0,
00:06.3,0.001390457,0.000818253,0.014127731,0,
00:06.3,0.001390457,0.000823975,0.014122009,0,
00:06.3,0.001390457,0.000829697,0.014110565,0,
00:06.3,0.001384735,0.000795364,0.014099121,0,
00:06.3,0.001379013,0.000801086,0.014104843,0,
00:06.3,0.001379013,0.000818253,0.014099121,0,
00:06.3,0.001390457,0.000818253,0.014133453,0,
00:06.3,0.001379013,0.000806808,0.014122009,0,
00:06.3,0.001384735,0.000806808,0.014122009,0,
00:06.3,0.001379013,0.000801086,0.014116287,0,
00:06.3,0.001384735,0.000812531,0.014116287,0,
00:06.3,0.001390457,0.000829697,0.014116287,0,
00:06.4,0.001379013,0.000812531,0.014127731,0,
00:06.4,0.001379013,0.000795364,0.014127731,0,
00:06.4,0.001379013,0.000801086,0.014122009,0,
00:06.4,0.001384735,0.000823975,0.014133453,0,
00:06.4,0.001379013,0.000818253,0.014122009,0,
00:06.4,0.001379013,0.000818253,0.014104843,0,
00:06.4,0.001379013,0.000818253,0.014099121,0,
00:06.4,0.001384735,0.000823975,0.014144897,0,
00:06.4,0.001367569,0.000818253,0.014127731,0,
00:06.4,0.001379013,0.000818253,0.014122009,0,
00:06.4,0.001396179,0.000818253,0.014110565,0,
00:06.4,0.001384735,0.000806808,0.014122009,0,
00:06.4,0.001390457,0.000812531,0.014116287,0,
00:06.4,0.001379013,0.000818253,0.014076233,0,
00:06.4,0.001390457,0.000829697,0.014127731,0,
00:06.4,0.001384735,0.000812531,0.014133453,0,
00:06.4,0.001384735,0.000812531,0.014144897,0,
00:06.4,0.001384735,0.000818253,0.014127731,0,
00:06.4,0.001390457,0.000835419,0.014127731,0,
00:06.4,0.001384735,0.000823975,0.014122009,0,
00:06.4,0.001379013,0.000818253,0.014116287,0,
00:06.4,0.001384735,0.000818253,0.014110565,0,
00:06.4,0.001379013,0.000818253,0.014110565,0,
00:06.4,0.001384735,0.000823975,0.014104843,0,
00:06.4,0.001390457,0.000841141,0.014122009,0,
00:06.5,0.001390457,0.000829697,0.014139175,0,
00:06.5,0.001384735,0.000812531,0.014122009,0,
00:06.5,0.001384735,0.000818253,0.014099121,0,
00:06.5,0.001396179,0.000841141,0.014122009,0,
00:06.5,0.001401901,0.000835419,0.01415062,0,
00:06.5,0.001379013,0.000812531,0.014139175,0,
00:06.5,0.001384735,0.000812531,0.014127731,0,
00:06.5,0.001396179,0.000835419,0.014116287,0,
00:06.5,0.001390457,0.000835419,0.014104843,0,
00:06.5,0.001384735,0.000835419,0.014122009,0,
00:06.5,0.001373291,0.000823975,0.014127731,0,
00:06.5,0.001390457,0.000818253,0.014116287,0,
00:06.5,0.001396179,0.000835419,0.014116287,0,
00:06.5,0.001396179,0.000846863,0.014127731,0,
00:06.5,0.001396179,0.000841141,0.014122009,0,
00:06.5,0.001390457,0.000829697,0.014110565,0,
00:06.5,0.001396179,0.000841141,0.014087677,0,
00:06.5,0.001396179,0.000841141,0.014133453,0,
00:06.5,0.001390457,0.000835419,0.014116287,0,
00:06.5,0.001396179,0.000835419,0.014133453,0,
00:06.5,0.001390457,0.000829697,0.014104843,0,
00:06.5,0.001396179,0.000829697,0.014127731,0,
00:06.5,0.001401901,0.000835419,0.014116287,0,
00:06.5,0.001390457,0.000841141,0.014116287,0,
00:06.5,0.001396179,0.000841141,0.014116287,0,
00:06.6,0.001407623,0.000841141,0.014104843,0,
00:06.6,0.001413345,0.000846863,0.014093399,0,
00:06.6,0.001396179,0.000835419,0.014110565,0,
00:06.6,0.001396179,0.000841141,0.014122009,0,
00:06.6,0.001390457,0.000846863,0.014099121,0,
00:06.6,0.001401901,0.000846863,0.014122009,0,
00:06.6,0.001407623,0.000846863,0.014116287,0,
00:06.6,0.001401901,0.000852585,0.014104843,0,
00:06.6,0.001396179,0.000858307,0.014093399,0,
00:06.6,0.001407623,0.000858307,0.014110565,0,
00:06.6,0.001401901,0.000835419,0.014110565,0,
00:06.6,0.001396179,0.000835419,0.014110565,0,
00:06.6,0.001384735,0.000846863,0.014104843,0,
00:06.6,0.001396179,0.000858307,0.014133453,0,
00:06.6,0.001413345,0.000864029,0.014116287,0,
00:06.6,0.001407623,0.000858307,0.014110565,0,
00:06.6,0.001407623,0.000846863,0.014116287,0,
00:06.6,0.001407623,0.000858307,0.014104843,0,
00:06.6,0.001407623,0.000869751,0.014133453,0,
00:06.6,0.001413345,0.000858307,0.014116287,0,
00:06.6,0.001401901,0.000841141,0.014110565,0,
00:06.6,0.001396179,0.000835419,0.014116287,0,
00:06.6,0.001401901,0.000852585,0.014127731,0,
00:06.6,0.001401901,0.000864029,0.014122009,0,
00:06.6,0.001401901,0.000858307,0.014116287,0,
00:06.7,0.001401901,0.000858307,0.014122009,0,
00:06.7,0.001401901,0.000846863,0.014122009,0,
00:06.7,0.001401901,0.000846863,0.014116287,0,
00:06.7,0.001407623,0.000869751,0.014122009,0,
00:06.7,0.001407623,0.000869751,0.014110565,0,
00:06.7,0.001407623,0.000869751,0.014104843,0,
00:06.7,0.001407623,0.000858307,0.014110565,0,
00:06.7,0.001407623,0.000858307,0.01415062,0,
00:06.7,0.001407623,0.000864029,0.014139175,0,
00:06.7,0.001401901,0.000858307,0.014127731,0,
00:06.7,0.001401901,0.000852585,0.014127731,0,
00:06.7,0.001413345,0.000852585,0.014122009,0,
00:06.7,0.001413345,0.000864029,0.014127731,0,
00:06.7,0.001401901,0.000875473,0.014122009,0,
00:06.7,0.001396179,0.000864029,0.014110565,0,
00:06.7,0.001384735,0.000858307,0.014127731,0,
00:06.7,0.001419067,0.000869751,0.014133453,0,
00:06.7,0.001419067,0.000869751,0.014110565,0,
00:06.7,0.001401901,0.000869751,0.014099121,0,
00:06.7,0.001407623,0.000869751,0.014167786,0,
00:06.7,0.001407623,0.000858307,0.01415062,0,
00:06.7,0.001401901,0.000858307,0.014139175,0,
00:06.7,0.001401901,0.000864029,0.014139175,0,
00:06.7,0.001401901,0.000869751,0.014133453,0,
00:06.7,0.001407623,0.000869751,0.014139175,0,
00:06.8,0.001407623,0.000869751,0.014139175,0,
00:06.8,0.001401901,0.000864029,0.014133453,0,
00:06.8,0.001407623,0.000875473,0.014133453,0,
00:06.8,0.001413345,0.000886917,0.014139175,0,
00:06.8,0.001407623,0.000881195,0.014133453,0,
00:06.8,0.001401901,0.000869751,0.014116287,0,
00:06.8,0.001396179,0.000852585,0.014122009,0,
00:06.8,0.001401901,0.000869751,0.014144897,0,
00:06.8,0.001401901,0.000881195,0.014156342,0,
00:06.8,0.001407623,0.000881195,0.014144897,0,
00:06.8,0.001401901,0.000869751,0.014139175,0,
00:06.8,0.001401901,0.000864029,0.01415062,0,
00:06.8,0.001407623,0.000864029,0.014156342,0,
00:06.8,0.001407623,0.000875473,0.014167786,0,
00:06.8,0.001401901,0.000875473,0.014156342,0,
00:06.8,0.001401901,0.000869751,0.014144897,0,
00:06.8,0.001401901,0.000864029,0.014139175,0,
00:06.8,0.001401901,0.000875473,0.014139175,0,
00:06.8,0.001407623,0.000904083,0.014162064,0,
00:06.8,0.001413345,0.000898361,0.014139175,0,
00:06.8,0.001413345,0.000869751,0.014133453,0,
00:06.8,0.001419067,0.000875473,0.014156342,0,
00:06.8,0.001407623,0.000875473,0.01415062,0,
00:06.8,0.001407623,0.000886917,0.014167786,0,
00:06.8,0.001407623,0.000875473,0.014173508,0,
00:06.9,0.001407623,0.000875473,0.014167786,0,
00:06.9,0.001413345,0.000875473,0.01415062,0,
00:06.9,0.001407623,0.000881195,0.014139175,0,
00:06.9,0.001407623,0.000886917,0.014139175,0,
00:06.9,0.001407623,0.000881195,0.014167786,0,
00:06.9,0.001407623,0.000875473,0.014167786,0,
00:06.9,0.001413345,0.000875473,0.014162064,0,
00:06.9,0.001413345,0.000886917,0.014162064,0,
00:06.9,0.001413345,0.000892639,0.014162064,0,
00:06.9,0.001419067,0.000904083,0.014162064,0,
00:06.9,0.001424789,0.000904083,0.014156342,0,
00:06.9,0.001413345,0.000886917,0.014162064,0,
00:06.9,0.001407623,0.000875473,0.014167786,0,
00:06.9,0.001401901,0.000881195,0.014173508,0,
00:06.9,0.001401901,0.000892639,0.01417923,0,
00:06.9,0.001424789,0.000886917,0.014173508,0,
00:06.9,0.001419067,0.000875473,0.014167786,0,
00:06.9,0.001413345,0.000881195,0.014173508,0,
00:06.9,0.001413345,0.000892639,0.014173508,0,
00:06.9,0.001407623,0.000886917,0.014167786,0,
00:06.9,0.001419067,0.000875473,0.014156342,0,
00:06.9,0.001419067,0.000881195,0.014156342,0,
00:06.9,0.001419067,0.000886917,0.014190674,0,
00:06.9,0.001419067,0.000886917,0.014173508,0,
00:06.9,0.001413345,0.000898361,0.014162064,0,
00:07.0,0.001436234,0.000909805,0.014167786,0,
00:07.0,0.001430511,0.000898361,0.014162064,0,
00:07.0,0.001413345,0.000881195,0.014156342,0,
00:07.0,0.001413345,0.000892639,0.014202118,0,
00:07.0,0.001419067,0.000892639,0.014196396,0,
00:07.0,0.001424789,0.000892639,0.014184952,0,
00:07.0,0.001419067,0.000875473,0.014184952,0,
00:07.0,0.001419067,0.000886917,0.014167786,0,
00:07.0,0.001424789,0.000909805,0.014156342,0,
00:07.0,0.001419067,0.000904083,0.014167786,0,
00:07.0,0.001424789,0.000892639,0.014184952,0,
00:07.0,0.001424789,0.000881195,0.014184952,0,
00:00:07,0.001430511,0.000904083,0.014173508,0,
00:07.0,0.001424789,0.000904083,0.014173508,0,
00:07.0,0.001424789,0.000904083,0.01417923,0,
00:07.0,0.001419067,0.000886917,0.014196396,0,
00:07.0,0.001424789,0.000886917,0.014190674,0,
00:07.0,0.001424789,0.000898361,0.014190674,0,
00:07.0,0.001419067,0.000904083,0.014184952,0,
00:07.0,0.001413345,0.000909805,0.014173508,0,
00:07.0,0.001424789,0.000892639,0.014196396,0,
00:07.0,0.001430511,0.000886917,0.01417923,0,
00:07.0,0.001419067,0.000898361,0.014184952,0,
00:07.0,0.001436234,0.000915527,0.014173508,0,
00:07.0,0.001430511,0.000909805,0.014190674,0,
00:07.1,0.001430511,0.000904083,0.014190674,0,
00:07.1,0.001430511,0.000892639,0.01417923,0,
00:07.1,0.001430511,0.000904083,0.01417923,0,
00:07.1,0.001436234,0.000921249,0.014184952,0,
00:07.1,0.001430511,0.000921249,0.01417923,0,
00:07.1,0.001430511,0.000898361,0.014196396,0,
00:07.1,0.001430511,0.000892639,0.014190674,0,
00:07.1,0.001424789,0.000898361,0.014184952,0,
00:07.1,0.001430511,0.000909805,0.014184952,0,
00:07.1,0.001430511,0.000915527,0.014202118,0,
00:07.1,0.001436234,0.000915527,0.01417923,0,
00:07.1,0.001436234,0.000909805,0.014184952,0,
00:07.1,0.001430511,0.000904083,0.01420784,0,
00:07.1,0.001424789,0.000909805,0.01420784,0,
00:07.1,0.001430511,0.000915527,0.014196396,0,
00:07.1,0.001430511,0.000909805,0.014184952,0,
00:07.1,0.001424789,0.000898361,0.014184952,0,
00:07.1,0.001424789,0.000904083,0.014196396,0,
00:07.1,0.001419067,0.000915527,0.014196396,0,
00:07.1,0.001436234,0.000926971,0.014190674,0,
00:07.1,0.001447678,0.000921249,0.014173508,0,
00:07.1,0.001430511,0.000904083,0.014190674,0,
00:07.1,0.001424789,0.000904083,0.014213562,0,
00:07.1,0.001430511,0.000921249,0.014184952,0,
00:07.1,0.001424789,0.000921249,0.014213562,0,
00:07.2,0.001430511,0.000909805,0.01420784,0,
00:07.2,0.001436234,0.000909805,0.014213562,0,
00:07.2,0.001430511,0.000915527,0.01420784,0,
00:07.2,0.001436234,0.000926971,0.01420784,0,
00:07.2,0.001430511,0.000926971,0.014196396,0,
00:07.2,0.001436234,0.000915527,0.014202118,0,
00:07.2,0.001436234,0.000915527,0.014202118,0,
00:07.2,0.001430511,0.000921249,0.014190674,0,
00:07.2,0.001436234,0.000938416,0.014196396,0,
00:07.2,0.001447678,0.00094986,0.014202118,0,
00:07.2,0.001441956,0.000921249,0.014202118,0,
00:07.2,0.001436234,0.000904083,0.014190674,0,
00:07.2,0.001430511,0.000921249,0.014196396,0,
00:07.2,0.001430511,0.000926971,0.014219284,0,
00:07.2,0.001430511,0.000932693,0.014202118,0,
00:07.2,0.001436234,0.000921249,0.014184952,0,
00:07.2,0.001436234,0.000926971,0.014213562,0,
00:07.2,0.001424789,0.000921249,0.014219284,0,
00:07.2,0.001436234,0.000932693,0.014213562,0,
00:07.2,0.001436234,0.000926971,0.014213562,0,
00:07.2,0.001436234,0.000921249,0.014196396,0,
00:07.2,0.001436234,0.000926971,0.014202118,0,
00:07.2,0.001436234,0.000932693,0.014219284,0,
00:07.2,0.001436234,0.000938416,0.014230728,0,
00:07.2,0.001436234,0.000944138,0.014225006,0,
00:07.3,0.001436234,0.000926971,0.014219284,0,
00:07.3,0.001441956,0.000926971,0.014219284,0,
00:07.3,0.001436234,0.000932693,0.014230728,0,
00:07.3,0.001441956,0.000944138,0.014225006,0,
00:07.3,0.001436234,0.000944138,0.014219284,0,
00:07.3,0.001436234,0.000926971,0.014202118,0,
00:07.3,0.001430511,0.000926971,0.014184952,0,
00:07.3,0.001447678,0.000938416,0.014230728,0,
00:07.3,0.001447678,0.00094986,0.01423645,0,
00:07.3,0.001436234,0.000938416,0.014230728,0,
00:07.3,0.001436234,0.000932693,0.014213562,0,
00:07.3,0.001436234,0.000938416,0.014190674,0,
00:07.3,0.001441956,0.000944138,0.01423645,0,
00:07.3,0.001441956,0.000955582,0.014242172,0,
00:07.3,0.001436234,0.00094986,0.014225006,0,
00:07.3,0.001424789,0.000926971,0.014219284,0,
00:07.3,0.001430511,0.000932693,0.014219284,0,
00:07.3,0.001441956,0.000932693,0.014219284,0,
00:07.3,0.001441956,0.000944138,0.014225006,0,
00:07.3,0.001441956,0.00094986,0.014219284,0,
00:07.3,0.001441956,0.000938416,0.014219284,0,
00:07.3,0.001441956,0.000938416,0.014213562,0,
00:07.3,0.001447678,0.000955582,0.014213562,0,
00:07.3,0.001441956,0.00094986,0.014219284,0,
00:07.3,0.001436234,0.000944138,0.014230728,0,
00:07.4,0.001436234,0.000938416,0.014219284,0,
00:07.4,0.001447678,0.000944138,0.014225006,0,
00:07.4,0.001441956,0.000944138,0.01420784,0,
00:07.4,0.001441956,0.000955582,0.01423645,0,
00:07.4,0.001441956,0.000955582,0.01423645,0,
00:07.4,0.001441956,0.00094986,0.014219284,0,
00:07.4,0.001436234,0.000944138,0.014225006,0,
00:07.4,0.001436234,0.000944138,0.014230728,0,
00:07.4,0.001447678,0.000955582,0.014230728,0,
00:07.4,0.001441956,0.000961304,0.014230728,0,
00:07.4,0.001436234,0.000944138,0.014219284,0,
00:07.4,0.001436234,0.000938416,0.014219284,0,
00:07.4,0.001447678,0.000955582,0.014242172,0,
00:07.4,0.001447678,0.000972748,0.014225006,0,
00:07.4,0.001441956,0.000961304,0.014230728,0,
00:07.4,0.001441956,0.000955582,0.01423645,0,
00:07.4,0.001430511,0.000944138,0.014247894,0,
00:07.4,0.001447678,0.000955582,0.014230728,0,
00:07.4,0.001441956,0.00094986,0.014225006,0,
00:07.4,0.001441956,0.000955582,0.014247894,0,
00:07.4,0.001447678,0.000955582,0.014230728,0,
00:07.4,0.0014534,0.000961304,0.01423645,0,
00:07.4,0.001447678,0.000955582,0.014253616,0,
00:07.4,0.001441956,0.000967026,0.014230728,0,
00:07.4,0.001436234,0.000961304,0.014219284,0,
00:07.5,0.001447678,0.000955582,0.01423645,0,
00:07.5,0.0014534,0.000961304,0.01423645,0,
00:07.5,0.001447678,0.000967026,0.01426506,0,
00:07.5,0.001436234,0.000967026,0.014253616,0,
00:07.5,0.001459122,0.000972748,0.014247894,0,
00:07.5,0.001459122,0.00097847,0.014247894,0,
00:07.5,0.0014534,0.000955582,0.014247894,0,
00:07.5,0.001441956,0.000955582,0.014247894,0,
00:07.5,0.001447678,0.000972748,0.014253616,0,
00:07.5,0.001447678,0.000972748,0.014230728,0,
00:07.5,0.001441956,0.000961304,0.014230728,0,
00:07.5,0.001447678,0.000955582,0.01426506,0,
00:07.5,0.001447678,0.000967026,0.014253616,0,
00:07.5,0.001441956,0.00097847,0.014247894,0,
00:07.5,0.001441956,0.000972748,0.014247894,0,
00:07.5,0.0014534,0.000955582,0.014242172,0,
00:07.5,0.0014534,0.000961304,0.014253616,0,
00:07.5,0.0014534,0.00097847,0.014242172,0,
00:07.5,0.001447678,0.000984192,0.014242172,0,
00:07.5,0.001447678,0.000972748,0.014259338,0,
00:07.5,0.001447678,0.000967026,0.014253616,0,
00:07.5,0.001447678,0.000967026,0.014253616,0,
00:07.5,0.0014534,0.000984192,0.014253616,0,
00:07.5,0.001459122,0.000989914,0.014247894,0,
00:07.5,0.0014534,0.000989914,0.01423645,0,
00:07.6,0.001447678,0.000972748,0.014259338,0,
00:07.6,0.0014534,0.000967026,0.014259338,0,
00:07.6,0.001459122,0.00097847,0.014259338,0,
00:07.6,0.0014534,0.000984192,0.014247894,0,
00:07.6,0.001447678,0.00097847,0.014259338,0,
00:07.6,0.001441956,0.000967026,0.014259338,0,
00:07.6,0.0014534,0.000967026,0.014282227,0,
00:07.6,0.001464844,0.000984192,0.01426506,0,
00:07.6,0.001459122,0.000984192,0.014270782,0,
00:07.6,0.001459122,0.000984192,0.01426506,0,
00:07.6,0.0014534,0.000972748,0.01426506,0,
00:07.6,0.001441956,0.000967026,0.014259338,0,
00:07.6,0.001459122,0.000972748,0.014259338,0,
00:07.6,0.001459122,0.000989914,0.014259338,0,
00:07.6,0.001459122,0.000989914,0.014253616,0,
00:07.6,0.001459122,0.000972748,0.014253616,0,
00:07.6,0.001459122,0.00097847,0.014282227,0,
00:07.6,0.001459122,0.000984192,0.01426506,0,
00:07.6,0.001459122,0.000989914,0.014253616,0,
00:07.6,0.0014534,0.00097847,0.014253616,0,
00:07.6,0.0014534,0.000972748,0.014259338,0,
00:07.6,0.0014534,0.000967026,0.014282227,0,
00:07.6,0.001464844,0.000972748,0.014282227,0,
00:07.6,0.001459122,0.000984192,0.014259338,0,
00:07.6,0.001459122,0.000984192,0.014253616,0,
00:07.7,0.001464844,0.000984192,0.014270782,0,
00:07.7,0.001464844,0.00097847,0.014276505,0,
00:07.7,0.001459122,0.00097847,0.014287949,0,
00:07.7,0.001459122,0.000995636,0.014276505,0,
00:07.7,0.001459122,0.000995636,0.01426506,0,
00:07.7,0.001459122,0.00097847,0.014276505,0,
00:07.7,0.001459122,0.00097847,0.014276505,0,
00:07.7,0.001459122,0.000984192,0.014270782,0,
00:07.7,0.001464844,0.000989914,0.01426506,0,
00:07.7,0.001459122,0.000989914,0.014270782,0,
00:07.7,0.001459122,0.00097847,0.01426506,0,
00:07.7,0.0014534,0.000972748,0.014282227,0,
00:07.7,0.001464844,0.000989914,0.014276505,0,
00:07.7,0.0014534,0.001001358,0.01426506,0,
00:07.7,0.001464844,0.001001358,0.014276505,0,
00:07.7,0.001470566,0.000989914,0.01426506,0,
00:07.7,0.001464844,0.00097847,0.014276505,0,
00:07.7,0.001464844,0.000995636,0.014282227,0,
00:07.7,0.001470566,0.001018524,0.014276505,0,
00:07.7,0.001459122,0.000995636,0.01426506,0,
00:07.7,0.001464844,0.000984192,0.014270782,0,
00:07.7,0.001470566,0.000989914,0.014282227,0,
00:07.7,0.001464844,0.000989914,0.014282227,0,
00:07.7,0.001464844,0.00100708,0.014270782,0,
00:07.7,0.001459122,0.000995636,0.014282227,0,
00:07.8,0.001464844,0.000989914,0.014282227,0,
00:07.8,0.001464844,0.00097847,0.014287949,0,
00:07.8,0.001464844,0.000989914,0.014282227,0,
00:07.8,0.001464844,0.001001358,0.014282227,0,
00:07.8,0.001459122,0.000995636,0.014270782,0,
00:07.8,0.001459122,0.000984192,0.014282227,0,
00:07.8,0.001470566,0.000989914,0.014287949,0,
00:07.8,0.001470566,0.00100708,0.014276505,0,
00:07.8,0.001459122,0.001012802,0.01426506,0,
00:07.8,0.001464844,0.00100708,0.014282227,0,
00:07.8,0.001470566,0.001001358,0.014276505,0,
00:07.8,0.001476288,0.001001358,0.014293671,0,
00:07.8,0.001459122,0.001001358,0.014287949,0,
00:07.8,0.001464844,0.00100708,0.014282227,0,
00:07.8,0.001464844,0.001001358,0.014287949,0,
00:07.8,0.0014534,0.000989914,0.014287949,0,
00:07.8,0.001470566,0.000995636,0.014293671,0,
00:07.8,0.001476288,0.001001358,0.014282227,0,
00:07.8,0.001470566,0.001012802,0.014282227,0,
00:07.8,0.001470566,0.001012802,0.014287949,0,
00:07.8,0.001464844,0.000995636,0.014287949,0,
00:07.8,0.001476288,0.00100708,0.014287949,0,
00:07.8,0.001476288,0.001012802,0.014282227,0,
00:07.8,0.001464844,0.001001358,0.014299393,0,
00:07.8,0.001470566,0.00100708,0.014293671,0,
00:07.9,0.001470566,0.001001358,0.014282227,0,
00:07.9,0.001476288,0.00100708,0.014287949,0,
00:07.9,0.001470566,0.00100708,0.014276505,0,
00:07.9,0.001470566,0.001018524,0.014282227,0,
00:07.9,0.001464844,0.00100708,0.014282227,0,
00:07.9,0.001476288,0.00100708,0.014293671,0,
00:07.9,0.001470566,0.000995636,0.014305115,0,
00:07.9,0.001470566,0.001001358,0.014299393,0,
00:07.9,0.001470566,0.001024246,0.014299393,0,
00:07.9,0.001476288,0.001024246,0.01426506,0,
00:07.9,0.001476288,0.001012802,0.014282227,0,
00:07.9,0.001470566,0.001012802,0.014299393,0,
00:07.9,0.001459122,0.001012802,0.014305115,0,
00:07.9,0.001470566,0.001018524,0.014305115,0,
00:07.9,0.001476288,0.001012802,0.014293671,0,
00:07.9,0.00148201,0.001012802,0.014299393,0,
00:07.9,0.001476288,0.001012802,0.014276505,0,
00:07.9,0.00148201,0.001018524,0.014299393,0,
00:07.9,0.001470566,0.001024246,0.014305115,0,
00:07.9,0.001464844,0.001012802,0.014305115,0,
00:07.9,0.001470566,0.00100708,0.014310837,0,
00:07.9,0.001470566,0.001012802,0.014299393,0,
00:07.9,0.001470566,0.001018524,0.014299393,0,
00:07.9,0.001476288,0.001029968,0.014299393,0,
00:07.9,0.001470566,0.001018524,0.014299393,0,
00:08.0,0.001470566,0.001012802,0.014293671,0,
00:08.0,0.001476288,0.00100708,0.014299393,0,
00:08.0,0.001470566,0.001018524,0.014287949,0,
00:08.0,0.001476288,0.001024246,0.014299393,0,
00:08.0,0.001470566,0.001018524,0.014305115,0,
00:08.0,0.001464844,0.001018524,0.014293671,0,
00:08.0,0.001476288,0.001024246,0.014293671,0,
00:08.0,0.001476288,0.001029968,0.014305115,0,
00:08.0,0.001476288,0.001029968,0.014310837,0,
00:08.0,0.001464844,0.001018524,0.014316559,0,
00:08.0,0.001470566,0.001024246,0.014310837,0,
00:08.0,0.001459122,0.001012802,0.014299393,0,
00:00:08,0.001470566,0.001024246,0.014293671,0,
00:08.0,0.00148201,0.001029968,0.014293671,0,
00:08.0,0.001476288,0.001029968,0.014299393,0,
00:08.0,0.001476288,0.001018524,0.014299393,0,
00:08.0,0.001476288,0.001012802,0.014299393,0,
00:08.0,0.00148201,0.001029968,0.014299393,0,
00:08.0,0.001487732,0.001041412,0.014293671,0,
00:08.0,0.001470566,0.001024246,0.014293671,0,
00:08.0,0.001464844,0.001012802,0.014293671,0,
00:08.0,0.001470566,0.001012802,0.014259338,0,
00:08.0,0.00148201,0.001029968,0.014328003,0,
00:08.0,0.00148201,0.00103569,0.014322281,0,
00:08.0,0.001476288,0.00103569,0.014299393,0,
00:08.1,0.00148201,0.001024246,0.014299393,0,
00:08.1,0.00148201,0.001018524,0.014310837,0,
00:08.1,0.00148201,0.001024246,0.014299393,0,
00:08.1,0.001476288,0.001024246,0.014287949,0,
00:08.1,0.001476288,0.001024246,0.014305115,0,
00:08.1,0.001476288,0.001024246,0.014310837,0,
00:08.1,0.001476288,0.001024246,0.014305115,0,
00:08.1,0.001476288,0.001024246,0.014299393,0,
00:08.1,0.00148201,0.00103569,0.014293671,0,
00:08.1,0.00148201,0.00103569,0.014310837,0,
00:08.1,0.001476288,0.001018524,0.014328003,0,
00:08.1,0.001470566,0.001018524,0.014316559,0,
00:08.1,0.001476288,0.001024246,0.014305115,0,
00:08.1,0.001487732,0.001047134,0.014299393,0,
00:08.1,0.00148201,0.001029968,0.014299393,0,
00:08.1,0.001487732,0.001012802,0.014322281,0,
00:08.1,0.00148201,0.001018524,0.014316559,0,
00:08.1,0.00148201,0.001029968,0.014310837,0,
00:08.1,0.00148201,0.00103569,0.014305115,0,
00:08.1,0.00148201,0.001029968,0.014305115,0,
00:08.1,0.00148201,0.001024246,0.014310837,0,
00:08.1,0.001487732,0.001024246,0.014310837,0,
00:08.1,0.00148201,0.001029968,0.014310837,0,
00:08.1,0.00148201,0.00103569,0.014305115,0,
00:08.1,0.00148201,0.001029968,0.014316559,0,
00:08.2,0.00148201,0.001024246,0.014305115,0,
00:08.2,0.00148201,0.001018524,0.014293671,0,
00:08.2,0.00148201,0.001024246,0.014316559,0,
00:08.2,0.001487732,0.001029968,0.014333725,0,
00:08.2,0.001487732,0.001041412,0.014322281,0,
00:08.2,0.001487732,0.001029968,0.014316559,0,
00:08.2,0.00148201,0.001018524,0.014322281,0,
00:08.2,0.001476288,0.001018524,0.014328003,0,
00:08.2,0.00148201,0.00103569,0.014322281,0,
00:08.2,0.001499176,0.00103569,0.014316559,0,
00:08.2,0.001493454,0.001029968,0.014316559,0,
00:08.2,0.001493454,0.00103569,0.014322281,0,
00:08.2,0.001493454,0.00103569,0.014328003,0,
00:08.2,0.001470566,0.00103569,0.014310837,0,
00:08.2,0.001487732,0.001029968,0.014310837,0,
00:08.2,0.001493454,0.001018524,0.014322281,0,
00:08.2,0.001487732,0.001018524,0.014339447,0,
00:08.2,0.001493454,0.00103569,0.014333725,0,
00:08.2,0.001499176,0.001047134,0.014322281,0,
00:08.2,0.001493454,0.00103569,0.014333725,0,
00:08.2,0.001487732,0.001024246,0.014333725,0,
00:08.2,0.001493454,0.001029968,0.014322281,0,
00:08.2,0.001504898,0.001052856,0.014316559,0,
00:08.2,0.001493454,0.00103569,0.014328003,0,
00:08.2,0.00148201,0.001024246,0.014339447,0,
00:08.3,0.001487732,0.001024246,0.014328003,0,
00:08.3,0.001493454,0.001024246,0.014322281,0,
00:08.3,0.001493454,0.00103569,0.014316559,0,
00:08.3,0.001493454,0.001041412,0.014322281,0,
00:08.3,0.001499176,0.00103569,0.014316559,0,
00:08.3,0.001493454,0.001029968,0.014333725,0,
00:08.3,0.001493454,0.001029968,0.014345169,0,
00:08.3,0.001487732,0.001029968,0.014328003,0,
00:08.3,0.001487732,0.001041412,0.014345169,0,
00:08.3,0.001487732,0.001041412,0.014333725,0,
00:08.3,0.00148201,0.001029968,0.014310837,0,
00:08.3,0.001499176,0.001029968,0.014328003,0,
00:08.3,0.001499176,0.001047134,0.014328003,0,
00:08.3,0.001499176,0.001047134,0.014339447,0,
00:08.3,0.001487732,0.001029968,0.014339447,0,
00:08.3,0.001476288,0.001018524,0.014316559,0,
00:08.3,0.001487732,0.001029968,0.014339447,0,
00:08.3,0.001493454,0.001041412,0.014345169,0,
00:08.3,0.001493454,0.001047134,0.014333725,0,
00:08.3,0.001487732,0.001041412,0.014322281,0,
00:08.3,0.001476288,0.001024246,0.014322281,0,
00:08.3,0.001493454,0.001029968,0.014333725,0,
00:08.3,0.001493454,0.001041412,0.014328003,0,
00:08.3,0.001487732,0.001041412,0.014350891,0,
00:08.3,0.001493454,0.001041412,0.014350891,0,
00:08.4,0.00148201,0.001024246,0.014339447,0,
00:08.4,0.00148201,0.001024246,0.014333725,0,
00:08.4,0.001487732,0.001041412,0.014339447,0,
00:08.4,0.001493454,0.001047134,0.014322281,0,
00:08.4,0.001499176,0.001041412,0.014345169,0,
00:08.4,0.001493454,0.001029968,0.014339447,0,
00:08.4,0.001487732,0.001024246,0.014328003,0,
00:08.4,0.001487732,0.00103569,0.014333725,0,
00:08.4,0.001487732,0.001041412,0.014345169,0,
00:08.4,0.001476288,0.001041412,0.014333725,0,
00:08.4,0.001487732,0.00103569,0.014339447,0,
00:08.4,0.001504898,0.001041412,0.014339447,0,
00:08.4,0.001499176,0.001047134,0.014350891,0,
00:08.4,0.001487732,0.001041412,0.014345169,0,
00:08.4,0.001487732,0.00103569,0.014328003,0,
00:08.4,0.00148201,0.001029968,0.014305115,0,
00:08.4,0.001487732,0.001029968,0.014345169,0,
00:08.4,0.001487732,0.001029968,0.014362335,0,
00:08.4,0.001493454,0.001047134,0.014339447,0,
00:08.4,0.00148201,0.001052856,0.014333725,0,
00:08.4,0.001493454,0.001029968,0.014362335,0,
00:08.4,0.001499176,0.001024246,0.014362335,0,
00:08.4,0.001487732,0.001029968,0.014350891,0,
00:08.4,0.00148201,0.00103569,0.014345169,0,
00:08.4,0.001487732,0.001041412,0.014350891,0,
00:08.5,0.001493454,0.00103569,0.014345169,0,
00:08.5,0.001504898,0.00103569,0.014339447,0,
00:08.5,0.001493454,0.00103569,0.014350891,0,
00:08.5,0.001493454,0.001047134,0.014339447,0,
00:08.5,0.001487732,0.00103569,0.014339447,0,
00:08.5,0.001487732,0.001024246,0.014350891,0,
00:08.5,0.001487732,0.001024246,0.014345169,0,
00:08.5,0.001487732,0.00103569,0.014345169,0,
00:08.5,0.00148201,0.001041412,0.014339447,0,
00:08.5,0.001487732,0.001041412,0.014316559,0,
00:08.5,0.001493454,0.001029968,0.014333725,0,
00:08.5,0.001499176,0.00103569,0.014350891,0,
00:08.5,0.001499176,0.001052856,0.014345169,0,
00:08.5,0.001493454,0.001047134,0.014362335,0,
00:08.5,0.001487732,0.00103569,0.014356613,0,
00:08.5,0.001493454,0.00103569,0.014362335,0,
00:08.5,0.001493454,0.00103569,0.014356613,0,
00:08.5,0.001493454,0.001047134,0.014356613,0,
00:08.5,0.001487732,0.001041412,0.014356613,0,
00:08.5,0.001499176,0.001047134,0.014350891,0,
00:08.5,0.001487732,0.00103569,0.014345169,0,
00:08.5,0.00148201,0.001029968,0.014345169,0,
00:08.5,0.001493454,0.001041412,0.014350891,0,
00:08.5,0.001493454,0.001047134,0.014350891,0,
00:08.5,0.001499176,0.001052856,0.014350891,0,
00:08.6,0.001487732,0.001029968,0.014345169,0,
00:08.6,0.001493454,0.001024246,0.014356613,0,
00:08.6,0.001504898,0.001047134,0.014350891,0,
00:08.6,0.001504898,0.001052856,0.014350891,0,
00:08.6,0.001487732,0.00103569,0.014362335,0,
00:08.6,0.001487732,0.00103569,0.014356613,0,
00:08.6,0.001499176,0.00103569,0.014362335,0,
00:08.6,0.001493454,0.001047134,0.014356613,0,
00:08.6,0.001493454,0.001052856,0.014339447,0,
00:08.6,0.001487732,0.001041412,0.014345169,0,
00:08.6,0.00148201,0.001029968,0.014362335,0,
00:08.6,0.001493454,0.001029968,0.014356613,0,
00:08.6,0.001499176,0.001047134,0.014350891,0,
00:08.6,0.001499176,0.001047134,0.014368057,0,
00:08.6,0.001493454,0.001041412,0.014373779,0,
00:08.6,0.001499176,0.00103569,0.014356613,0,
00:08.6,0.001493454,0.00103569,0.014350891,0,
00:08.6,0.001499176,0.001047134,0.014356613,0,
00:08.6,0.001493454,0.001047134,0.014356613,0,
00:08.6,0.001499176,0.001052856,0.014356613,0,
00:08.6,0.001499176,0.001047134,0.014368057,0,
00:08.6,0.001493454,0.001029968,0.014362335,0,
00:08.6,0.001493454,0.00103569,0.014368057,0,
00:08.6,0.00148201,0.001052856,0.014368057,0,
00:08.6,0.001499176,0.001047134,0.014362335,0,
00:08.7,0.001493454,0.001029968,0.014362335,0,
00:08.7,0.001499176,0.001041412,0.014362335,0,
00:08.7,0.001487732,0.00103569,0.014362335,0,
00:08.7,0.001493454,0.001047134,0.014362335,0,
00:08.7,0.001499176,0.001052856,0.014362335,0,
00:08.7,0.001493454,0.001041412,0.014362335,0,
00:08.7,0.001487732,0.001029968,0.014356613,0,
00:08.7,0.001487732,0.001047134,0.014345169,0,
00:08.7,0.001493454,0.001052856,0.014339447,0,
00:08.7,0.00148201,0.001041412,0.014368057,0,
00:08.7,0.001487732,0.00103569,0.014385223,0,
00:08.7,0.001499176,0.00103569,0.014368057,0,
00:08.7,0.001493454,0.001047134,0.014368057,0,
00:08.7,0.001493454,0.001047134,0.014368057,0,
00:08.7,0.001487732,0.001041412,0.014362335,0,
00:08.7,0.001493454,0.001047134,0.014373779,0,
00:08.7,0.001493454,0.001047134,0.014368057,0,
00:08.7,0.001493454,0.001047134,0.014373779,0,
00:08.7,0.001487732,0.001047134,0.014356613,0,
00:08.7,0.001487732,0.001052856,0.014345169,0,
00:08.7,0.001493454,0.001047134,0.014373779,0,
00:08.7,0.001493454,0.001052856,0.014373779,0,
00:08.7,0.00148201,0.001047134,0.014356613,0,
00:08.7,0.001493454,0.001047134,0.014373779,0,
00:08.7,0.001487732,0.001047134,0.014379501,0,
00:08.8,0.001487732,0.001041412,0.014362335,0,
00:08.8,0.001487732,0.001047134,0.014356613,0,
00:08.8,0.001493454,0.001058578,0.014339447,0,
00:08.8,0.001487732,0.001052856,0.014379501,0,
00:08.8,0.00148201,0.001041412,0.014390945,0,
00:08.8,0.001476288,0.001041412,0.014385223,0,
00:08.8,0.001493454,0.001052856,0.014379501,0,
00:08.8,0.001493454,0.001052856,0.014373779,0,
00:08.8,0.001487732,0.001058578,0.014362335,0,
00:08.8,0.001487732,0.001052856,0.014356613,0,
00:08.8,0.001487732,0.001041412,0.014379501,0,
00:08.8,0.001487732,0.001041412,0.014379501,0,
00:08.8,0.00148201,0.00103569,0.014368057,0,
00:08.8,0.001487732,0.001058578,0.014373779,0,
00:08.8,0.001487732,0.001058578,0.014368057,0,
00:08.8,0.00148201,0.001041412,0.014368057,0,
00:08.8,0.00148201,0.00103569,0.014362335,0,
00:08.8,0.00148201,0.001041412,0.014373779,0,
00:08.8,0.00148201,0.001058578,0.014356613,0,
00:08.8,0.001487732,0.001052856,0.014368057,0,
00:08.8,0.001493454,0.001047134,0.014368057,0,
00:08.8,0.001499176,0.001058578,0.014345169,0,
00:08.8,0.00148201,0.001052856,0.014373779,0,
00:08.8,0.001487732,0.001052856,0.014368057,0,
00:08.8,0.00148201,0.001047134,0.014373779,0,
00:08.9,0.00148201,0.001047134,0.014373779,0,
00:08.9,0.001499176,0.001047134,0.014368057,0,
00:08.9,0.001493454,0.001058578,0.014368057,0,
00:08.9,0.001476288,0.001058578,0.014368057,0,
00:08.9,0.001476288,0.001047134,0.014368057,0,
00:08.9,0.001487732,0.001041412,0.014373779,0,
00:08.9,0.00148201,0.001041412,0.014368057,0,
00:08.9,0.001487732,0.001052856,0.014373779,0,
00:08.9,0.00148201,0.001058578,0.014362335,0,
00:08.9,0.001487732,0.001058578,0.014373779,0,
00:08.9,0.001487732,0.001047134,0.014373779,0,
00:08.9,0.00148201,0.001047134,0.014350891,0,
00:08.9,0.001487732,0.001058578,0.014362335,0,
00:08.9,0.001487732,0.001058578,0.014385223,0,
00:08.9,0.00148201,0.001047134,0.014390945,0,
00:08.9,0.00148201,0.00103569,0.014373779,0,
00:08.9,0.00148201,0.001041412,0.014362335,0,
00:08.9,0.001487732,0.001058578,0.014362335,0,
00:08.9,0.001493454,0.001075745,0.014373779,0,
00:08.9,0.001487732,0.001064301,0.014373779,0,
00:08.9,0.00148201,0.00103569,0.014373779,0,
00:08.9,0.00148201,0.00103569,0.014368057,0,
00:08.9,0.001487732,0.001047134,0.014390945,0,
00:08.9,0.001487732,0.001058578,0.014379501,0,
00:08.9,0.001493454,0.001058578,0.014368057,0,
00:09.0,0.001487732,0.001047134,0.014368057,0,
00:09.0,0.00148201,0.001047134,0.014385223,0,
00:09.0,0.00148201,0.001058578,0.014373779,0,
00:09.0,0.00148201,0.001064301,0.014356613,0,
00:09.0,0.001487732,0.001052856,0.014379501,0,
00:09.0,0.001493454,0.001052856,0.014373779,0,
00:09.0,0.001493454,0.001052856,0.014368057,0,
00:09.0,0.001476288,0.001052856,0.014368057,0,
00:09.0,0.001470566,0.001064301,0.014373779,0,
00:09.0,0.001499176,0.001052856,0.014356613,0,
00:09.0,0.001493454,0.001052856,0.014362335,0,
00:09.0,0.001493454,0.001058578,0.014373779,0,
00:00:09,0.001493454,0.001064301,0.014368057,0,
00:09.0,0.001487732,0.001047134,0.014385223,0,
00:09.0,0.00148201,0.001047134,0.014385223,0,
00:09.0,0.00148201,0.001047134,0.014362335,0,
00:09.0,0.001493454,0.001047134,0.014368057,0,
00:09.0,0.001487732,0.001064301,0.014385223,0,
00:09.0,0.001493454,0.001070023,0.014390945,0,
00:09.0,0.001493454,0.001058578,0.014368057,0,
00:09.0,0.001499176,0.001058578,0.014385223,0,
00:09.0,0.001487732,0.001047134,0.014379501,0,
00:09.0,0.001487732,0.001052856,0.014368057,0,
00:09.0,0.001493454,0.001070023,0.014368057,0,
00:09.0,0.001499176,0.001064301,0.01440239,0,
00:09.1,0.001487732,0.001047134,0.014379501,0,
00:09.1,0.001487732,0.001047134,0.014379501,0,
00:09.1,0.001487732,0.001058578,0.014385223,0,
00:09.1,0.001493454,0.001064301,0.014373779,0,
00:09.1,0.001493454,0.001064301,0.014396667,0,
00:09.1,0.001487732,0.001058578,0.014385223,0,
00:09.1,0.001487732,0.001058578,0.014368057,0,
00:09.1,0.001493454,0.001070023,0.014385223,0,
00:09.1,0.001493454,0.001075745,0.014385223,0,
00:09.1,0.001499176,0.001064301,0.014385223,0,
00:09.1,0.001493454,0.001047134,0.014396667,0,
00:09.1,0.001493454,0.001058578,0.01440239,0,
00:09.1,0.001487732,0.001058578,0.014385223,0,
00:09.1,0.001493454,0.001070023,0.014379501,0,
00:09.1,0.001493454,0.001070023,0.014385223,0,
00:09.1,0.001493454,0.001058578,0.014396667,0,
00:09.1,0.001493454,0.001052856,0.014390945,0,
00:09.1,0.001487732,0.001064301,0.014373779,0,
00:09.1,0.001493454,0.001075745,0.014368057,0,
00:09.1,0.001493454,0.001064301,0.014390945,0,
00:09.1,0.001487732,0.001047134,0.014408112,0,
00:09.1,0.001487732,0.001047134,0.014413834,0,
00:09.1,0.001487732,0.001064301,0.01440239,0,
00:09.1,0.001499176,0.001087189,0.014390945,0,
00:09.1,0.001493454,0.001070023,0.014385223,0,
00:09.2,0.00148201,0.001041412,0.014390945,0,
00:09.2,0.001487732,0.001052856,0.014390945,0,
00:09.2,0.001493454,0.001075745,0.014390945,0,
00:09.2,0.001487732,0.001070023,0.014385223,0,
00:09.2,0.001487732,0.001070023,0.014385223,0,
00:09.2,0.001499176,0.001058578,0.014390945,0,
00:09.2,0.001499176,0.001070023,0.014396667,0,
00:09.2,0.001499176,0.001081467,0.014396667,0,
00:09.2,0.001499176,0.001081467,0.014396667,0,
00:09.2,0.001487732,0.001064301,0.014385223,0,
00:09.2,0.001487732,0.001058578,0.014385223,0,
00:09.2,0.00148201,0.001064301,0.01440239,0,
00:09.2,0.001493454,0.001064301,0.01440239,0,
00:09.2,0.001504898,0.001081467,0.014390945,0,
00:09.2,0.001493454,0.001064301,0.014390945,0,
00:09.2,0.001493454,0.001064301,0.014390945,0,
00:09.2,0.001504898,0.001075745,0.01440239,0,
00:09.2,0.001499176,0.001081467,0.014385223,0,
00:09.2,0.001493454,0.001075745,0.014396667,0,
00:09.2,0.001493454,0.001058578,0.014390945,0,
00:09.2,0.001493454,0.001052856,0.01440239,0,
00:09.2,0.001499176,0.001064301,0.014408112,0,
00:09.2,0.001493454,0.001075745,0.01440239,0,
00:09.2,0.001493454,0.001075745,0.01440239,0,
00:09.2,0.001499176,0.001075745,0.01440239,0,
00:09.3,0.001499176,0.001070023,0.01440239,0,
00:09.3,0.001493454,0.001075745,0.014408112,0,
00:09.3,0.001487732,0.001081467,0.01440239,0,
00:09.3,0.001499176,0.001075745,0.014396667,0,
00:09.3,0.001493454,0.001058578,0.014396667,0,
00:09.3,0.001499176,0.001058578,0.01440239,0,
00:09.3,0.001499176,0.001070023,0.014396667,0,
00:09.3,0.001499176,0.001087189,0.014390945,0,
00:09.3,0.001499176,0.001087189,0.014390945,0,
00:09.3,0.001493454,0.001081467,0.014390945,0,
00:09.3,0.001487732,0.001070023,0.014396667,0,
00:09.3,0.001504898,0.001075745,0.014413834,0,
00:09.3,0.001504898,0.001081467,0.014408112,0,
00:09.3,0.001499176,0.001075745,0.014390945,0,
00:09.3,0.001493454,0.001070023,0.014408112,0,
00:09.3,0.001493454,0.001064301,0.01440239,0,
00:09.3,0.001504898,0.001070023,0.014396667,0,
00:09.3,0.001499176,0.001075745,0.01440239,0,
00:09.3,0.001487732,0.001075745,0.014385223,0,
00:09.3,0.001493454,0.001081467,0.014390945,0,
00:09.3,0.00151062,0.001081467,0.014419556,0,
00:09.3,0.001504898,0.001075745,0.014419556,0,
00:09.3,0.00148201,0.001070023,0.014396667,0,
00:09.3,0.001499176,0.001075745,0.014408112,0,
00:09.3,0.001499176,0.001070023,0.01440239,0,
00:09.4,0.001504898,0.001070023,0.014390945,0,
00:09.4,0.001504898,0.001075745,0.014396667,0,
00:09.4,0.001499176,0.001070023,0.01440239,0,
00:09.4,0.001499176,0.001087189,0.014396667,0,
00:09.4,0.001499176,0.001081467,0.014408112,0,
00:09.4,0.001493454,0.001064301,0.014396667,0,
00:09.4,0.001504898,0.001070023,0.01440239,0,
00:09.4,0.001499176,0.001075745,0.014379501,0,
00:09.4,0.001499176,0.001081467,0.014408112,0,
00:09.4,0.001499176,0.001075745,0.014390945,0,
00:09.4,0.001493454,0.001064301,0.014408112,0,
00:09.4,0.001504898,0.001064301,0.014408112,0,
00:09.4,0.00151062,0.001087189,0.014408112,0,
00:09.4,0.001504898,0.001087189,0.01440239,0,
00:09.4,0.001499176,0.001075745,0.014413834,0,
00:09.4,0.001499176,0.001070023,0.014396667,0,
00:09.4,0.001493454,0.001064301,0.014408112,0,
00:09.4,0.001499176,0.001075745,0.014413834,0,
00:09.4,0.001493454,0.001081467,0.01440239,0,
00:09.4,0.001493454,0.001081467,0.01440239,0,
00:09.4,0.001487732,0.001064301,0.014396667,0,
00:09.4,0.001499176,0.001070023,0.014408112,0,
00:09.4,0.001504898,0.001081467,0.014419556,0,
00:09.4,0.001499176,0.001081467,0.014390945,0,
00:09.4,0.001499176,0.001075745,0.014413834,0,
00:09.5,0.001499176,0.001070023,0.014413834,0,
00:09.5,0.001493454,0.001070023,0.01440239,0,
00:09.5,0.001499176,0.001081467,0.01440239,0,
00:09.5,0.001499176,0.001087189,0.014408112,0,
00:09.5,0.001493454,0.001075745,0.01440239,0,
00:09.5,0.001499176,0.001064301,0.014413834,0,
00:09.5,0.001499176,0.001070023,0.014419556,0,
00:09.5,0.001504898,0.001087189,0.01440239,0,
00:09.5,0.001504898,0.001104355,0.014390945,0,
00:09.5,0.001493454,0.001070023,0.014413834,0,
00:09.5,0.001493454,0.001058578,0.014413834,0,
00:09.5,0.001487732,0.001064301,0.014413834,0,
00:09.5,0.001499176,0.001081467,0.01440239,0,
00:09.5,0.001499176,0.001087189,0.014396667,0,
00:09.5,0.001487732,0.001087189,0.014413834,0,
00:09.5,0.001493454,0.001075745,0.014413834,0,
00:09.5,0.001504898,0.001070023,0.014408112,0,
00:09.5,0.001499176,0.001081467,0.01440239,0,
00:09.5,0.001493454,0.001081467,0.014379501,0,
00:09.5,0.001499176,0.001081467,0.014413834,0,
00:09.5,0.001493454,0.001070023,0.014419556,0,
00:09.5,0.001493454,0.001075745,0.014413834,0,
00:09.5,0.001493454,0.001081467,0.01440239,0,
00:09.5,0.001493454,0.001087189,0.014408112,0,
00:09.5,0.001499176,0.001087189,0.014419556,0,
00:09.6,0.001493454,0.001075745,0.014408112,0,
00:09.6,0.001499176,0.001081467,0.014413834,0,
00:09.6,0.001499176,0.001075745,0.014408112,0,
00:09.6,0.001499176,0.001081467,0.014419556,0,
00:09.6,0.001493454,0.001081467,0.014413834,0,
00:09.6,0.001499176,0.001081467,0.014413834,0,
00:09.6,0.001499176,0.001075745,0.014413834,0,
00:09.6,0.001493454,0.001075745,0.014396667,0,
00:09.6,0.001493454,0.001092911,0.01440239,0,
00:09.6,0.001493454,0.001087189,0.014413834,0,
00:09.6,0.001493454,0.001075745,0.014413834,0,
00:09.6,0.001504898,0.001070023,0.014390945,0,
00:09.6,0.001499176,0.001087189,0.014413834,0,
00:09.6,0.001499176,0.001087189,0.014425278,0,
00:09.6,0.001487732,0.001087189,0.014419556,0,
00:09.6,0.001493454,0.001075745,0.014419556,0,
00:09.6,0.001504898,0.001075745,0.014413834,0,
00:09.6,0.001504898,0.001092911,0.014408112,0,
00:09.6,0.001504898,0.001092911,0.014396667,0,
00:09.6,0.001493454,0.001081467,0.01440239,0,
00:09.6,0.001499176,0.001070023,0.014419556,0,
00:09.6,0.001499176,0.001081467,0.014408112,0,
00:09.6,0.001504898,0.001098633,0.014408112,0,
00:09.6,0.001499176,0.001087189,0.014408112,0,
00:09.6,0.001499176,0.001087189,0.01440239,0,
00:09.7,0.001493454,0.001081467,0.01440239,0,
00:09.7,0.001499176,0.001081467,0.014419556,0,
00:09.7,0.001499176,0.001092911,0.01440239,0,
00:09.7,0.001493454,0.001092911,0.01440239,0,
00:09.7,0.001493454,0.001087189,0.014396667,0,
00:09.7,0.001499176,0.001081467,0.014419556,0,
00:09.7,0.001504898,0.001087189,0.014408112,0,
00:09.7,0.001493454,0.001098633,0.014425278,0,
00:09.7,0.001499176,0.001104355,0.014413834,0,
00:09.7,0.001493454,0.001092911,0.01440239,0,
00:09.7,0.001499176,0.001087189,0.01440239,0,
00:09.7,0.001487732,0.001087189,0.014413834,0,
00:09.7,0.001499176,0.001098633,0.014413834,0,
00:09.7,0.001499176,0.001104355,0.01440239,0,
00:09.7,0.001504898,0.001104355,0.014408112,0,
00:09.7,0.001493454,0.001087189,0.014408112,0,
00:09.7,0.001487732,0.001081467,0.014408112,0,
00:09.7,0.001493454,0.001092911,0.014413834,0,
00:09.7,0.001499176,0.001104355,0.014419556,0,
00:09.7,0.001493454,0.001092911,0.014413834,0,
00:09.7,0.001493454,0.001081467,0.014408112,0,
00:09.7,0.001499176,0.001092911,0.014408112,0,
00:09.7,0.001499176,0.001098633,0.014413834,0,
00:09.7,0.001493454,0.001104355,0.01440239,0,
00:09.7,0.001499176,0.001098633,0.014396667,0,
00:09.8,0.001499176,0.001081467,0.014413834,0,
00:09.8,0.001499176,0.001092911,0.014419556,0,
00:09.8,0.001487732,0.001104355,0.014408112,0,
00:09.8,0.001487732,0.001098633,0.01440239,0,
00:09.8,0.001493454,0.001092911,0.014396667,0,
00:09.8,0.001499176,0.001098633,0.01440239,0,
00:09.8,0.001487732,0.001092911,0.014408112,0,
00:09.8,0.001504898,0.001104355,0.014419556,0,
00:09.8,0.001504898,0.001110077,0.014419556,0,
00:09.8,0.001499176,0.001092911,0.014408112,0,
00:09.8,0.001493454,0.001087189,0.014413834,0,
00:09.8,0.001499176,0.001092911,0.014413834,0,
00:09.8,0.001499176,0.001104355,0.014419556,0,
00:09.8,0.001504898,0.001121521,0.014408112,0,
00:09.8,0.00151062,0.001115799,0.014408112,0,
00:09.8,0.001504898,0.001098633,0.014413834,0,
00:09.8,0.001493454,0.001092911,0.014408112,0,
00:09.8,0.001487732,0.001098633,0.014385223,0,
00:09.8,0.001493454,0.001104355,0.014379501,0,
00:09.8,0.001499176,0.001092911,0.01445961,0,
00:09.8,0.001493454,0.001092911,0.014431,0,
00:09.8,0.001499176,0.001104355,0.014419556,0,
00:09.8,0.001499176,0.001110077,0.014419556,0,
00:09.8,0.001493454,0.001104355,0.014413834,0,
00:09.8,0.001493454,0.001098633,0.014413834,0,
00:09.9,0.001493454,0.001092911,0.01440239,0,
00:09.9,0.001504898,0.001104355,0.014419556,0,
00:09.9,0.001499176,0.001104355,0.014425278,0,
00:09.9,0.001504898,0.001115799,0.014419556,0,
00:09.9,0.001504898,0.001110077,0.014413834,0,
00:09.9,0.001487732,0.001098633,0.014408112,0,
00:09.9,0.00148201,0.001098633,0.014408112,0,
00:09.9,0.001516342,0.001115799,0.014408112,0,
00:09.9,0.001504898,0.001110077,0.014419556,0,
00:09.9,0.001499176,0.001098633,0.014425278,0,
00:09.9,0.001499176,0.001087189,0.014419556,0,
00:09.9,0.001499176,0.001092911,0.014419556,0,
00:09.9,0.001499176,0.001110077,0.014425278,0,
00:09.9,0.001504898,0.001115799,0.014436722,0,
00:09.9,0.001499176,0.001104355,0.014419556,0,
00:09.9,0.001487732,0.001087189,0.014413834,0,
00:09.9,0.001487732,0.001081467,0.014408112,0,
00:09.9,0.001499176,0.001104355,0.014419556,0,
00:09.9,0.001499176,0.001110077,0.014413834,0,
00:09.9,0.001504898,0.001115799,0.014390945,0,
00:09.9,0.00151062,0.001110077,0.014419556,0,
00:09.9,0.001493454,0.001092911,0.014413834,0,
00:09.9,0.001499176,0.001110077,0.014396667,0,
00:09.9,0.001499176,0.001110077,0.014436722,0,
00:09.9,0.001499176,0.001104355,0.014436722,0,
00:10.0,0.001493454,0.001087189,0.014431,0,
00:10.0,0.001504898,0.001092911,0.014425278,0,
00:10.0,0.001499176,0.001110077,0.014413834,0,
00:10.0,0.001487732,0.001115799,0.014408112,0,
00:10.0,0.00148201,0.001098633,0.014419556,0,
00:10.0,0.001504898,0.001098633,0.014425278,0,
00:10.0,0.00151062,0.001110077,0.014419556,0,
00:10.0,0.001499176,0.001110077,0.014413834,0,
00:10.0,0.001504898,0.001110077,0.014413834,0,
00:10.0,0.001493454,0.001098633,0.014425278,0,
00:10.0,0.001487732,0.001092911,0.014413834,0,
00:10.0,0.001499176,0.001104355,0.014436722,0,
00:00:10,0.001499176,0.001121521,0.014425278,0,
00:10.0,0.001493454,0.001115799,0.014408112,0,
00:10.0,0.001493454,0.001104355,0.014419556,0,
00:10.0,0.001493454,0.001092911,0.014419556,0,
00:10.0,0.001499176,0.001098633,0.014425278,0,
00:10.0,0.001499176,0.001110077,0.014425278,0,
00:10.0,0.001499176,0.001121521,0.014419556,0,
00:10.0,0.001493454,0.001104355,0.014413834,0,
00:10.0,0.001504898,0.001110077,0.014419556,0,
00:10.0,0.001499176,0.001110077,0.01440239,0,
00:10.0,0.001499176,0.001115799,0.014413834,0,
00:10.0,0.001504898,0.001110077,0.014419556,0,
00:10.0,0.001493454,0.001104355,0.014419556,0,
00:10.1,0.001504898,0.001104355,0.014448166,0,
00:10.1,0.001493454,0.001110077,0.014413834,0,
00:10.1,0.001470566,0.001110077,0.014436722,0,
00:10.1,0.001493454,0.001115799,0.014431,0,
00:10.1,0.00151062,0.001110077,0.014408112,0,
00:10.1,0.001504898,0.001110077,0.014419556,0,
00:10.1,0.001504898,0.001110077,0.014431,0,
00:10.1,0.001504898,0.001115799,0.014431,0,
00:10.1,0.001499176,0.001121521,0.014419556,0,
00:10.1,0.001504898,0.001115799,0.014436722,0,
00:10.1,0.001499176,0.001104355,0.014431,0,
00:10.1,0.001493454,0.001104355,0.014425278,0,
00:10.1,0.001499176,0.001115799,0.014419556,0,
00:10.1,0.001504898,0.001127243,0.014436722,0,
00:10.1,0.001504898,0.001121521,0.014425278,0,
00:10.1,0.001493454,0.001092911,0.014419556,0,
00:10.1,0.001499176,0.001110077,0.014431,0,
00:10.1,0.001499176,0.001121521,0.014436722,0,
00:10.1,0.001493454,0.001115799,0.014425278,0,
00:10.1,0.001499176,0.001110077,0.014425278,0,
00:10.1,0.001499176,0.001104355,0.014425278,0,
00:10.1,0.001493454,0.001104355,0.014419556,0,
00:10.1,0.001499176,0.001121521,0.014419556,0,
00:10.1,0.001504898,0.001127243,0.014408112,0,
00:10.1,0.001504898,0.001115799,0.014413834,0,
00:10.2,0.001499176,0.001104355,0.01445961,0,
00:10.2,0.001499176,0.001110077,0.014436722,0,
00:10.2,0.001499176,0.001110077,0.014431,0,
00:10.2,0.001487732,0.001121521,0.014436722,0,
00:10.2,0.001487732,0.001110077,0.014436722,0,
00:10.2,0.001499176,0.001098633,0.014425278,0,
00:10.2,0.00151062,0.001115799,0.014419556,0,
00:10.2,0.00151062,0.001132965,0.014436722,0,
00:10.2,0.001499176,0.001121521,0.014425278,0,
00:10.2,0.001493454,0.001110077,0.014431,0,
00:10.2,0.001499176,0.001098633,0.014431,0,
00:10.2,0.001499176,0.001110077,0.014436722,0,
00:10.2,0.001499176,0.001121521,0.014436722,0,
00:10.2,0.001499176,0.001121521,0.014436722,0,
00:10.2,0.001499176,0.001104355,0.014436722,0,
00:10.2,0.001493454,0.001092911,0.014431,0,
00:10.2,0.001504898,0.001110077,0.014425278,0,
00:10.2,0.001504898,0.001121521,0.014442444,0,
00:10.2,0.001504898,0.001121521,0.014431,0,
00:10.2,0.001499176,0.001104355,0.014425278,0,
00:10.2,0.001504898,0.001104355,0.014453888,0,
00:10.2,0.001504898,0.001115799,0.014448166,0,
00:10.2,0.001504898,0.001121521,0.014436722,0,
00:10.2,0.001487732,0.001098633,0.014431,0,
00:10.2,0.001493454,0.001092911,0.014436722,0,
00:10.3,0.001487732,0.001092911,0.014431,0,
00:10.3,0.001493454,0.001104355,0.014453888,0,
00:10.3,0.001504898,0.001115799,0.014436722,0,
00:10.3,0.001499176,0.001110077,0.01445961,0,
00:10.3,0.001493454,0.001110077,0.014448166,0,
00:10.3,0.001504898,0.001104355,0.014453888,0,
