Elapsed_Time,EMG1,EMG2,EMG3,BioRadio Event,Unnamed: 5
00:00:00,0.000749588,0.003650665,0.016880035,0,
00:00.0,0.000749588,0.003639221,0.016880035,0,
00:00.0,0.000749588,0.003639221,0.016880035,0,
00:00.0,0.00075531,0.003644943,0.016880035,0,
00:00.0,0.00075531,0.003650665,0.016880035,0,
00:00.0,0.00075531,0.003650665,0.016880035,0,
00:00.0,0.000749588,0.003639221,0.016880035,0,
00:00.0,0.00075531,0.003627777,0.016885757,0,
00:00.0,0.00075531,0.003639221,0.016885757,0,
00:00.0,0.00075531,0.003650665,0.016891479,0,
00:00.0,0.00075531,0.003656387,0.016885757,0,
00:00.0,0.00075531,0.003639221,0.016885757,0,
00:00.0,0.00075531,0.003633499,0.016885757,0,
00:00.1,0.00075531,0.003633499,0.016891479,0,
00:00.1,0.00075531,0.003650665,0.016891479,0,
00:00.1,0.00075531,0.003656387,0.016897202,0,
00:00.1,0.00075531,0.003633499,0.016897202,0,
00:00.1,0.00075531,0.003627777,0.016897202,0,
00:00.1,0.000761032,0.003639221,0.016897202,0,
00:00.1,0.00075531,0.003639221,0.016897202,0,
00:00.1,0.00075531,0.003633499,0.016897202,0,
00:00.1,0.00075531,0.003644943,0.016897202,0,
00:00.1,0.000761032,0.003650665,0.016902924,0,
00:00.1,0.000761032,0.003656387,0.016908646,0,
00:00.1,0.00075531,0.003656387,0.016902924,0,
00:00.1,0.00075531,0.003650665,0.016902924,0,
00:00.1,0.00075531,0.003644943,0.016902924,0,
00:00.1,0.00075531,0.003633499,0.016908646,0,
00:00.1,0.00075531,0.003633499,0.016914368,0,
00:00.1,0.00075531,0.003650665,0.016914368,0,
00:00.1,0.00075531,0.003662109,0.016914368,0,
00:00.1,0.00075531,0.003650665,0.016914368,0,
00:00.1,0.00075531,0.003639221,0.01692009,0,
00:00.1,0.00075531,0.003650665,0.01692009,0,
00:00.1,0.00075531,0.003656387,0.01692009,0,
00:00.1,0.00075531,0.003650665,0.016925812,0,
00:00.1,0.00075531,0.003639221,0.016925812,0,
00:00.1,0.000761032,0.003633499,0.016925812,0,
00:00.2,0.000761032,0.003644943,0.016925812,0,
00:00.2,0.000761032,0.003667831,0.016925812,0,
00:00.2,0.000761032,0.003656387,0.016925812,0,
00:00.2,0.000761032,0.003639221,0.016925812,0,
00:00.2,0.000761032,0.003627777,0.016931534,0,
00:00.2,0.000761032,0.003650665,0.016931534,0,
00:00.2,0.000761032,0.003662109,0.016931534,0,
00:00.2,0.000761032,0.003656387,0.016931534,0,
00:00.2,0.000761032,0.003650665,0.016937256,0,
00:00.2,0.000766754,0.003644943,0.016937256,0,
00:00.2,0.000766754,0.003644943,0.016942978,0,
00:00.2,0.000766754,0.003650665,0.016942978,0,
00:00.2,0.000766754,0.003650665,0.016942978,0,
00:00.2,0.000766754,0.003639221,0.016942978,0,
00:00.2,0.000766754,0.003633499,0.016942978,0,
00:00.2,0.000766754,0.003639221,0.016942978,0,
00:00.2,0.000766754,0.003656387,0.0169487,0,
00:00.2,0.000766754,0.003662109,0.0169487,0,
00:00.2,0.000761032,0.003644943,0.0169487,0,
00:00.2,0.000761032,0.003633499,0.0169487,0,
00:00.2,0.000761032,0.003644943,0.0169487,0,
00:00.2,0.000761032,0.003650665,0.0169487,0,
00:00.2,0.000761032,0.003644943,0.0169487,0,
00:00.2,0.000761032,0.003644943,0.016954422,0,
00:00.2,0.000761032,0.003650665,0.016954422,0,
00:00.3,0.000761032,0.003656387,0.016954422,0,
00:00.3,0.000761032,0.003662109,0.016954422,0,
00:00.3,0.000761032,0.003650665,0.016954422,0,
00:00.3,0.000761032,0.003633499,0.016954422,0,
00:00.3,0.000761032,0.003633499,0.016954422,0,
00:00.3,0.000761032,0.003639221,0.016960144,0,
00:00.3,0.00075531,0.003650665,0.016960144,0,
00:00.3,0.000761032,0.003656387,0.016960144,0,
00:00.3,0.000761032,0.003644943,0.016960144,0,
00:00.3,0.00075531,0.003627777,0.016960144,0,
00:00.3,0.000761032,0.003644943,0.016965866,0,
00:00.3,0.000761032,0.003656387,0.016965866,0,
00:00.3,0.000761032,0.003644943,0.016965866,0,
00:00.3,0.000761032,0.003633499,0.016965866,0,
00:00.3,0.000761032,0.003639221,0.016971588,0,
00:00.3,0.000761032,0.003644943,0.01697731,0,
00:00.3,0.000761032,0.003650665,0.01697731,0,
00:00.3,0.000761032,0.003644943,0.01697731,0,
00:00.3,0.000761032,0.003627777,0.01697731,0,
00:00.3,0.000766754,0.003627777,0.01697731,0,
00:00.3,0.000761032,0.003639221,0.01697731,0,
00:00.3,0.000761032,0.003644943,0.01697731,0,
00:00.3,0.000761032,0.003644943,0.01697731,0,
00:00.3,0.000761032,0.003633499,0.016983032,0,
00:00.3,0.000761032,0.003627777,0.016983032,0,
00:00.4,0.000766754,0.003639221,0.016983032,0,
00:00.4,0.000761032,0.003644943,0.016988754,0,
00:00.4,0.000766754,0.003644943,0.016988754,0,
00:00.4,0.000766754,0.003633499,0.016994476,0,
00:00.4,0.000766754,0.003622055,0.016994476,0,
00:00.4,0.000766754,0.003639221,0.016994476,0,
00:00.4,0.000772476,0.003644943,0.016994476,0,
00:00.4,0.000766754,0.003639221,0.016994476,0,
00:00.4,0.000766754,0.003633499,0.017000198,0,
00:00.4,0.000766754,0.003627777,0.017000198,0,
00:00.4,0.000766754,0.003627777,0.017000198,0,
00:00.4,0.000766754,0.003639221,0.01700592,0,
00:00.4,0.000772476,0.003639221,0.01700592,0,
00:00.4,0.000766754,0.003633499,0.01700592,0,
00:00.4,0.000772476,0.003627777,0.017011642,0,
00:00.4,0.000772476,0.003633499,0.017011642,0,
00:00.4,0.000766754,0.003639221,0.017011642,0,
00:00.4,0.000772476,0.003644943,0.017017365,0,
00:00.4,0.000772476,0.003633499,0.017017365,0,
00:00.4,0.000772476,0.003622055,0.017017365,0,
00:00.4,0.000772476,0.003627777,0.017017365,0,
00:00.4,0.000772476,0.003644943,0.017023087,0,
00:00.4,0.000772476,0.003639221,0.017023087,0,
00:00.4,0.000772476,0.003616333,0.017017365,0,
00:00.4,0.000772476,0.003616333,0.017023087,0,
00:00.5,0.000778198,0.003644943,0.017023087,0,
00:00.5,0.000778198,0.003656387,0.017028809,0,
00:00.5,0.000778198,0.003639221,0.017028809,0,
00:00.5,0.000778198,0.003622055,0.017028809,0,
00:00.5,0.000778198,0.003627777,0.017034531,0,
00:00.5,0.000778198,0.003633499,0.017034531,0,
00:00.5,0.000778198,0.003644943,0.017034531,0,
00:00.5,0.000778198,0.003633499,0.017034531,0,
00:00.5,0.00078392,0.003627777,0.017040253,0,
00:00.5,0.00078392,0.003633499,0.017040253,0,
00:00.5,0.00078392,0.003639221,0.017040253,0,
00:00.5,0.000778198,0.003639221,0.017040253,0,
00:00.5,0.000778198,0.003627777,0.017045975,0,
00:00.5,0.00078392,0.003622055,0.017045975,0,
00:00.5,0.00078392,0.003622055,0.017045975,0,
00:00.5,0.00078392,0.003639221,0.017045975,0,
00:00.5,0.00078392,0.003650665,0.017045975,0,
00:00.5,0.00078392,0.003639221,0.017045975,0,
00:00.5,0.00078392,0.003627777,0.017051697,0,
00:00.5,0.000789642,0.003622055,0.017051697,0,
00:00.5,0.000789642,0.003627777,0.017051697,0,
00:00.5,0.000789642,0.003639221,0.017057419,0,
00:00.5,0.000789642,0.003633499,0.017051697,0,
00:00.5,0.000789642,0.003622055,0.017057419,0,
00:00.5,0.000789642,0.003616333,0.017057419,0,
00:00.6,0.000789642,0.003627777,0.017063141,0,
00:00.6,0.000789642,0.003644943,0.017063141,0,
00:00.6,0.000789642,0.003639221,0.017063141,0,
00:00.6,0.000795364,0.003627777,0.017063141,0,
00:00.6,0.000795364,0.003622055,0.017068863,0,
00:00.6,0.000795364,0.003627777,0.017068863,0,
00:00.6,0.000795364,0.003633499,0.017068863,0,
00:00.6,0.000795364,0.003633499,0.017068863,0,
00:00.6,0.000795364,0.003622055,0.017068863,0,
00:00.6,0.000795364,0.003610611,0.017074585,0,
00:00.6,0.000789642,0.003622055,0.017080307,0,
00:00.6,0.000789642,0.003627777,0.017080307,0,
00:00.6,0.000795364,0.003633499,0.017080307,0,
00:00.6,0.000795364,0.003627777,0.017080307,0,
00:00.6,0.000795364,0.003616333,0.017080307,0,
00:00.6,0.000795364,0.003627777,0.017080307,0,
00:00.6,0.000795364,0.003633499,0.017086029,0,
00:00.6,0.000795364,0.003627777,0.017086029,0,
00:00.6,0.000795364,0.003616333,0.017080307,0,
00:00.6,0.000795364,0.003610611,0.017086029,0,
00:00.6,0.000795364,0.003622055,0.017086029,0,
00:00.6,0.000795364,0.003622055,0.017091751,0,
00:00.6,0.000795364,0.003627777,0.017091751,0,
00:00.6,0.000801086,0.003627777,0.017091751,0,
00:00.6,0.000801086,0.003622055,0.017091751,0,
00:00.7,0.000801086,0.003633499,0.017097473,0,
00:00.7,0.000801086,0.003639221,0.017097473,0,
00:00.7,0.000801086,0.003633499,0.017097473,0,
00:00.7,0.000801086,0.003616333,0.017097473,0,
00:00.7,0.000801086,0.003610611,0.017103195,0,
00:00.7,0.000801086,0.003622055,0.017103195,0,
00:00.7,0.000801086,0.003644943,0.017103195,0,
00:00.7,0.000801086,0.003639221,0.017103195,0,
00:00.7,0.000801086,0.003622055,0.017103195,0,
00:00.7,0.000801086,0.003616333,0.017108917,0,
00:00.7,0.000801086,0.003627777,0.017108917,0,
00:00.7,0.000795364,0.003639221,0.017108917,0,
00:00.7,0.000795364,0.003627777,0.017108917,0,
00:00.7,0.000801086,0.003616333,0.017108917,0,
00:00.7,0.000801086,0.003616333,0.017114639,0,
00:00.7,0.000801086,0.003627777,0.017114639,0,
00:00.7,0.000801086,0.003639221,0.017114639,0,
00:00.7,0.000801086,0.003627777,0.017114639,0,
00:00.7,0.000801086,0.003616333,0.017120361,0,
00:00.7,0.000801086,0.003616333,0.017120361,0,
00:00.7,0.000801086,0.003627777,0.017120361,0,
00:00.7,0.000801086,0.003633499,0.017120361,0,
00:00.7,0.000801086,0.003627777,0.017120361,0,
00:00.7,0.000801086,0.003616333,0.017126083,0,
00:00.7,0.000801086,0.003616333,0.017126083,0,
00:00.8,0.000801086,0.003616333,0.017126083,0,
00:00.8,0.000801086,0.003627777,0.017126083,0,
00:00.8,0.000801086,0.003633499,0.017126083,0,
00:00.8,0.000801086,0.003622055,0.017126083,0,
00:00.8,0.000801086,0.003616333,0.017131805,0,
00:00.8,0.000801086,0.003622055,0.017137527,0,
00:00.8,0.000801086,0.003644943,0.017137527,0,
00:00.8,0.000801086,0.003633499,0.017137527,0,
00:00.8,0.000801086,0.003622055,0.017137527,0,
00:00.8,0.000801086,0.003622055,0.017137527,0,
00:00.8,0.000801086,0.003633499,0.01714325,0,
00:00.8,0.000801086,0.003639221,0.01714325,0,
00:00.8,0.000801086,0.003633499,0.01714325,0,
00:00.8,0.000801086,0.003616333,0.01714325,0,
00:00.8,0.000806808,0.003616333,0.01714325,0,
00:00.8,0.000806808,0.003627777,0.01714325,0,
00:00.8,0.000801086,0.003633499,0.01714325,0,
00:00.8,0.000801086,0.003622055,0.01714325,0,
00:00.8,0.000801086,0.003610611,0.017148972,0,
00:00.8,0.000806808,0.003616333,0.017148972,0,
00:00.8,0.000806808,0.003633499,0.017154694,0,
00:00.8,0.000806808,0.003639221,0.017154694,0,
00:00.8,0.000806808,0.003627777,0.017154694,0,
00:00.8,0.000806808,0.003616333,0.017154694,0,
00:00.8,0.000806808,0.003616333,0.017154694,0,
00:00.9,0.000801086,0.003627777,0.017154694,0,
00:00.9,0.000801086,0.003633499,0.017160416,0,
00:00.9,0.000806808,0.003622055,0.017160416,0,
00:00.9,0.000806808,0.003616333,0.017160416,0,
00:00.9,0.000812531,0.003616333,0.017160416,0,
00:00.9,0.000812531,0.003627777,0.017154694,0,
00:00.9,0.000806808,0.003644943,0.017154694,0,
00:00.9,0.000806808,0.003633499,0.017154694,0,
00:00.9,0.000806808,0.003610611,0.017154694,0,
00:00.9,0.000806808,0.003604889,0.017154694,0,
00:00.9,0.000806808,0.003622055,0.017160416,0,
00:00.9,0.000806808,0.003639221,0.017160416,0,
00:00.9,0.000812531,0.003633499,0.017160416,0,
00:00.9,0.000812531,0.003622055,0.017160416,0,
00:00.9,0.000812531,0.003616333,0.017160416,0,
00:00.9,0.000812531,0.003627777,0.017166138,0,
00:00.9,0.000812531,0.003639221,0.017166138,0,
00:00.9,0.000812531,0.003627777,0.017166138,0,
00:00.9,0.000818253,0.003610611,0.017166138,0,
00:00.9,0.000818253,0.003610611,0.017166138,0,
00:00.9,0.000812531,0.003622055,0.017166138,0,
00:00.9,0.000812531,0.003627777,0.017166138,0,
00:00.9,0.000818253,0.003627777,0.017166138,0,
00:00.9,0.000818253,0.003622055,0.01717186,0,
00:00.9,0.000818253,0.003616333,0.01717186,0,
00:01.0,0.000818253,0.003633499,0.01717186,0,
00:01.0,0.000812531,0.003639221,0.01717186,0,
00:01.0,0.000818253,0.003627777,0.017166138,0,
00:01.0,0.000818253,0.003616333,0.017166138,0,
00:01.0,0.000818253,0.003616333,0.01717186,0,
00:01.0,0.000818253,0.003633499,0.01717186,0,
00:01.0,0.000818253,0.003639221,0.017166138,0,
00:01.0,0.000818253,0.003627777,0.017166138,0,
00:01.0,0.000818253,0.003610611,0.01717186,0,
00:01.0,0.000818253,0.003610611,0.01717186,0,
00:01.0,0.000818253,0.003622055,0.017177582,0,
00:01.0,0.000818253,0.003639221,0.017177582,0,
00:00:01,0.000818253,0.003627777,0.01717186,0,
00:01.0,0.000818253,0.003622055,0.017177582,0,
00:01.0,0.000818253,0.003616333,0.017177582,0,
00:01.0,0.000818253,0.003622055,0.017177582,0,
00:01.0,0.000823975,0.003633499,0.01717186,0,
00:01.0,0.000823975,0.003627777,0.01717186,0,
00:01.0,0.000823975,0.003616333,0.01717186,0,
00:01.0,0.000823975,0.003622055,0.017177582,0,
00:01.0,0.000823975,0.003633499,0.017177582,0,
00:01.0,0.000823975,0.003639221,0.017177582,0,
00:01.0,0.000823975,0.003622055,0.017177582,0,
00:01.0,0.000818253,0.003610611,0.017177582,0,
00:01.0,0.000823975,0.003610611,0.017177582,0,
00:01.1,0.000823975,0.003627777,0.017177582,0,
00:01.1,0.000818253,0.003633499,0.017183304,0,
00:01.1,0.000818253,0.003633499,0.017177582,0,
00:01.1,0.000823975,0.003622055,0.017183304,0,
00:01.1,0.000823975,0.003622055,0.017183304,0,
00:01.1,0.000823975,0.003633499,0.017183304,0,
00:01.1,0.000823975,0.003644943,0.017183304,0,
00:01.1,0.000818253,0.003622055,0.017183304,0,
00:01.1,0.000823975,0.003610611,0.017183304,0,
00:01.1,0.000823975,0.003616333,0.017183304,0,
00:01.1,0.000823975,0.003627777,0.017189026,0,
00:01.1,0.000823975,0.003639221,0.017189026,0,
00:01.1,0.000823975,0.003633499,0.017189026,0,
00:01.1,0.000829697,0.003627777,0.017189026,0,
00:01.1,0.000829697,0.003622055,0.017189026,0,
00:01.1,0.000829697,0.003633499,0.017189026,0,
00:01.1,0.000823975,0.003639221,0.017189026,0,
00:01.1,0.000823975,0.003633499,0.017189026,0,
00:01.1,0.000829697,0.003627777,0.017189026,0,
00:01.1,0.000829697,0.003627777,0.017189026,0,
00:01.1,0.000829697,0.003639221,0.017189026,0,
00:01.1,0.000823975,0.003639221,0.017194748,0,
00:01.1,0.000829697,0.003627777,0.017194748,0,
00:01.1,0.000829697,0.003610611,0.017194748,0,
00:01.1,0.000829697,0.003610611,0.017194748,0,
00:01.2,0.000829697,0.003639221,0.017194748,0,
00:01.2,0.000829697,0.003650665,0.017194748,0,
00:01.2,0.000829697,0.003627777,0.017194748,0,
00:01.2,0.000829697,0.003627777,0.017194748,0,
00:01.2,0.000829697,0.003633499,0.017194748,0,
00:01.2,0.000829697,0.003639221,0.017194748,0,
00:01.2,0.000829697,0.003644943,0.017194748,0,
00:01.2,0.000829697,0.003639221,0.017194748,0,
00:01.2,0.000829697,0.003627777,0.017194748,0,
00:01.2,0.000835419,0.003627777,0.017194748,0,
00:01.2,0.000835419,0.003633499,0.017194748,0,
00:01.2,0.000829697,0.003639221,0.017194748,0,
00:01.2,0.000835419,0.003639221,0.017194748,0,
00:01.2,0.000835419,0.003627777,0.01720047,0,
00:01.2,0.000835419,0.003622055,0.01720047,0,
00:01.2,0.000835419,0.003644943,0.01720047,0,
00:01.2,0.000835419,0.003644943,0.01720047,0,
00:01.2,0.000835419,0.003633499,0.017194748,0,
00:01.2,0.000835419,0.003622055,0.017194748,0,
00:01.2,0.000835419,0.003622055,0.01720047,0,
00:01.2,0.000835419,0.003633499,0.01720047,0,
00:01.2,0.000835419,0.003633499,0.01720047,0,
00:01.2,0.000835419,0.003627777,0.01720047,0,
00:01.2,0.000835419,0.003622055,0.01720047,0,
00:01.2,0.000835419,0.003627777,0.017206192,0,
00:01.3,0.000841141,0.003633499,0.017206192,0,
00:01.3,0.000841141,0.003644943,0.017206192,0,
00:01.3,0.000841141,0.003633499,0.01720047,0,
00:01.3,0.000841141,0.003616333,0.01720047,0,
00:01.3,0.000841141,0.003616333,0.017206192,0,
00:01.3,0.000841141,0.003633499,0.017206192,0,
00:01.3,0.000835419,0.003639221,0.017206192,0,
00:01.3,0.000835419,0.003622055,0.017206192,0,
00:01.3,0.000841141,0.003616333,0.017206192,0,
00:01.3,0.000841141,0.003622055,0.017206192,0,
00:01.3,0.000841141,0.003627777,0.017211914,0,
00:01.3,0.000841141,0.003639221,0.017211914,0,
00:01.3,0.000841141,0.003627777,0.017211914,0,
00:01.3,0.000841141,0.003616333,0.017206192,0,
00:01.3,0.000841141,0.003616333,0.017211914,0,
00:01.3,0.000841141,0.003627777,0.017211914,0,
00:01.3,0.000841141,0.003633499,0.017211914,0,
00:01.3,0.000841141,0.003627777,0.017211914,0,
00:01.3,0.000841141,0.003610611,0.017211914,0,
00:01.3,0.000841141,0.003616333,0.017206192,0,
00:01.3,0.000841141,0.003633499,0.017206192,0,
00:01.3,0.000841141,0.003627777,0.017206192,0,
00:01.3,0.000835419,0.003622055,0.017206192,0,
00:01.3,0.000841141,0.003622055,0.017211914,0,
00:01.3,0.000841141,0.003622055,0.017211914,0,
00:01.4,0.000841141,0.003627777,0.017206192,0,
00:01.4,0.000841141,0.003627777,0.017206192,0,
00:01.4,0.000841141,0.003627777,0.017206192,0,
00:01.4,0.000841141,0.003610611,0.017206192,0,
00:01.4,0.000841141,0.003610611,0.017211914,0,
00:01.4,0.000841141,0.003627777,0.017211914,0,
00:01.4,0.000841141,0.003633499,0.017211914,0,
00:01.4,0.000841141,0.003627777,0.017211914,0,
00:01.4,0.000841141,0.003610611,0.017211914,0,
00:01.4,0.000841141,0.003616333,0.017217636,0,
00:01.4,0.000841141,0.003627777,0.017217636,0,
00:01.4,0.000841141,0.003627777,0.017217636,0,
00:01.4,0.000835419,0.003627777,0.017217636,0,
00:01.4,0.000841141,0.003616333,0.017223358,0,
00:01.4,0.000841141,0.003627777,0.01722908,0,
00:01.4,0.000841141,0.003633499,0.01722908,0,
00:01.4,0.000841141,0.003639221,0.01722908,0,
00:01.4,0.000841141,0.003633499,0.01722908,0,
00:01.4,0.000841141,0.003622055,0.01722908,0,
00:01.4,0.000841141,0.003622055,0.01722908,0,
00:01.4,0.000841141,0.003639221,0.01722908,0,
00:01.4,0.000841141,0.003639221,0.01722908,0,
00:01.4,0.000835419,0.003622055,0.01722908,0,
00:01.4,0.000835419,0.003610611,0.01722908,0,
00:01.4,0.000841141,0.003627777,0.01722908,0,
00:01.5,0.000841141,0.003633499,0.01722908,0,
00:01.5,0.000841141,0.003644943,0.01722908,0,
00:01.5,0.000841141,0.003639221,0.01722908,0,
00:01.5,0.000841141,0.003622055,0.01722908,0,
00:01.5,0.000841141,0.003622055,0.01722908,0,
00:01.5,0.000841141,0.003639221,0.01722908,0,
00:01.5,0.000841141,0.003639221,0.01722908,0,
00:01.5,0.000841141,0.003627777,0.01722908,0,
00:01.5,0.000846863,0.003616333,0.01722908,0,
00:01.5,0.000841141,0.003622055,0.01722908,0,
00:01.5,0.000841141,0.003639221,0.01722908,0,
00:01.5,0.000841141,0.003639221,0.017223358,0,
00:01.5,0.000846863,0.003639221,0.017223358,0,
00:01.5,0.000846863,0.003627777,0.017223358,0,
00:01.5,0.000846863,0.003627777,0.017223358,0,
00:01.5,0.000846863,0.003639221,0.017223358,0,
00:01.5,0.000841141,0.003639221,0.017223358,0,
00:01.5,0.000846863,0.003627777,0.017223358,0,
00:01.5,0.000846863,0.003627777,0.017223358,0,
00:01.5,0.000846863,0.003622055,0.017223358,0,
00:01.5,0.000846863,0.003633499,0.017223358,0,
00:01.5,0.000841141,0.003644943,0.017223358,0,
00:01.5,0.000841141,0.003633499,0.017223358,0,
00:01.5,0.000841141,0.003622055,0.017223358,0,
00:01.5,0.000846863,0.003639221,0.017223358,0,
00:01.6,0.000846863,0.003656387,0.01722908,0,
00:01.6,0.000846863,0.003644943,0.017223358,0,
00:01.6,0.000846863,0.003633499,0.017223358,0,
00:01.6,0.000846863,0.003633499,0.017223358,0,
00:01.6,0.000846863,0.003639221,0.017223358,0,
00:01.6,0.000846863,0.003644943,0.017223358,0,
00:01.6,0.000846863,0.003644943,0.017223358,0,
00:01.6,0.000846863,0.003639221,0.017223358,0,
00:01.6,0.000846863,0.003627777,0.017223358,0,
00:01.6,0.000846863,0.003639221,0.017223358,0,
00:01.6,0.000846863,0.003656387,0.017223358,0,
00:01.6,0.000846863,0.003656387,0.017223358,0,
00:01.6,0.000846863,0.003639221,0.017223358,0,
00:01.6,0.000846863,0.003633499,0.017223358,0,
00:01.6,0.000846863,0.003633499,0.017223358,0,
00:01.6,0.000846863,0.003644943,0.017223358,0,
00:01.6,0.000846863,0.003650665,0.017223358,0,
00:01.6,0.000846863,0.003639221,0.017223358,0,
00:01.6,0.000846863,0.003633499,0.017223358,0,
00:01.6,0.000846863,0.003633499,0.017223358,0,
00:01.6,0.000841141,0.003644943,0.017223358,0,
00:01.6,0.000846863,0.003656387,0.017223358,0,
00:01.6,0.000846863,0.003644943,0.017217636,0,
00:01.6,0.000846863,0.003627777,0.017223358,0,
00:01.6,0.000846863,0.003639221,0.017223358,0,
00:01.7,0.000846863,0.003656387,0.017223358,0,
00:01.7,0.000846863,0.003656387,0.017223358,0,
00:01.7,0.000846863,0.003644943,0.017217636,0,
00:01.7,0.000846863,0.003627777,0.017217636,0,
00:01.7,0.000846863,0.003633499,0.017217636,0,
00:01.7,0.000846863,0.003644943,0.017217636,0,
00:01.7,0.000846863,0.003650665,0.017217636,0,
00:01.7,0.000846863,0.003639221,0.017217636,0,
00:01.7,0.000846863,0.003633499,0.017217636,0,
00:01.7,0.000852585,0.003633499,0.017217636,0,
00:01.7,0.000852585,0.003656387,0.017217636,0,
00:01.7,0.000852585,0.003662109,0.017217636,0,
00:01.7,0.000852585,0.003644943,0.017223358,0,
00:01.7,0.000852585,0.003633499,0.017223358,0,
00:01.7,0.000852585,0.003633499,0.017223358,0,
00:01.7,0.000852585,0.003639221,0.017223358,0,
00:01.7,0.000852585,0.003644943,0.017217636,0,
00:01.7,0.000852585,0.003633499,0.017217636,0,
00:01.7,0.000852585,0.003627777,0.017217636,0,
00:01.7,0.000858307,0.003639221,0.017217636,0,
00:01.7,0.000852585,0.003650665,0.017217636,0,
00:01.7,0.000852585,0.003650665,0.017217636,0,
00:01.7,0.000852585,0.003639221,0.017217636,0,
00:01.7,0.000852585,0.003627777,0.017211914,0,
00:01.7,0.000852585,0.003639221,0.017217636,0,
00:01.8,0.000852585,0.003650665,0.017217636,0,
00:01.8,0.000852585,0.003650665,0.017211914,0,
00:01.8,0.000852585,0.003639221,0.017211914,0,
00:01.8,0.000852585,0.003627777,0.017211914,0,
00:01.8,0.000852585,0.003627777,0.017217636,0,
00:01.8,0.000852585,0.003644943,0.017217636,0,
00:01.8,0.000852585,0.003650665,0.017217636,0,
00:01.8,0.000852585,0.003639221,0.017211914,0,
00:01.8,0.000852585,0.003639221,0.017211914,0,
00:01.8,0.000852585,0.003633499,0.017211914,0,
00:01.8,0.000852585,0.003644943,0.017211914,0,
00:01.8,0.000852585,0.003650665,0.017211914,0,
00:01.8,0.000852585,0.003639221,0.017211914,0,
00:01.8,0.000852585,0.003633499,0.017211914,0,
00:01.8,0.000852585,0.003639221,0.017211914,0,
00:01.8,0.000852585,0.003656387,0.017211914,0,
00:01.8,0.000852585,0.003662109,0.017211914,0,
00:01.8,0.000852585,0.003644943,0.017211914,0,
00:01.8,0.000852585,0.003633499,0.017217636,0,
00:01.8,0.000852585,0.003639221,0.017217636,0,
00:01.8,0.000852585,0.003650665,0.017217636,0,
00:01.8,0.000852585,0.003650665,0.017217636,0,
00:01.8,0.000852585,0.003639221,0.017211914,0,
00:01.8,0.000852585,0.003633499,0.017211914,0,
00:01.8,0.000858307,0.003644943,0.017211914,0,
00:01.9,0.000852585,0.003650665,0.017211914,0,
00:01.9,0.000852585,0.003656387,0.017211914,0,
00:01.9,0.000852585,0.003650665,0.017211914,0,
00:01.9,0.000858307,0.003639221,0.017211914,0,
00:01.9,0.000858307,0.003639221,0.017211914,0,
00:01.9,0.000852585,0.003650665,0.017211914,0,
00:01.9,0.000858307,0.003656387,0.017211914,0,
00:01.9,0.000852585,0.003644943,0.017211914,0,
00:01.9,0.000852585,0.003627777,0.017211914,0,
00:01.9,0.000858307,0.003633499,0.017211914,0,
00:01.9,0.000858307,0.003656387,0.017211914,0,
00:01.9,0.000858307,0.003662109,0.017211914,0,
00:01.9,0.000858307,0.003644943,0.017211914,0,
00:01.9,0.000858307,0.003639221,0.017211914,0,
00:01.9,0.000864029,0.003650665,0.017211914,0,
00:01.9,0.000858307,0.003656387,0.017211914,0,
00:01.9,0.000864029,0.003656387,0.017211914,0,
00:01.9,0.000864029,0.003644943,0.017211914,0,
00:01.9,0.000864029,0.003639221,0.017211914,0,
00:01.9,0.000864029,0.003639221,0.017211914,0,
00:01.9,0.000858307,0.003656387,0.017211914,0,
00:01.9,0.000858307,0.003662109,0.017211914,0,
00:01.9,0.000864029,0.003656387,0.017206192,0,
00:01.9,0.000864029,0.003644943,0.017211914,0,
00:01.9,0.000864029,0.003650665,0.017211914,0,
00:02.0,0.000864029,0.003662109,0.017211914,0,
00:02.0,0.000858307,0.003662109,0.017211914,0,
00:02.0,0.000858307,0.003650665,0.017206192,0,
00:02.0,0.000864029,0.003644943,0.017206192,0,
00:02.0,0.000864029,0.003650665,0.017211914,0,
00:02.0,0.000864029,0.003667831,0.017211914,0,
00:02.0,0.000864029,0.003656387,0.017211914,0,
00:02.0,0.000864029,0.003644943,0.017211914,0,
00:02.0,0.000864029,0.003639221,0.017211914,0,
00:02.0,0.000864029,0.003644943,0.017211914,0,
00:02.0,0.000864029,0.003662109,0.017211914,0,
00:02.0,0.000864029,0.003667831,0.017211914,0,
00:00:02,0.000864029,0.003650665,0.017211914,0,
00:02.0,0.000864029,0.003633499,0.017211914,0,
00:02.0,0.000864029,0.003650665,0.017211914,0,
00:02.0,0.000858307,0.003673553,0.017211914,0,
00:02.0,0.000864029,0.003667831,0.017211914,0,
00:02.0,0.000864029,0.003650665,0.017211914,0,
00:02.0,0.000864029,0.003644943,0.017211914,0,
00:02.0,0.000864029,0.003662109,0.017211914,0,
00:02.0,0.000864029,0.003673553,0.017211914,0,
00:02.0,0.000864029,0.003667831,0.017211914,0,
00:02.0,0.000864029,0.003650665,0.017211914,0,
00:02.0,0.000864029,0.003644943,0.017211914,0,
00:02.0,0.000869751,0.003662109,0.017211914,0,
00:02.1,0.000864029,0.003667831,0.017211914,0,
00:02.1,0.000864029,0.003667831,0.017211914,0,
00:02.1,0.000864029,0.003656387,0.017206192,0,
00:02.1,0.000869751,0.003650665,0.017206192,0,
00:02.1,0.000864029,0.003656387,0.017206192,0,
00:02.1,0.000864029,0.003667831,0.017206192,0,
00:02.1,0.000864029,0.003667831,0.01720047,0,
00:02.1,0.000864029,0.003656387,0.01720047,0,
00:02.1,0.000869751,0.003656387,0.017194748,0,
00:02.1,0.000869751,0.003662109,0.017194748,0,
00:02.1,0.000864029,0.003667831,0.017194748,0,
00:02.1,0.000869751,0.003667831,0.017189026,0,
00:02.1,0.000869751,0.003656387,0.017194748,0,
00:02.1,0.000869751,0.003650665,0.017194748,0,
00:02.1,0.000869751,0.003662109,0.017194748,0,
00:02.1,0.000869751,0.003679276,0.017194748,0,
00:02.1,0.000869751,0.003684998,0.017189026,0,
00:02.1,0.000869751,0.003662109,0.017189026,0,
00:02.1,0.000869751,0.003656387,0.017189026,0,
00:02.1,0.000869751,0.003673553,0.017189026,0,
00:02.1,0.000869751,0.003679276,0.017189026,0,
00:02.1,0.000869751,0.003673553,0.017189026,0,
00:02.1,0.000869751,0.003662109,0.017189026,0,
00:02.1,0.000869751,0.003662109,0.017189026,0,
00:02.1,0.000869751,0.003673553,0.017183304,0,
00:02.2,0.000869751,0.003679276,0.017183304,0,
00:02.2,0.000869751,0.003679276,0.017183304,0,
00:02.2,0.000869751,0.003667831,0.017183304,0,
00:02.2,0.000869751,0.003650665,0.017183304,0,
00:02.2,0.000869751,0.003662109,0.017183304,0,
00:02.2,0.000869751,0.003684998,0.017183304,0,
00:02.2,0.000869751,0.003684998,0.017183304,0,
00:02.2,0.000869751,0.003662109,0.017183304,0,
00:02.2,0.000869751,0.003656387,0.017183304,0,
00:02.2,0.000869751,0.003667831,0.017183304,0,
00:02.2,0.000869751,0.003684998,0.017183304,0,
00:02.2,0.000869751,0.003679276,0.017183304,0,
00:02.2,0.000869751,0.003662109,0.017177582,0,
00:02.2,0.000869751,0.003656387,0.017177582,0,
00:02.2,0.000869751,0.003667831,0.017183304,0,
00:02.2,0.000869751,0.003679276,0.017183304,0,
00:02.2,0.000869751,0.003684998,0.017177582,0,
00:02.2,0.000869751,0.003667831,0.017177582,0,
00:02.2,0.000875473,0.003656387,0.017177582,0,
00:02.2,0.000869751,0.003662109,0.017177582,0,
00:02.2,0.000875473,0.003684998,0.017177582,0,
00:02.2,0.000875473,0.003679276,0.017177582,0,
00:02.2,0.000875473,0.003667831,0.017177582,0,
00:02.2,0.000869751,0.003656387,0.017177582,0,
00:02.2,0.000875473,0.003662109,0.017177582,0,
00:02.3,0.000875473,0.003679276,0.017177582,0,
00:02.3,0.000875473,0.003684998,0.017177582,0,
00:02.3,0.000875473,0.003662109,0.01717186,0,
00:02.3,0.000875473,0.003656387,0.01717186,0,
00:02.3,0.000875473,0.003673553,0.01717186,0,
00:02.3,0.000869751,0.00369072,0.017177582,0,
00:02.3,0.000869751,0.00369072,0.017177582,0,
00:02.3,0.000869751,0.003667831,0.01717186,0,
00:02.3,0.000869751,0.003656387,0.017177582,0,
00:02.3,0.000875473,0.003679276,0.017177582,0,
00:02.3,0.000869751,0.003696442,0.017177582,0,
00:02.3,0.000875473,0.003684998,0.017177582,0,
00:02.3,0.000875473,0.003667831,0.017177582,0,
00:02.3,0.000875473,0.003656387,0.017177582,0,
00:02.3,0.000875473,0.003667831,0.017177582,0,
00:02.3,0.000875473,0.00369072,0.017177582,0,
00:02.3,0.000875473,0.00369072,0.017177582,0,
00:02.3,0.000881195,0.003684998,0.01717186,0,
00:02.3,0.000881195,0.003679276,0.017177582,0,
00:02.3,0.000875473,0.003679276,0.017177582,0,
00:02.3,0.000875473,0.00369072,0.017177582,0,
00:02.3,0.000875473,0.00369072,0.01717186,0,
00:02.3,0.000875473,0.003679276,0.01717186,0,
00:02.3,0.000875473,0.003673553,0.01717186,0,
00:02.3,0.000875473,0.003684998,0.01717186,0,
00:02.4,0.000875473,0.00369072,0.01717186,0,
00:02.4,0.000875473,0.00369072,0.01717186,0,
00:02.4,0.000875473,0.003679276,0.01717186,0,
00:02.4,0.000875473,0.003673553,0.01717186,0,
00:02.4,0.000881195,0.00369072,0.01717186,0,
00:02.4,0.000881195,0.003696442,0.01717186,0,
00:02.4,0.000875473,0.00369072,0.01717186,0,
00:02.4,0.000881195,0.003679276,0.01717186,0,
00:02.4,0.000875473,0.003673553,0.01717186,0,
00:02.4,0.000875473,0.003684998,0.01717186,0,
00:02.4,0.000875473,0.003702164,0.01717186,0,
00:02.4,0.000875473,0.00369072,0.017166138,0,
00:02.4,0.000875473,0.003679276,0.017166138,0,
00:02.4,0.000881195,0.003679276,0.017166138,0,
00:02.4,0.000875473,0.00369072,0.017166138,0,
00:02.4,0.000875473,0.003696442,0.017166138,0,
00:02.4,0.000875473,0.003696442,0.017166138,0,
00:02.4,0.000881195,0.00369072,0.017166138,0,
00:02.4,0.000881195,0.003679276,0.017166138,0,
00:02.4,0.000875473,0.00369072,0.017166138,0,
00:02.4,0.000875473,0.003696442,0.017166138,0,
00:02.4,0.000875473,0.003696442,0.017166138,0,
00:02.4,0.000875473,0.003684998,0.017160416,0,
00:02.4,0.000881195,0.003679276,0.017160416,0,
00:02.4,0.000875473,0.003684998,0.017160416,0,
00:02.5,0.000881195,0.003707886,0.017160416,0,
00:02.5,0.000875473,0.003702164,0.017160416,0,
00:02.5,0.000875473,0.003684998,0.017160416,0,
00:02.5,0.000875473,0.003673553,0.017160416,0,
00:02.5,0.000875473,0.003696442,0.017160416,0,
00:02.5,0.000875473,0.003713608,0.017160416,0,
00:02.5,0.000875473,0.003702164,0.017160416,0,
00:02.5,0.000875473,0.00369072,0.017154694,0,
00:02.5,0.000881195,0.00369072,0.017160416,0,
00:02.5,0.000881195,0.003702164,0.017160416,0,
00:02.5,0.000875473,0.003707886,0.017160416,0,
00:02.5,0.000875473,0.003702164,0.017160416,0,
00:02.5,0.000875473,0.00369072,0.017160416,0,
00:02.5,0.000881195,0.00369072,0.017160416,0,
00:02.5,0.000881195,0.003702164,0.017160416,0,
00:02.5,0.000881195,0.003713608,0.017160416,0,
00:02.5,0.000881195,0.003713608,0.017160416,0,
00:02.5,0.000875473,0.003696442,0.017154694,0,
00:02.5,0.000875473,0.00369072,0.017154694,0,
00:02.5,0.000875473,0.003696442,0.017160416,0,
00:02.5,0.000875473,0.003713608,0.017154694,0,
00:02.5,0.000881195,0.003707886,0.017154694,0,
00:02.5,0.000881195,0.00369072,0.017154694,0,
00:02.5,0.000881195,0.003684998,0.017154694,0,
00:02.5,0.000881195,0.003702164,0.017154694,0,
00:02.6,0.000881195,0.003713608,0.017154694,0,
00:02.6,0.000881195,0.003713608,0.017148972,0,
00:02.6,0.000881195,0.003702164,0.017148972,0,
00:02.6,0.000881195,0.003696442,0.017154694,0,
00:02.6,0.000881195,0.003702164,0.017154694,0,
00:02.6,0.000881195,0.003713608,0.017154694,0,
00:02.6,0.000881195,0.003713608,0.017154694,0,
00:02.6,0.000886917,0.003696442,0.017154694,0,
00:02.6,0.000881195,0.003696442,0.017154694,0,
00:02.6,0.000881195,0.003707886,0.017154694,0,
00:02.6,0.000881195,0.003713608,0.017154694,0,
00:02.6,0.000881195,0.003702164,0.017154694,0,
00:02.6,0.000886917,0.003707886,0.017148972,0,
00:02.6,0.000886917,0.003707886,0.017148972,0,
00:02.6,0.000886917,0.003713608,0.017148972,0,
00:02.6,0.000886917,0.00371933,0.017148972,0,
00:02.6,0.000881195,0.003707886,0.017148972,0,
00:02.6,0.000886917,0.003702164,0.017148972,0,
00:02.6,0.000881195,0.003696442,0.017154694,0,
00:02.6,0.000881195,0.003707886,0.017154694,0,
00:02.6,0.000881195,0.003730774,0.017154694,0,
00:02.6,0.000881195,0.003725052,0.017148972,0,
00:02.6,0.000881195,0.003707886,0.017148972,0,
00:02.6,0.000881195,0.003702164,0.017148972,0,
00:02.6,0.000881195,0.003713608,0.017148972,0,
00:02.7,0.000881195,0.003730774,0.017154694,0,
00:02.7,0.000881195,0.003725052,0.017154694,0,
00:02.7,0.000881195,0.003707886,0.017148972,0,
00:02.7,0.000881195,0.003702164,0.017148972,0,
00:02.7,0.000881195,0.00371933,0.017154694,0,
00:02.7,0.000881195,0.003730774,0.017154694,0,
00:02.7,0.000881195,0.003725052,0.017148972,0,
00:02.7,0.000881195,0.003713608,0.017148972,0,
00:02.7,0.000881195,0.003713608,0.017148972,0,
00:02.7,0.000881195,0.00371933,0.017148972,0,
00:02.7,0.000881195,0.003730774,0.017148972,0,
00:02.7,0.000881195,0.003725052,0.017148972,0,
00:02.7,0.000881195,0.003713608,0.017148972,0,
00:02.7,0.000881195,0.003707886,0.017148972,0,
00:02.7,0.000881195,0.00371933,0.017154694,0,
00:02.7,0.000881195,0.003730774,0.017148972,0,
00:02.7,0.000881195,0.00371933,0.017148972,0,
00:02.7,0.000881195,0.003707886,0.017148972,0,
00:02.7,0.000886917,0.00371933,0.017148972,0,
00:02.7,0.000881195,0.003725052,0.017148972,0,
00:02.7,0.000881195,0.003742218,0.017148972,0,
00:02.7,0.000881195,0.003730774,0.017148972,0,
00:02.7,0.000881195,0.00371933,0.017148972,0,
00:02.7,0.000881195,0.003725052,0.017154694,0,
00:02.7,0.000881195,0.003730774,0.017154694,0,
00:02.8,0.000881195,0.003736496,0.017154694,0,
00:02.8,0.000881195,0.00371933,0.017148972,0,
00:02.8,0.000881195,0.003713608,0.017154694,0,
00:02.8,0.000881195,0.003725052,0.017154694,0,
00:02.8,0.000881195,0.003736496,0.017154694,0,
00:02.8,0.000881195,0.003736496,0.017154694,0,
00:02.8,0.000881195,0.003730774,0.017154694,0,
00:02.8,0.000875473,0.00371933,0.017154694,0,
00:02.8,0.000875473,0.00371933,0.017154694,0,
00:02.8,0.000881195,0.003730774,0.017154694,0,
00:02.8,0.000875473,0.003742218,0.017154694,0,
00:02.8,0.000881195,0.003736496,0.017154694,0,
00:02.8,0.000881195,0.003725052,0.017154694,0,
00:02.8,0.000881195,0.003730774,0.017160416,0,
00:02.8,0.000881195,0.003742218,0.017160416,0,
00:02.8,0.000881195,0.003742218,0.017160416,0,
00:02.8,0.000881195,0.003730774,0.017154694,0,
00:02.8,0.000881195,0.003713608,0.017154694,0,
00:02.8,0.000881195,0.00371933,0.017154694,0,
00:02.8,0.000881195,0.003742218,0.017160416,0,
00:02.8,0.000881195,0.003759384,0.017160416,0,
00:02.8,0.000881195,0.003742218,0.017160416,0,
00:02.8,0.000881195,0.003725052,0.017160416,0,
00:02.8,0.000881195,0.00371933,0.017160416,0,
00:02.8,0.000881195,0.003736496,0.017160416,0,
00:02.9,0.000881195,0.003742218,0.017160416,0,
00:02.9,0.000881195,0.003736496,0.017160416,0,
00:02.9,0.000881195,0.003730774,0.017160416,0,
00:02.9,0.000881195,0.003730774,0.017160416,0,
00:02.9,0.000881195,0.00374794,0.017160416,0,
00:02.9,0.000881195,0.003759384,0.017160416,0,
00:02.9,0.000881195,0.00374794,0.017160416,0,
00:02.9,0.000881195,0.003736496,0.017160416,0,
00:02.9,0.000881195,0.003742218,0.017166138,0,
00:02.9,0.000881195,0.00374794,0.017166138,0,
00:02.9,0.000881195,0.003759384,0.017166138,0,
00:02.9,0.000881195,0.00374794,0.017160416,0,
00:02.9,0.000881195,0.003742218,0.017160416,0,
00:02.9,0.000881195,0.003742218,0.017160416,0,
00:02.9,0.000886917,0.003753662,0.017160416,0,
00:02.9,0.000881195,0.003759384,0.017166138,0,
00:02.9,0.000881195,0.00374794,0.017166138,0,
00:02.9,0.000886917,0.003736496,0.017166138,0,
00:02.9,0.000886917,0.003730774,0.017166138,0,
00:02.9,0.000881195,0.00374794,0.017166138,0,
00:02.9,0.000881195,0.003770828,0.017166138,0,
00:02.9,0.000886917,0.003759384,0.017166138,0,
00:02.9,0.000881195,0.003736496,0.017166138,0,
00:02.9,0.000881195,0.003742218,0.01717186,0,
00:02.9,0.000881195,0.003759384,0.01717186,0,
00:03.0,0.000881195,0.003765106,0.01717186,0,
00:03.0,0.000881195,0.003753662,0.01717186,0,
00:03.0,0.000881195,0.003736496,0.017166138,0,
00:03.0,0.000881195,0.003742218,0.01717186,0,
00:03.0,0.000881195,0.003759384,0.01717186,0,
00:03.0,0.000881195,0.003765106,0.01717186,0,
00:03.0,0.000881195,0.003759384,0.01717186,0,
00:03.0,0.000881195,0.00374794,0.01717186,0,
00:03.0,0.000881195,0.003742218,0.01717186,0,
00:03.0,0.000881195,0.003753662,0.017177582,0,
00:03.0,0.000875473,0.003759384,0.017177582,0,
00:03.0,0.000875473,0.003753662,0.017177582,0,
00:00:03,0.000881195,0.003742218,0.017177582,0,
00:03.0,0.000881195,0.003753662,0.017177582,0,
00:03.0,0.000881195,0.003765106,0.017177582,0,
00:03.0,0.000881195,0.003765106,0.017177582,0,
00:03.0,0.000881195,0.003753662,0.017177582,0,
00:03.0,0.000881195,0.00374794,0.017177582,0,
00:03.0,0.000881195,0.00374794,0.017183304,0,
00:03.0,0.000881195,0.003753662,0.017183304,0,
00:03.0,0.000881195,0.003753662,0.017183304,0,
00:03.0,0.000881195,0.003753662,0.017177582,0,
00:03.0,0.000886917,0.003753662,0.017177582,0,
00:03.0,0.000881195,0.003753662,0.017177582,0,
00:03.0,0.000881195,0.003759384,0.017183304,0,
00:03.1,0.000881195,0.003765106,0.017183304,0,
00:03.1,0.000881195,0.003765106,0.017183304,0,
00:03.1,0.000881195,0.00374794,0.017189026,0,
00:03.1,0.000881195,0.00374794,0.017189026,0,
00:03.1,0.000881195,0.003765106,0.017189026,0,
00:03.1,0.000881195,0.003770828,0.017189026,0,
00:03.1,0.000881195,0.003765106,0.017189026,0,
00:03.1,0.000881195,0.003753662,0.017189026,0,
00:03.1,0.000881195,0.00374794,0.017189026,0,
00:03.1,0.000881195,0.003765106,0.017189026,0,
00:03.1,0.000881195,0.00377655,0.017189026,0,
00:03.1,0.000881195,0.003759384,0.017189026,0,
00:03.1,0.000881195,0.003753662,0.017194748,0,
00:03.1,0.000881195,0.003753662,0.017194748,0,
00:03.1,0.000881195,0.003765106,0.017194748,0,
00:03.1,0.000881195,0.003770828,0.017194748,0,
00:03.1,0.000881195,0.003765106,0.017194748,0,
00:03.1,0.000881195,0.00374794,0.017194748,0,
00:03.1,0.000886917,0.003753662,0.017194748,0,
00:03.1,0.000881195,0.00377655,0.017194748,0,
00:03.1,0.000881195,0.00377655,0.017194748,0,
00:03.1,0.000881195,0.003770828,0.017194748,0,
00:03.1,0.000881195,0.00374794,0.017194748,0,
00:03.1,0.000881195,0.003759384,0.01720047,0,
00:03.1,0.000886917,0.003782272,0.01720047,0,
00:03.2,0.000881195,0.00377655,0.01720047,0,
00:03.2,0.000881195,0.003765106,0.01720047,0,
00:03.2,0.000881195,0.003765106,0.01720047,0,
00:03.2,0.000886917,0.003765106,0.01720047,0,
00:03.2,0.000881195,0.003770828,0.01720047,0,
00:03.2,0.000881195,0.00377655,0.01720047,0,
00:03.2,0.000881195,0.003765106,0.01720047,0,
00:03.2,0.000881195,0.003753662,0.017206192,0,
00:03.2,0.000881195,0.003759384,0.017206192,0,
00:03.2,0.000881195,0.003770828,0.017206192,0,
00:03.2,0.000881195,0.00377655,0.017206192,0,
00:03.2,0.000881195,0.003765106,0.017206192,0,
00:03.2,0.000881195,0.00374794,0.017206192,0,
00:03.2,0.000881195,0.00374794,0.017206192,0,
00:03.2,0.000881195,0.003770828,0.017211914,0,
00:03.2,0.000881195,0.003782272,0.017211914,0,
00:03.2,0.000881195,0.003765106,0.017206192,0,
00:03.2,0.000881195,0.003753662,0.017211914,0,
00:03.2,0.000881195,0.00374794,0.017211914,0,
00:03.2,0.000881195,0.003753662,0.017211914,0,
00:03.2,0.000881195,0.003770828,0.017211914,0,
00:03.2,0.000881195,0.003770828,0.017211914,0,
00:03.2,0.000881195,0.003765106,0.017211914,0,
00:03.2,0.000881195,0.003765106,0.017217636,0,
00:03.2,0.000881195,0.00377655,0.017217636,0,
00:03.3,0.000875473,0.00377655,0.017217636,0,
00:03.3,0.000875473,0.003765106,0.017217636,0,
00:03.3,0.000875473,0.003753662,0.017217636,0,
00:03.3,0.000875473,0.003759384,0.017223358,0,
00:03.3,0.000881195,0.00377655,0.017223358,0,
00:03.3,0.000875473,0.003782272,0.017223358,0,
00:03.3,0.000875473,0.003770828,0.01722908,0,
00:03.3,0.000881195,0.003765106,0.01722908,0,
00:03.3,0.000875473,0.003759384,0.01722908,0,
00:03.3,0.000875473,0.00377655,0.01722908,0,
00:03.3,0.000875473,0.003770828,0.01722908,0,
00:03.3,0.000881195,0.003759384,0.01722908,0,
00:03.3,0.000881195,0.003759384,0.01722908,0,
00:03.3,0.000875473,0.003770828,0.01722908,0,
00:03.3,0.000881195,0.003782272,0.01722908,0,
00:03.3,0.000875473,0.00377655,0.01722908,0,
00:03.3,0.000875473,0.003765106,0.01722908,0,
00:03.3,0.000875473,0.003759384,0.017234802,0,
00:03.3,0.000875473,0.003770828,0.017234802,0,
00:03.3,0.000875473,0.003782272,0.017240524,0,
00:03.3,0.000875473,0.00377655,0.017240524,0,
00:03.3,0.000881195,0.00377655,0.017240524,0,
00:03.3,0.000875473,0.003770828,0.017240524,0,
00:03.3,0.000875473,0.00377655,0.017240524,0,
00:03.3,0.000875473,0.003787994,0.017240524,0,
00:03.4,0.000875473,0.003782272,0.017240524,0,
00:03.4,0.000875473,0.003770828,0.017240524,0,
00:03.4,0.000875473,0.003765106,0.017246246,0,
00:03.4,0.000875473,0.003770828,0.017246246,0,
00:03.4,0.000875473,0.003793716,0.017246246,0,
00:03.4,0.000869751,0.003793716,0.017246246,0,
00:03.4,0.000869751,0.00377655,0.017246246,0,
00:03.4,0.000875473,0.003765106,0.017251968,0,
00:03.4,0.000875473,0.003770828,0.017251968,0,
00:03.4,0.000869751,0.003782272,0.01725769,0,
00:03.4,0.000875473,0.003787994,0.01725769,0,
00:03.4,0.000875473,0.003770828,0.017251968,0,
00:03.4,0.000875473,0.003759384,0.01725769,0,
00:03.4,0.000875473,0.003770828,0.01725769,0,
00:03.4,0.000875473,0.003787994,0.017263412,0,
00:03.4,0.000875473,0.003793716,0.017263412,0,
00:03.4,0.000875473,0.00377655,0.017263412,0,
00:03.4,0.000875473,0.003765106,0.017263412,0,
00:03.4,0.000875473,0.003765106,0.017263412,0,
00:03.4,0.000875473,0.00377655,0.017263412,0,
00:03.4,0.000881195,0.003787994,0.017263412,0,
00:03.4,0.000875473,0.003782272,0.017263412,0,
00:03.4,0.000875473,0.003765106,0.017263412,0,
00:03.4,0.000875473,0.003759384,0.017269135,0,
00:03.4,0.000875473,0.00377655,0.017269135,0,
00:03.5,0.000875473,0.003787994,0.017269135,0,
00:03.5,0.000875473,0.00377655,0.017269135,0,
00:03.5,0.000875473,0.003759384,0.017274857,0,
00:03.5,0.000875473,0.003770828,0.017274857,0,
00:03.5,0.000875473,0.003793716,0.017274857,0,
00:03.5,0.000875473,0.003793716,0.017274857,0,
00:03.5,0.000875473,0.003782272,0.017274857,0,
00:03.5,0.000875473,0.003765106,0.017274857,0,
00:03.5,0.000875473,0.003770828,0.017280579,0,
00:03.5,0.000875473,0.003793716,0.017280579,0,
00:03.5,0.000875473,0.003793716,0.017280579,0,
00:03.5,0.000875473,0.00377655,0.017280579,0,
00:03.5,0.000875473,0.003765106,0.017280579,0,
00:03.5,0.000869751,0.00377655,0.017286301,0,
00:03.5,0.000869751,0.003787994,0.017286301,0,
00:03.5,0.000869751,0.003787994,0.017286301,0,
00:03.5,0.000869751,0.003770828,0.017286301,0,
00:03.5,0.000869751,0.003765106,0.017286301,0,
00:03.5,0.000869751,0.00377655,0.017292023,0,
00:03.5,0.000875473,0.003793716,0.017292023,0,
00:03.5,0.000869751,0.003782272,0.017292023,0,
00:03.5,0.000869751,0.00377655,0.017292023,0,
00:03.5,0.000875473,0.00377655,0.017292023,0,
00:03.5,0.000875473,0.003782272,0.017297745,0,
00:03.5,0.000875473,0.003787994,0.017297745,0,
00:03.6,0.000875473,0.003787994,0.017297745,0,
00:03.6,0.000875473,0.00377655,0.017292023,0,
00:03.6,0.000875473,0.003765106,0.017297745,0,
00:03.6,0.000875473,0.00377655,0.017297745,0,
00:03.6,0.000869751,0.003787994,0.017303467,0,
00:03.6,0.000869751,0.003787994,0.017303467,0,
00:03.6,0.000869751,0.003787994,0.017303467,0,
00:03.6,0.000875473,0.00377655,0.017303467,0,
00:03.6,0.000869751,0.00377655,0.017303467,0,
00:03.6,0.000869751,0.003793716,0.017303467,0,
00:03.6,0.000875473,0.003805161,0.017303467,0,
00:03.6,0.000875473,0.003787994,0.017303467,0,
00:03.6,0.000869751,0.003770828,0.017303467,0,
00:03.6,0.000869751,0.003782272,0.017309189,0,
00:03.6,0.000869751,0.003799438,0.017309189,0,
00:03.6,0.000869751,0.003787994,0.017309189,0,
00:03.6,0.000869751,0.00377655,0.017309189,0,
00:03.6,0.000869751,0.003782272,0.017309189,0,
00:03.6,0.000869751,0.003782272,0.017314911,0,
00:03.6,0.000869751,0.003787994,0.017314911,0,
00:03.6,0.000869751,0.003793716,0.017314911,0,
00:03.6,0.000869751,0.003787994,0.017314911,0,
00:03.6,0.000864029,0.00377655,0.017314911,0,
00:03.6,0.000864029,0.003782272,0.017320633,0,
00:03.6,0.000864029,0.003787994,0.017320633,0,
00:03.7,0.000864029,0.003787994,0.017320633,0,
00:03.7,0.000864029,0.003787994,0.017320633,0,
00:03.7,0.000864029,0.003782272,0.017326355,0,
00:03.7,0.000864029,0.003782272,0.017326355,0,
00:03.7,0.000864029,0.003793716,0.017326355,0,
00:03.7,0.000864029,0.003793716,0.017326355,0,
00:03.7,0.000864029,0.003787994,0.017326355,0,
00:03.7,0.000864029,0.00377655,0.017326355,0,
00:03.7,0.000864029,0.00377655,0.017332077,0,
00:03.7,0.000864029,0.003793716,0.017332077,0,
00:03.7,0.000864029,0.003799438,0.017332077,0,
00:03.7,0.000864029,0.003787994,0.017332077,0,
00:03.7,0.000864029,0.00377655,0.017337799,0,
00:03.7,0.000864029,0.00377655,0.017337799,0,
00:03.7,0.000864029,0.003793716,0.017343521,0,
00:03.7,0.000864029,0.003793716,0.017343521,0,
00:03.7,0.000864029,0.00377655,0.017343521,0,
00:03.7,0.000864029,0.00377655,0.017343521,0,
00:03.7,0.000864029,0.003782272,0.017343521,0,
00:03.7,0.000864029,0.003805161,0.017343521,0,
00:03.7,0.000864029,0.003793716,0.017343521,0,
00:03.7,0.000864029,0.00377655,0.017343521,0,
00:03.7,0.000864029,0.003770828,0.017343521,0,
00:03.7,0.000869751,0.003793716,0.017349243,0,
00:03.7,0.000869751,0.003805161,0.017349243,0,
00:03.8,0.000864029,0.003793716,0.017349243,0,
00:03.8,0.000864029,0.00377655,0.017354965,0,
00:03.8,0.000864029,0.00377655,0.017354965,0,
00:03.8,0.000864029,0.003782272,0.017354965,0,
00:03.8,0.000858307,0.003787994,0.017354965,0,
00:03.8,0.000858307,0.003799438,0.017354965,0,
00:03.8,0.000858307,0.003782272,0.017354965,0,
00:03.8,0.000858307,0.003770828,0.017354965,0,
00:03.8,0.000864029,0.00377655,0.017360687,0,
00:03.8,0.000864029,0.003793716,0.017360687,0,
00:03.8,0.000864029,0.003793716,0.017360687,0,
00:03.8,0.000858307,0.00377655,0.017360687,0,
00:03.8,0.000864029,0.003765106,0.017366409,0,
00:03.8,0.000864029,0.00377655,0.017366409,0,
00:03.8,0.000864029,0.003793716,0.017366409,0,
00:03.8,0.000864029,0.003793716,0.017366409,0,
00:03.8,0.000864029,0.003782272,0.017366409,0,
00:03.8,0.000864029,0.003770828,0.017366409,0,
00:03.8,0.000864029,0.00377655,0.017372131,0,
00:03.8,0.000858307,0.003787994,0.017372131,0,
00:03.8,0.000858307,0.003793716,0.017372131,0,
00:03.8,0.000858307,0.00377655,0.017372131,0,
00:03.8,0.000858307,0.00377655,0.017377853,0,
00:03.8,0.000858307,0.003782272,0.017377853,0,
00:03.8,0.000858307,0.003787994,0.017377853,0,
00:03.9,0.000858307,0.003793716,0.017377853,0,
00:03.9,0.000858307,0.003782272,0.017377853,0,
00:03.9,0.000858307,0.003765106,0.017377853,0,
00:03.9,0.000858307,0.003782272,0.017383575,0,
00:03.9,0.000858307,0.003799438,0.017383575,0,
00:03.9,0.000858307,0.003793716,0.017383575,0,
00:03.9,0.000858307,0.003765106,0.017383575,0,
00:03.9,0.000858307,0.00377655,0.017383575,0,
00:03.9,0.000858307,0.003782272,0.017389297,0,
00:03.9,0.000858307,0.003787994,0.017389297,0,
00:03.9,0.000858307,0.003793716,0.017389297,0,
00:03.9,0.000858307,0.00377655,0.017389297,0,
00:03.9,0.000858307,0.003765106,0.017389297,0,
00:03.9,0.000858307,0.00377655,0.01739502,0,
00:03.9,0.000858307,0.003787994,0.01739502,0,
00:03.9,0.000858307,0.003787994,0.01739502,0,
00:03.9,0.000858307,0.00377655,0.01739502,0,
00:03.9,0.000864029,0.003765106,0.01739502,0,
00:03.9,0.000858307,0.00377655,0.01739502,0,
00:03.9,0.000858307,0.003782272,0.017400742,0,
00:03.9,0.000858307,0.003782272,0.017400742,0,
00:03.9,0.000858307,0.003770828,0.017400742,0,
00:03.9,0.000858307,0.003765106,0.017406464,0,
00:03.9,0.000864029,0.00377655,0.017406464,0,
00:03.9,0.000858307,0.003782272,0.017406464,0,
00:04.0,0.000858307,0.003782272,0.017406464,0,
00:04.0,0.000858307,0.003770828,0.017406464,0,
00:04.0,0.000858307,0.003759384,0.017412186,0,
00:04.0,0.000858307,0.003765106,0.017412186,0,
00:04.0,0.000858307,0.003782272,0.017412186,0,
00:04.0,0.000858307,0.00377655,0.017412186,0,
00:04.0,0.000858307,0.003765106,0.017412186,0,
00:04.0,0.000858307,0.00374794,0.017417908,0,
00:04.0,0.000858307,0.003759384,0.017417908,0,
00:04.0,0.000858307,0.00377655,0.017417908,0,
00:04.0,0.000858307,0.003787994,0.017417908,0,
00:04.0,0.000858307,0.00377655,0.017417908,0,
00:00:04,0.000864029,0.003765106,0.017417908,0,
00:04.0,0.000858307,0.003770828,0.01742363,0,
00:04.0,0.000858307,0.00377655,0.01742363,0,
00:04.0,0.000858307,0.00377655,0.01742363,0,
00:04.0,0.000858307,0.003770828,0.01742363,0,
00:04.0,0.000858307,0.003759384,0.017429352,0,
00:04.0,0.000858307,0.003770828,0.017429352,0,
00:04.0,0.000858307,0.003782272,0.017429352,0,
00:04.0,0.000858307,0.003782272,0.017429352,0,
00:04.0,0.000858307,0.003765106,0.017429352,0,
00:04.0,0.000858307,0.003759384,0.017435074,0,
00:04.0,0.000858307,0.003759384,0.017435074,0,
00:04.0,0.000858307,0.00377655,0.017435074,0,
00:04.1,0.000858307,0.003770828,0.017435074,0,
00:04.1,0.000858307,0.003765106,0.017435074,0,
00:04.1,0.000858307,0.003759384,0.017440796,0,
00:04.1,0.000858307,0.003759384,0.017440796,0,
00:04.1,0.000852585,0.003770828,0.017440796,0,
00:04.1,0.000852585,0.00377655,0.017440796,0,
00:04.1,0.000858307,0.003765106,0.017446518,0,
00:04.1,0.000858307,0.003765106,0.017446518,0,
00:04.1,0.000858307,0.003765106,0.01745224,0,
00:04.1,0.000852585,0.00377655,0.01745224,0,
00:04.1,0.000852585,0.003765106,0.01745224,0,
00:04.1,0.000852585,0.003753662,0.01745224,0,
00:04.1,0.000858307,0.003759384,0.01745224,0,
00:04.1,0.000858307,0.003759384,0.017457962,0,
00:04.1,0.000858307,0.00377655,0.017457962,0,
00:04.1,0.000858307,0.003782272,0.017457962,0,
00:04.1,0.000858307,0.003765106,0.017457962,0,
00:04.1,0.000858307,0.003759384,0.017457962,0,
00:04.1,0.000858307,0.003770828,0.017463684,0,
00:04.1,0.000858307,0.00377655,0.017463684,0,
00:04.1,0.000852585,0.003770828,0.017463684,0,
00:04.1,0.000858307,0.003759384,0.017469406,0,
00:04.1,0.000858307,0.003753662,0.017469406,0,
00:04.1,0.000858307,0.003759384,0.017469406,0,
00:04.1,0.000858307,0.003759384,0.017469406,0,
00:04.2,0.000852585,0.003759384,0.017469406,0,
00:04.2,0.000852585,0.003753662,0.017469406,0,
00:04.2,0.000852585,0.00374794,0.017469406,0,
00:04.2,0.000852585,0.003753662,0.017475128,0,
00:04.2,0.000852585,0.003770828,0.017475128,0,
00:04.2,0.000852585,0.003765106,0.017475128,0,
00:04.2,0.000852585,0.00374794,0.017475128,0,
00:04.2,0.000852585,0.003725052,0.017475128,0,
00:04.2,0.000852585,0.003753662,0.01748085,0,
00:04.2,0.000852585,0.00377655,0.01748085,0,
00:04.2,0.000852585,0.003759384,0.01748085,0,
00:04.2,0.000852585,0.003736496,0.01748085,0,
00:04.2,0.000852585,0.00374794,0.01748085,0,
00:04.2,0.000852585,0.003753662,0.017486572,0,
00:04.2,0.000846863,0.003759384,0.017486572,0,
00:04.2,0.000852585,0.003759384,0.017486572,0,
00:04.2,0.000852585,0.003742218,0.017486572,0,
00:04.2,0.000852585,0.003736496,0.017492294,0,
00:04.2,0.000852585,0.003742218,0.017492294,0,
00:04.2,0.000852585,0.003753662,0.017492294,0,
00:04.2,0.000852585,0.00374794,0.017492294,0,
00:04.2,0.000852585,0.003730774,0.017492294,0,
00:04.2,0.000852585,0.003725052,0.017498016,0,
00:04.2,0.000846863,0.003742218,0.017498016,0,
00:04.2,0.000846863,0.003753662,0.017498016,0,
00:04.3,0.000846863,0.00374794,0.017498016,0,
00:04.3,0.000846863,0.003730774,0.017498016,0,
00:04.3,0.000846863,0.003730774,0.017498016,0,
00:04.3,0.000846863,0.003736496,0.017503738,0,
00:04.3,0.000846863,0.00374794,0.017503738,0,
00:04.3,0.000846863,0.00374794,0.017503738,0,
00:04.3,0.000846863,0.003730774,0.017503738,0,
00:04.3,0.000846863,0.003725052,0.017503738,0,
00:04.3,0.000846863,0.003736496,0.017503738,0,
00:04.3,0.000846863,0.003742218,0.017503738,0,
00:04.3,0.000846863,0.003730774,0.017503738,0,
00:04.3,0.000846863,0.00371933,0.017503738,0,
00:04.3,0.000846863,0.003730774,0.01750946,0,
00:04.3,0.000846863,0.003736496,0.01750946,0,
00:04.3,0.000846863,0.003753662,0.01750946,0,
00:04.3,0.000846863,0.003742218,0.01750946,0,
00:04.3,0.000846863,0.003725052,0.017515182,0,
00:04.3,0.000846863,0.003725052,0.017515182,0,
00:04.3,0.000846863,0.003730774,0.017515182,0,
00:04.3,0.000846863,0.003736496,0.017515182,0,
00:04.3,0.000841141,0.003730774,0.017515182,0,
00:04.3,0.000846863,0.00371933,0.017515182,0,
00:04.3,0.000846863,0.003725052,0.017520905,0,
00:04.3,0.000846863,0.003730774,0.017520905,0,
00:04.3,0.000846863,0.003736496,0.017520905,0,
00:04.4,0.000846863,0.00371933,0.017520905,0,
00:04.4,0.000846863,0.003702164,0.017520905,0,
00:04.4,0.000846863,0.003713608,0.017520905,0,
00:04.4,0.000846863,0.003725052,0.017520905,0,
00:04.4,0.000846863,0.003725052,0.017526627,0,
00:04.4,0.000846863,0.00371933,0.017526627,0,
00:04.4,0.000846863,0.003713608,0.017526627,0,
00:04.4,0.000846863,0.003713608,0.017526627,0,
00:04.4,0.000846863,0.003713608,0.017526627,0,
00:04.4,0.000846863,0.003725052,0.017526627,0,
00:04.4,0.000852585,0.003730774,0.017526627,0,
00:04.4,0.000846863,0.003713608,0.017526627,0,
00:04.4,0.000852585,0.003702164,0.017526627,0,
00:04.4,0.000852585,0.003713608,0.017526627,0,
00:04.4,0.000852585,0.00371933,0.017532349,0,
00:04.4,0.000852585,0.00371933,0.017532349,0,
00:04.4,0.000852585,0.003707886,0.017526627,0,
00:04.4,0.000852585,0.003702164,0.017526627,0,
00:04.4,0.000852585,0.003707886,0.017532349,0,
00:04.4,0.000852585,0.00371933,0.017532349,0,
00:04.4,0.000852585,0.003713608,0.017532349,0,
00:04.4,0.000852585,0.003702164,0.017532349,0,
00:04.4,0.000852585,0.003702164,0.017532349,0,
00:04.4,0.000852585,0.003707886,0.017532349,0,
00:04.4,0.000846863,0.003707886,0.017532349,0,
00:04.5,0.000852585,0.003702164,0.017532349,0,
00:04.5,0.000846863,0.00369072,0.017532349,0,
00:04.5,0.000852585,0.00369072,0.017538071,0,
00:04.5,0.000852585,0.003707886,0.017538071,0,
00:04.5,0.000846863,0.003713608,0.017538071,0,
00:04.5,0.000846863,0.003702164,0.017538071,0,
00:04.5,0.000846863,0.003684998,0.017538071,0,
00:04.5,0.000846863,0.00369072,0.017538071,0,
00:04.5,0.000846863,0.003702164,0.017543793,0,
00:04.5,0.000846863,0.003702164,0.017543793,0,
00:04.5,0.000846863,0.00369072,0.017543793,0,
00:04.5,0.000846863,0.003684998,0.017543793,0,
00:04.5,0.000852585,0.003679276,0.017543793,0,
00:04.5,0.000846863,0.003696442,0.017543793,0,
00:04.5,0.000846863,0.003713608,0.017543793,0,
00:04.5,0.000846863,0.003696442,0.017543793,0,
00:04.5,0.000852585,0.003679276,0.017543793,0,
00:04.5,0.000852585,0.00369072,0.017543793,0,
00:04.5,0.000852585,0.003702164,0.017543793,0,
00:04.5,0.000852585,0.003702164,0.017543793,0,
00:04.5,0.000852585,0.003696442,0.017543793,0,
00:04.5,0.000852585,0.003679276,0.017543793,0,
00:04.5,0.000852585,0.003679276,0.017549515,0,
00:04.5,0.000852585,0.00369072,0.017549515,0,
00:04.5,0.000852585,0.003696442,0.017549515,0,
00:04.6,0.000846863,0.00369072,0.017549515,0,
00:04.6,0.000852585,0.003679276,0.017549515,0,
00:04.6,0.000852585,0.003679276,0.017549515,0,
00:04.6,0.000852585,0.00369072,0.017549515,0,
00:04.6,0.000858307,0.003696442,0.017549515,0,
00:04.6,0.000852585,0.00369072,0.017549515,0,
00:04.6,0.000858307,0.003679276,0.017549515,0,
00:04.6,0.000858307,0.003679276,0.017555237,0,
00:04.6,0.000852585,0.00369072,0.017555237,0,
00:04.6,0.000852585,0.003696442,0.017555237,0,
00:04.6,0.000852585,0.003679276,0.017555237,0,
00:04.6,0.000852585,0.003673553,0.017555237,0,
00:04.6,0.000858307,0.003667831,0.017555237,0,
00:04.6,0.000858307,0.003679276,0.017560959,0,
00:04.6,0.000852585,0.003684998,0.017555237,0,
00:04.6,0.000858307,0.003673553,0.017555237,0,
00:04.6,0.000858307,0.003667831,0.017555237,0,
00:04.6,0.000858307,0.003667831,0.017555237,0,
00:04.6,0.000858307,0.003673553,0.017560959,0,
00:04.6,0.000858307,0.003684998,0.017560959,0,
00:04.6,0.000858307,0.003673553,0.017560959,0,
00:04.6,0.000858307,0.003662109,0.017560959,0,
00:04.6,0.000858307,0.003662109,0.017560959,0,
00:04.6,0.000858307,0.003673553,0.017560959,0,
00:04.6,0.000858307,0.003684998,0.017560959,0,
00:04.7,0.000858307,0.003679276,0.017555237,0,
00:04.7,0.000858307,0.003667831,0.017555237,0,
00:04.7,0.000858307,0.003662109,0.017560959,0,
00:04.7,0.000858307,0.003673553,0.017560959,0,
00:04.7,0.000858307,0.00369072,0.017560959,0,
00:04.7,0.000858307,0.003679276,0.017560959,0,
00:04.7,0.000858307,0.003667831,0.017560959,0,
00:04.7,0.000858307,0.003656387,0.017560959,0,
00:04.7,0.000858307,0.003667831,0.017560959,0,
00:04.7,0.000858307,0.003684998,0.017560959,0,
00:04.7,0.000852585,0.003673553,0.017560959,0,
00:04.7,0.000858307,0.003656387,0.017560959,0,
00:04.7,0.000852585,0.003656387,0.017566681,0,
00:04.7,0.000852585,0.003667831,0.017566681,0,
00:04.7,0.000852585,0.003679276,0.017566681,0,
00:04.7,0.000852585,0.003667831,0.017560959,0,
00:04.7,0.000852585,0.003644943,0.017560959,0,
00:04.7,0.000852585,0.003650665,0.017566681,0,
00:04.7,0.000858307,0.003667831,0.017566681,0,
00:04.7,0.000858307,0.003673553,0.017566681,0,
00:04.7,0.000858307,0.003667831,0.017566681,0,
00:04.7,0.000858307,0.003656387,0.017566681,0,
00:04.7,0.000858307,0.003650665,0.017566681,0,
00:04.7,0.000852585,0.003667831,0.017566681,0,
00:04.7,0.000852585,0.003673553,0.017566681,0,
00:04.8,0.000852585,0.003662109,0.017566681,0,
00:04.8,0.000852585,0.003650665,0.017566681,0,
00:04.8,0.000852585,0.003644943,0.017566681,0,
00:04.8,0.000852585,0.003656387,0.017566681,0,
00:04.8,0.000852585,0.003656387,0.017566681,0,
00:04.8,0.000852585,0.003662109,0.017560959,0,
00:04.8,0.000858307,0.003650665,0.017560959,0,
00:04.8,0.000858307,0.003656387,0.017560959,0,
00:04.8,0.000858307,0.003667831,0.017566681,0,
00:04.8,0.000858307,0.003667831,0.017566681,0,
00:04.8,0.000858307,0.003656387,0.017566681,0,
00:04.8,0.000858307,0.003639221,0.017560959,0,
00:04.8,0.000858307,0.003644943,0.017566681,0,
00:04.8,0.000858307,0.003656387,0.017566681,0,
00:04.8,0.000858307,0.003667831,0.017560959,0,
00:04.8,0.000858307,0.003656387,0.017560959,0,
00:04.8,0.000858307,0.003644943,0.017566681,0,
00:04.8,0.000858307,0.003644943,0.017566681,0,
00:04.8,0.000858307,0.003656387,0.017566681,0,
00:04.8,0.000858307,0.003667831,0.017566681,0,
00:04.8,0.000858307,0.003656387,0.017566681,0,
00:04.8,0.000858307,0.003639221,0.017566681,0,
00:04.8,0.000858307,0.003639221,0.017566681,0,
00:04.8,0.000858307,0.003662109,0.017566681,0,
00:04.8,0.000864029,0.003667831,0.017566681,0,
00:04.9,0.000858307,0.003650665,0.017560959,0,
00:04.9,0.000858307,0.003639221,0.017566681,0,
00:04.9,0.000864029,0.003644943,0.017566681,0,
00:04.9,0.000864029,0.003656387,0.017566681,0,
00:04.9,0.000858307,0.003656387,0.017566681,0,
00:04.9,0.000858307,0.003639221,0.017560959,0,
00:04.9,0.000864029,0.003633499,0.017560959,0,
00:04.9,0.000864029,0.003639221,0.017560959,0,
00:04.9,0.000864029,0.003662109,0.017560959,0,
00:04.9,0.000864029,0.003667831,0.017560959,0,
00:04.9,0.000864029,0.003650665,0.017560959,0,
00:04.9,0.000864029,0.003633499,0.017560959,0,
00:04.9,0.000864029,0.003639221,0.017566681,0,
00:04.9,0.000864029,0.003656387,0.017560959,0,
00:04.9,0.000864029,0.003656387,0.017560959,0,
00:04.9,0.000864029,0.003644943,0.017555237,0,
00:04.9,0.000864029,0.003627777,0.017560959,0,
00:04.9,0.000864029,0.003627777,0.017555237,0,
00:04.9,0.000864029,0.003656387,0.017555237,0,
00:04.9,0.000864029,0.003656387,0.017555237,0,
00:04.9,0.000864029,0.003644943,0.017555237,0,
00:04.9,0.000864029,0.003627777,0.017555237,0,
00:04.9,0.000864029,0.003639221,0.017560959,0,
00:04.9,0.000864029,0.003644943,0.017560959,0,
00:04.9,0.000864029,0.003650665,0.017555237,0,
00:05.0,0.000864029,0.003639221,0.017555237,0,
00:05.0,0.000864029,0.003627777,0.017555237,0,
00:05.0,0.000864029,0.003627777,0.017555237,0,
00:05.0,0.000864029,0.003639221,0.017555237,0,
00:05.0,0.000864029,0.003639221,0.017555237,0,
00:05.0,0.000864029,0.003633499,0.017555237,0,
00:05.0,0.000869751,0.003622055,0.017555237,0,
00:05.0,0.000869751,0.003627777,0.017555237,0,
00:05.0,0.000869751,0.003639221,0.017555237,0,
00:05.0,0.000869751,0.003644943,0.017555237,0,
00:05.0,0.000864029,0.003639221,0.017555237,0,
00:05.0,0.000869751,0.003622055,0.017555237,0,
00:00:05,0.000869751,0.003622055,0.017555237,0,
00:05.0,0.000869751,0.003633499,0.017549515,0,
00:05.0,0.000869751,0.003644943,0.017549515,0,
00:05.0,0.000869751,0.003633499,0.017549515,0,
00:05.0,0.000869751,0.003627777,0.017549515,0,
00:05.0,0.000869751,0.003633499,0.017543793,0,
00:05.0,0.000869751,0.003639221,0.017549515,0,
00:05.0,0.000869751,0.003633499,0.017549515,0,
00:05.0,0.000869751,0.003627777,0.017543793,0,
00:05.0,0.000875473,0.003622055,0.017543793,0,
00:05.0,0.000875473,0.003627777,0.017543793,0,
00:05.0,0.000875473,0.003639221,0.017543793,0,
00:05.0,0.000875473,0.003633499,0.017543793,0,
00:05.1,0.000875473,0.003627777,0.017543793,0,
00:05.1,0.000875473,0.003622055,0.017543793,0,
00:05.1,0.000875473,0.003622055,0.017538071,0,
00:05.1,0.000869751,0.003627777,0.017538071,0,
00:05.1,0.000869751,0.003639221,0.017538071,0,
00:05.1,0.000875473,0.003633499,0.017538071,0,
00:05.1,0.000875473,0.003616333,0.017538071,0,
00:05.1,0.000875473,0.003622055,0.017538071,0,
00:05.1,0.000875473,0.003639221,0.017538071,0,
00:05.1,0.000875473,0.003639221,0.017532349,0,
00:05.1,0.000875473,0.003627777,0.017538071,0,
00:05.1,0.000881195,0.003616333,0.017532349,0,
00:05.1,0.000875473,0.003616333,0.017532349,0,
00:05.1,0.000875473,0.003627777,0.017532349,0,
00:05.1,0.000875473,0.003633499,0.017532349,0,
00:05.1,0.000875473,0.003627777,0.017532349,0,
00:05.1,0.000875473,0.003610611,0.017526627,0,
00:05.1,0.000881195,0.003622055,0.017526627,0,
00:05.1,0.000875473,0.003627777,0.017526627,0,
00:05.1,0.000875473,0.003633499,0.017532349,0,
00:05.1,0.000875473,0.003622055,0.017532349,0,
00:05.1,0.000881195,0.003604889,0.017532349,0,
00:05.1,0.000881195,0.003616333,0.017532349,0,
00:05.1,0.000881195,0.003622055,0.017532349,0,
00:05.1,0.000875473,0.003622055,0.017532349,0,
00:05.2,0.000881195,0.003622055,0.017526627,0,
00:05.2,0.000881195,0.003616333,0.017526627,0,
00:05.2,0.000881195,0.003616333,0.017526627,0,
00:05.2,0.000881195,0.003627777,0.017526627,0,
00:05.2,0.000881195,0.003633499,0.017526627,0,
00:05.2,0.000875473,0.003622055,0.017526627,0,
00:05.2,0.000875473,0.003610611,0.017526627,0,
00:05.2,0.000875473,0.003622055,0.017526627,0,
00:05.2,0.000875473,0.003627777,0.017526627,0,
00:05.2,0.000881195,0.003627777,0.017520905,0,
00:05.2,0.000881195,0.003616333,0.017520905,0,
00:05.2,0.000881195,0.003610611,0.017520905,0,
00:05.2,0.000881195,0.003616333,0.017520905,0,
00:05.2,0.000881195,0.003627777,0.017520905,0,
00:05.2,0.000875473,0.003627777,0.017515182,0,
00:05.2,0.000881195,0.003622055,0.017515182,0,
00:05.2,0.000881195,0.003610611,0.017520905,0,
00:05.2,0.000881195,0.003616333,0.017520905,0,
00:05.2,0.000881195,0.003622055,0.017520905,0,
00:05.2,0.000875473,0.003616333,0.017515182,0,
00:05.2,0.000881195,0.003622055,0.017515182,0,
00:05.2,0.000881195,0.003616333,0.017515182,0,
00:05.2,0.000881195,0.003610611,0.017520905,0,
00:05.2,0.000881195,0.003622055,0.017515182,0,
00:05.2,0.000881195,0.003622055,0.017520905,0,
00:05.3,0.000881195,0.003616333,0.017520905,0,
00:05.3,0.000881195,0.003604889,0.017520905,0,
00:05.3,0.000881195,0.003610611,0.017520905,0,
00:05.3,0.000886917,0.003622055,0.017520905,0,
00:05.3,0.000881195,0.003622055,0.017515182,0,
00:05.3,0.000886917,0.003616333,0.017515182,0,
00:05.3,0.000881195,0.003599167,0.017515182,0,
00:05.3,0.000881195,0.003604889,0.017515182,0,
00:05.3,0.000881195,0.003627777,0.017515182,0,
00:05.3,0.000881195,0.003633499,0.017515182,0,
00:05.3,0.000881195,0.003616333,0.017515182,0,
00:05.3,0.000881195,0.003610611,0.017515182,0,
00:05.3,0.000881195,0.003616333,0.017515182,0,
00:05.3,0.000881195,0.003622055,0.017515182,0,
00:05.3,0.000881195,0.003622055,0.017515182,0,
00:05.3,0.000881195,0.003610611,0.01750946,0,
00:05.3,0.000881195,0.003610611,0.01750946,0,
00:05.3,0.000881195,0.003610611,0.017515182,0,
00:05.3,0.000881195,0.003622055,0.01750946,0,
00:05.3,0.000881195,0.003627777,0.01750946,0,
00:05.3,0.000881195,0.003616333,0.01750946,0,
00:05.3,0.000881195,0.003599167,0.01750946,0,
00:05.3,0.000881195,0.003610611,0.01750946,0,
00:05.3,0.000881195,0.003627777,0.01750946,0,
00:05.3,0.000881195,0.003627777,0.01750946,0,
00:05.4,0.000881195,0.003610611,0.017503738,0,
00:05.4,0.000881195,0.003599167,0.017503738,0,
00:05.4,0.000881195,0.003616333,0.017503738,0,
00:05.4,0.000881195,0.003627777,0.017503738,0,
00:05.4,0.000881195,0.003610611,0.017503738,0,
00:05.4,0.000881195,0.003610611,0.017498016,0,
00:05.4,0.000881195,0.003616333,0.017498016,0,
00:05.4,0.000881195,0.003616333,0.017503738,0,
00:05.4,0.000881195,0.003627777,0.017503738,0,
00:05.4,0.000881195,0.003633499,0.017498016,0,
00:05.4,0.000881195,0.003616333,0.017498016,0,
00:05.4,0.000881195,0.003604889,0.017498016,0,
00:05.4,0.000881195,0.003604889,0.017498016,0,
00:05.4,0.000881195,0.003622055,0.017498016,0,
00:05.4,0.000881195,0.003627777,0.017498016,0,
00:05.4,0.000881195,0.003610611,0.017498016,0,
00:05.4,0.000881195,0.003604889,0.017498016,0,
00:05.4,0.000881195,0.003610611,0.017492294,0,
00:05.4,0.000881195,0.003622055,0.017492294,0,
00:05.4,0.000881195,0.003627777,0.017492294,0,
00:05.4,0.000881195,0.003616333,0.017486572,0,
00:05.4,0.000886917,0.003604889,0.017486572,0,
00:05.4,0.000886917,0.003616333,0.017486572,0,
00:05.4,0.000886917,0.003627777,0.017486572,0,
00:05.4,0.000881195,0.003622055,0.017486572,0,
00:05.5,0.000881195,0.003616333,0.017486572,0,
00:05.5,0.000886917,0.003610611,0.017486572,0,
00:05.5,0.000886917,0.003616333,0.017486572,0,
00:05.5,0.000886917,0.003627777,0.017486572,0,
00:05.5,0.000886917,0.003627777,0.017486572,0,
00:05.5,0.000886917,0.003610611,0.01748085,0,
00:05.5,0.000886917,0.003604889,0.01748085,0,
00:05.5,0.000892639,0.003622055,0.01748085,0,
00:05.5,0.000892639,0.003633499,0.017486572,0,
00:05.5,0.000892639,0.003633499,0.01748085,0,
00:05.5,0.000886917,0.003616333,0.01748085,0,
00:05.5,0.000886917,0.003610611,0.01748085,0,
00:05.5,0.000886917,0.003622055,0.01748085,0,
00:05.5,0.000892639,0.003633499,0.01748085,0,
00:05.5,0.000892639,0.003633499,0.01748085,0,
00:05.5,0.000892639,0.003616333,0.01748085,0,
00:05.5,0.000892639,0.003604889,0.01748085,0,
00:05.5,0.000886917,0.003616333,0.017475128,0,
00:05.5,0.000886917,0.003627777,0.017475128,0,
00:05.5,0.000886917,0.003616333,0.017475128,0,
00:05.5,0.000886917,0.003610611,0.017475128,0,
00:05.5,0.000886917,0.003616333,0.017475128,0,
00:05.5,0.000886917,0.003616333,0.017475128,0,
00:05.5,0.000886917,0.003616333,0.017475128,0,
00:05.5,0.000886917,0.003627777,0.017469406,0,
00:05.6,0.000886917,0.003622055,0.017469406,0,
00:05.6,0.000892639,0.003604889,0.017469406,0,
00:05.6,0.000886917,0.003610611,0.017469406,0,
00:05.6,0.000886917,0.003622055,0.017469406,0,
00:05.6,0.000886917,0.003622055,0.017469406,0,
00:05.6,0.000892639,0.003622055,0.017469406,0,
00:05.6,0.000892639,0.003610611,0.017463684,0,
00:05.6,0.000892639,0.003610611,0.017469406,0,
00:05.6,0.000886917,0.003627777,0.017469406,0,
00:05.6,0.000886917,0.003627777,0.017469406,0,
00:05.6,0.000886917,0.003616333,0.017463684,0,
00:05.6,0.000892639,0.003610611,0.017463684,0,
00:05.6,0.000892639,0.003622055,0.017463684,0,
00:05.6,0.000892639,0.003633499,0.017463684,0,
00:05.6,0.000886917,0.003627777,0.017463684,0,
00:05.6,0.000892639,0.003616333,0.017463684,0,
00:05.6,0.000892639,0.003610611,0.017463684,0,
00:05.6,0.000892639,0.003616333,0.017463684,0,
00:05.6,0.000892639,0.003627777,0.017463684,0,
00:05.6,0.000886917,0.003622055,0.017457962,0,
00:05.6,0.000892639,0.003610611,0.017457962,0,
00:05.6,0.000892639,0.003610611,0.017457962,0,
00:05.6,0.000886917,0.003616333,0.017457962,0,
00:05.6,0.000886917,0.003627777,0.017457962,0,
00:05.6,0.000886917,0.003622055,0.01745224,0,
00:05.7,0.000886917,0.003610611,0.01745224,0,
00:05.7,0.000886917,0.003599167,0.01745224,0,
00:05.7,0.000886917,0.003599167,0.01745224,0,
00:05.7,0.000881195,0.003616333,0.01745224,0,
00:05.7,0.000886917,0.003627777,0.01745224,0,
00:05.7,0.000886917,0.003610611,0.01745224,0,
00:05.7,0.000886917,0.003604889,0.01745224,0,
00:05.7,0.000886917,0.003610611,0.017446518,0,
00:05.7,0.000886917,0.003616333,0.017446518,0,
00:05.7,0.000886917,0.003622055,0.017446518,0,
00:05.7,0.000886917,0.003604889,0.017446518,0,
00:05.7,0.000886917,0.003593445,0.017446518,0,
00:05.7,0.000886917,0.003604889,0.01745224,0,
00:05.7,0.000886917,0.003627777,0.017446518,0,
00:05.7,0.000886917,0.003622055,0.017446518,0,
00:05.7,0.000886917,0.003610611,0.017446518,0,
00:05.7,0.000886917,0.003610611,0.017446518,0,
00:05.7,0.000886917,0.003610611,0.01745224,0,
00:05.7,0.000886917,0.003622055,0.017446518,0,
00:05.7,0.000886917,0.003627777,0.017446518,0,
00:05.7,0.000892639,0.003616333,0.017446518,0,
00:05.7,0.000892639,0.003604889,0.017440796,0,
00:05.7,0.000892639,0.003604889,0.017440796,0,
00:05.7,0.000886917,0.003622055,0.017440796,0,
00:05.7,0.000886917,0.003622055,0.017440796,0,
00:05.8,0.000886917,0.003610611,0.017440796,0,
00:05.8,0.000886917,0.003604889,0.017440796,0,
00:05.8,0.000886917,0.003604889,0.017440796,0,
00:05.8,0.000886917,0.003610611,0.017440796,0,
00:05.8,0.000886917,0.003622055,0.017440796,0,
00:05.8,0.000886917,0.003622055,0.017440796,0,
00:05.8,0.000886917,0.003610611,0.017440796,0,
00:05.8,0.000886917,0.003622055,0.017440796,0,
00:05.8,0.000886917,0.003627777,0.017440796,0,
00:05.8,0.000892639,0.003622055,0.017440796,0,
00:05.8,0.000892639,0.003610611,0.017440796,0,
00:05.8,0.000886917,0.003593445,0.017440796,0,
00:05.8,0.000886917,0.003610611,0.017440796,0,
00:05.8,0.000886917,0.003633499,0.017440796,0,
00:05.8,0.000886917,0.003633499,0.017435074,0,
00:05.8,0.000892639,0.003622055,0.017435074,0,
00:05.8,0.000892639,0.003616333,0.017435074,0,
00:05.8,0.000892639,0.003616333,0.017435074,0,
00:05.8,0.000886917,0.003616333,0.017435074,0,
00:05.8,0.000886917,0.003622055,0.017429352,0,
00:05.8,0.000886917,0.003616333,0.017435074,0,
00:05.8,0.000892639,0.003604889,0.017435074,0,
00:05.8,0.000892639,0.003616333,0.017435074,0,
00:05.8,0.000892639,0.003627777,0.017429352,0,
00:05.8,0.000886917,0.003616333,0.017429352,0,
00:05.9,0.000892639,0.003604889,0.017429352,0,
00:05.9,0.000892639,0.003599167,0.017429352,0,
00:05.9,0.000892639,0.003616333,0.017429352,0,
00:05.9,0.000892639,0.003627777,0.017429352,0,
00:05.9,0.000892639,0.003622055,0.01742363,0,
00:05.9,0.000892639,0.003610611,0.01742363,0,
00:05.9,0.000892639,0.003604889,0.01742363,0,
00:05.9,0.000892639,0.003610611,0.01742363,0,
00:05.9,0.000886917,0.003616333,0.01742363,0,
00:05.9,0.000892639,0.003622055,0.01742363,0,
00:05.9,0.000892639,0.003599167,0.01742363,0,
00:05.9,0.000892639,0.003593445,0.01742363,0,
00:05.9,0.000886917,0.003610611,0.01742363,0,
00:05.9,0.000886917,0.003627777,0.01742363,0,
00:05.9,0.000886917,0.003627777,0.01742363,0,
00:05.9,0.000886917,0.003616333,0.017417908,0,
00:05.9,0.000886917,0.003604889,0.017417908,0,
00:05.9,0.000886917,0.003604889,0.01742363,0,
00:05.9,0.000886917,0.003622055,0.017417908,0,
00:05.9,0.000886917,0.003627777,0.017417908,0,
00:05.9,0.000886917,0.003604889,0.017417908,0,
00:05.9,0.000892639,0.003604889,0.017417908,0,
00:05.9,0.000892639,0.003616333,0.017417908,0,
00:05.9,0.000892639,0.003627777,0.017417908,0,
00:05.9,0.000886917,0.003622055,0.017412186,0,
00:06.0,0.000886917,0.003604889,0.017412186,0,
00:06.0,0.000886917,0.003599167,0.017412186,0,
00:06.0,0.000892639,0.003610611,0.017412186,0,
00:06.0,0.000892639,0.003627777,0.017412186,0,
00:06.0,0.000886917,0.003622055,0.017412186,0,
00:06.0,0.000886917,0.003610611,0.017412186,0,
00:06.0,0.000892639,0.003604889,0.017412186,0,
00:06.0,0.000892639,0.003610611,0.017412186,0,
00:06.0,0.000886917,0.003616333,0.017412186,0,
00:06.0,0.000886917,0.003622055,0.017412186,0,
00:06.0,0.000886917,0.003604889,0.017406464,0,
00:06.0,0.000892639,0.003604889,0.017406464,0,
00:00:06,0.000886917,0.003610611,0.017412186,0,
00:06.0,0.000886917,0.003622055,0.017406464,0,
00:06.0,0.000886917,0.003610611,0.017406464,0,
00:06.0,0.000886917,0.003599167,0.017406464,0,
00:06.0,0.000886917,0.003610611,0.017400742,0,
00:06.0,0.000886917,0.003627777,0.017400742,0,
00:06.0,0.000886917,0.003633499,0.017400742,0,
00:06.0,0.000886917,0.003627777,0.017400742,0,
00:06.0,0.000886917,0.003610611,0.017400742,0,
00:06.0,0.000886917,0.003604889,0.017400742,0,
00:06.0,0.000886917,0.003622055,0.017400742,0,
00:06.0,0.000886917,0.003633499,0.017400742,0,
00:06.0,0.000886917,0.003633499,0.01739502,0,
00:06.1,0.000886917,0.003616333,0.01739502,0,
00:06.1,0.000892639,0.003610611,0.01739502,0,
00:06.1,0.000886917,0.003622055,0.01739502,0,
00:06.1,0.000886917,0.003627777,0.01739502,0,
00:06.1,0.000886917,0.003627777,0.01739502,0,
00:06.1,0.000886917,0.003604889,0.017389297,0,
00:06.1,0.000886917,0.003604889,0.01739502,0,
00:06.1,0.000886917,0.003622055,0.01739502,0,
00:06.1,0.000886917,0.003633499,0.017389297,0,
00:06.1,0.000886917,0.003627777,0.017389297,0,
00:06.1,0.000886917,0.003616333,0.017389297,0,
00:06.1,0.000886917,0.003622055,0.017389297,0,
00:06.1,0.000886917,0.003627777,0.017389297,0,
00:06.1,0.000886917,0.003627777,0.017389297,0,
00:06.1,0.000886917,0.003627777,0.017389297,0,
00:06.1,0.000886917,0.003627777,0.017389297,0,
00:06.1,0.000886917,0.003610611,0.017389297,0,
00:06.1,0.000886917,0.003622055,0.017383575,0,
00:06.1,0.000886917,0.003644943,0.017389297,0,
00:06.1,0.000892639,0.003639221,0.017389297,0,
00:06.1,0.000886917,0.003622055,0.017383575,0,
00:06.1,0.000886917,0.003616333,0.017383575,0,
00:06.1,0.000886917,0.003627777,0.017383575,0,
00:06.1,0.000886917,0.003639221,0.017383575,0,
00:06.1,0.000886917,0.003639221,0.017383575,0,
00:06.2,0.000886917,0.003622055,0.017383575,0,
00:06.2,0.000886917,0.003610611,0.017383575,0,
00:06.2,0.000886917,0.003627777,0.017383575,0,
00:06.2,0.000886917,0.003644943,0.017383575,0,
00:06.2,0.000886917,0.003633499,0.017383575,0,
00:06.2,0.000886917,0.003616333,0.017383575,0,
00:06.2,0.000892639,0.003622055,0.017383575,0,
00:06.2,0.000892639,0.003633499,0.017383575,0,
00:06.2,0.000892639,0.003644943,0.017383575,0,
00:06.2,0.000886917,0.003639221,0.017377853,0,
00:06.2,0.000886917,0.003622055,0.017377853,0,
00:06.2,0.000892639,0.003616333,0.017377853,0,
00:06.2,0.000892639,0.003622055,0.017377853,0,
00:06.2,0.000892639,0.003639221,0.017377853,0,
00:06.2,0.000886917,0.003644943,0.017377853,0,
00:06.2,0.000892639,0.003633499,0.017377853,0,
00:06.2,0.000886917,0.003622055,0.017377853,0,
00:06.2,0.000886917,0.003633499,0.017377853,0,
00:06.2,0.000886917,0.003644943,0.017377853,0,
00:06.2,0.000892639,0.003650665,0.017372131,0,
00:06.2,0.000892639,0.003639221,0.017372131,0,
00:06.2,0.000892639,0.003627777,0.017372131,0,
00:06.2,0.000886917,0.003627777,0.017372131,0,
00:06.2,0.000886917,0.003639221,0.017372131,0,
00:06.2,0.000886917,0.003650665,0.017366409,0,
00:06.3,0.000886917,0.003627777,0.017366409,0,
00:06.3,0.000886917,0.003622055,0.017366409,0,
00:06.3,0.000886917,0.003644943,0.017366409,0,
00:06.3,0.000886917,0.003644943,0.017366409,0,
00:06.3,0.000886917,0.003650665,0.017366409,0,
00:06.3,0.000886917,0.003633499,0.017366409,0,
00:06.3,0.000886917,0.003633499,0.017366409,0,
00:06.3,0.000886917,0.003644943,0.017366409,0,
00:06.3,0.000886917,0.003650665,0.017366409,0,
00:06.3,0.000886917,0.003650665,0.017366409,0,
00:06.3,0.000886917,0.003639221,0.017366409,0,
00:06.3,0.000886917,0.003633499,0.017366409,0,
00:06.3,0.000886917,0.003639221,0.017366409,0,
00:06.3,0.000886917,0.003650665,0.017366409,0,
00:06.3,0.000886917,0.003644943,0.017360687,0,
00:06.3,0.000886917,0.003627777,0.017360687,0,
00:06.3,0.000892639,0.003633499,0.017360687,0,
00:06.3,0.000892639,0.003650665,0.017360687,0,
00:06.3,0.000892639,0.003656387,0.017360687,0,
00:06.3,0.000886917,0.003644943,0.017360687,0,
00:06.3,0.000892639,0.003633499,0.017360687,0,
00:06.3,0.000892639,0.003633499,0.017360687,0,
00:06.3,0.000892639,0.003644943,0.017360687,0,
00:06.3,0.000892639,0.003650665,0.017360687,0,
00:06.3,0.000892639,0.003633499,0.017360687,0,
00:06.4,0.000892639,0.003627777,0.017360687,0,
00:06.4,0.000892639,0.003639221,0.017360687,0,
00:06.4,0.000892639,0.003656387,0.017360687,0,
00:06.4,0.000892639,0.003662109,0.017360687,0,
00:06.4,0.000892639,0.003650665,0.017360687,0,
00:06.4,0.000892639,0.003633499,0.017360687,0,
00:06.4,0.000892639,0.003627777,0.017360687,0,
00:06.4,0.000892639,0.003644943,0.017360687,0,
00:06.4,0.000892639,0.003650665,0.017360687,0,
00:06.4,0.000892639,0.003644943,0.017354965,0,
00:06.4,0.000892639,0.003633499,0.017360687,0,
00:06.4,0.000898361,0.003627777,0.017360687,0,
00:06.4,0.000892639,0.003639221,0.017354965,0,
00:06.4,0.000898361,0.003650665,0.017354965,0,
00:06.4,0.000898361,0.003650665,0.017354965,0,
00:06.4,0.000892639,0.003633499,0.017354965,0,
00:06.4,0.000892639,0.003627777,0.017354965,0,
00:06.4,0.000892639,0.003639221,0.017354965,0,
00:06.4,0.000892639,0.003650665,0.017354965,0,
00:06.4,0.000892639,0.003644943,0.017349243,0,
00:06.4,0.000892639,0.003639221,0.017349243,0,
00:06.4,0.000892639,0.003633499,0.017349243,0,
00:06.4,0.000892639,0.003644943,0.017349243,0,
00:06.4,0.000892639,0.003656387,0.017349243,0,
00:06.4,0.000892639,0.003650665,0.017349243,0,
00:06.5,0.000892639,0.003639221,0.017349243,0,
00:06.5,0.000892639,0.003633499,0.017349243,0,
00:06.5,0.000898361,0.003644943,0.017354965,0,
00:06.5,0.000892639,0.003650665,0.017349243,0,
00:06.5,0.000892639,0.003650665,0.017349243,0,
00:06.5,0.000898361,0.003650665,0.017349243,0,
00:06.5,0.000898361,0.003644943,0.017349243,0,
00:06.5,0.000892639,0.003650665,0.017349243,0,
00:06.5,0.000892639,0.003662109,0.017349243,0,
00:06.5,0.000892639,0.003650665,0.017349243,0,
00:06.5,0.000892639,0.003639221,0.017349243,0,
00:06.5,0.000892639,0.003639221,0.017349243,0,
00:06.5,0.000892639,0.003656387,0.017349243,0,
00:06.5,0.000892639,0.003662109,0.017349243,0,
00:06.5,0.000892639,0.003650665,0.017343521,0,
00:06.5,0.000892639,0.003639221,0.017343521,0,
00:06.5,0.000898361,0.003639221,0.017343521,0,
00:06.5,0.000892639,0.003650665,0.017343521,0,
00:06.5,0.000892639,0.003650665,0.017343521,0,
00:06.5,0.000892639,0.003644943,0.017343521,0,
00:06.5,0.000892639,0.003650665,0.017343521,0,
00:06.5,0.000892639,0.003650665,0.017343521,0,
00:06.5,0.000892639,0.003662109,0.017343521,0,
00:06.5,0.000892639,0.003662109,0.017343521,0,
00:06.5,0.000892639,0.003650665,0.017343521,0,
00:06.6,0.000892639,0.003639221,0.017343521,0,
00:06.6,0.000892639,0.003633499,0.017337799,0,
00:06.6,0.000892639,0.003656387,0.017337799,0,
00:06.6,0.000892639,0.003673553,0.017343521,0,
00:06.6,0.000886917,0.003662109,0.017337799,0,
00:06.6,0.000892639,0.003650665,0.017337799,0,
00:06.6,0.000892639,0.003650665,0.017337799,0,
00:06.6,0.000892639,0.003656387,0.017337799,0,
00:06.6,0.000886917,0.003662109,0.017337799,0,
00:06.6,0.000886917,0.003656387,0.017337799,0,
00:06.6,0.000892639,0.003644943,0.017337799,0,
00:06.6,0.000892639,0.003639221,0.017337799,0,
00:06.6,0.000886917,0.003650665,0.017337799,0,
00:06.6,0.000886917,0.003667831,0.017337799,0,
00:06.6,0.000886917,0.003667831,0.017337799,0,
00:06.6,0.000886917,0.003650665,0.017337799,0,
00:06.6,0.000886917,0.003644943,0.017337799,0,
00:06.6,0.000886917,0.003667831,0.017337799,0,
00:06.6,0.000886917,0.003673553,0.017332077,0,
00:06.6,0.000886917,0.003667831,0.017332077,0,
00:06.6,0.000886917,0.003650665,0.017332077,0,
00:06.6,0.000886917,0.003644943,0.017337799,0,
00:06.6,0.000881195,0.003656387,0.017332077,0,
00:06.6,0.000886917,0.003673553,0.017332077,0,
00:06.6,0.000881195,0.003662109,0.017332077,0,
00:06.7,0.000881195,0.003644943,0.017332077,0,
00:06.7,0.000881195,0.003644943,0.017332077,0,
00:06.7,0.000886917,0.003667831,0.017332077,0,
00:06.7,0.000886917,0.003679276,0.017326355,0,
00:06.7,0.000881195,0.003667831,0.017326355,0,
00:06.7,0.000881195,0.003650665,0.017326355,0,
00:06.7,0.000881195,0.003656387,0.017326355,0,
00:06.7,0.000881195,0.003667831,0.017332077,0,
00:06.7,0.000881195,0.003673553,0.017332077,0,
00:06.7,0.000881195,0.003667831,0.017332077,0,
00:06.7,0.000881195,0.003650665,0.017326355,0,
00:06.7,0.000881195,0.003644943,0.017326355,0,
00:06.7,0.000881195,0.003667831,0.017326355,0,
00:06.7,0.000881195,0.003673553,0.017326355,0,
00:06.7,0.000881195,0.003656387,0.017326355,0,
00:06.7,0.000886917,0.003650665,0.017326355,0,
00:06.7,0.000881195,0.003662109,0.017326355,0,
00:06.7,0.000881195,0.003679276,0.017326355,0,
00:06.7,0.000886917,0.003679276,0.017326355,0,
00:06.7,0.000886917,0.003667831,0.017326355,0,
00:06.7,0.000881195,0.003662109,0.017320633,0,
00:06.7,0.000886917,0.003656387,0.017320633,0,
00:06.7,0.000886917,0.003667831,0.017320633,0,
00:06.7,0.000886917,0.003684998,0.017320633,0,
00:06.7,0.000881195,0.003679276,0.017320633,0,
00:06.8,0.000886917,0.003662109,0.017320633,0,
00:06.8,0.000881195,0.003662109,0.017320633,0,
00:06.8,0.000881195,0.003673553,0.017320633,0,
00:06.8,0.000881195,0.003684998,0.017320633,0,
00:06.8,0.000881195,0.003673553,0.017320633,0,
00:06.8,0.000881195,0.003662109,0.017320633,0,
00:06.8,0.000881195,0.003662109,0.017320633,0,
00:06.8,0.000881195,0.003673553,0.017320633,0,
00:06.8,0.000881195,0.003684998,0.017320633,0,
00:06.8,0.000881195,0.003673553,0.017320633,0,
00:06.8,0.000881195,0.003656387,0.017320633,0,
00:06.8,0.000881195,0.003662109,0.017320633,0,
00:06.8,0.000881195,0.003679276,0.017320633,0,
00:06.8,0.000881195,0.003684998,0.017320633,0,
00:06.8,0.000881195,0.003679276,0.017320633,0,
00:06.8,0.000881195,0.003662109,0.017320633,0,
00:06.8,0.000881195,0.003667831,0.017320633,0,
00:06.8,0.000881195,0.003673553,0.017320633,0,
00:06.8,0.000881195,0.003679276,0.017320633,0,
00:06.8,0.000886917,0.003684998,0.017320633,0,
00:06.8,0.000886917,0.003673553,0.017320633,0,
00:06.8,0.000886917,0.003673553,0.017320633,0,
00:06.8,0.000881195,0.003684998,0.017320633,0,
00:06.8,0.000881195,0.00369072,0.017320633,0,
00:06.8,0.000881195,0.003684998,0.017320633,0,
00:06.9,0.000881195,0.003679276,0.017314911,0,
00:06.9,0.000881195,0.003673553,0.017314911,0,
00:06.9,0.000881195,0.003684998,0.017314911,0,
00:06.9,0.000881195,0.00369072,0.017314911,0,
00:06.9,0.000881195,0.003679276,0.017314911,0,
00:06.9,0.000881195,0.003662109,0.017314911,0,
00:06.9,0.000881195,0.003667831,0.017314911,0,
00:06.9,0.000881195,0.00369072,0.017314911,0,
00:06.9,0.000881195,0.003696442,0.017314911,0,
00:06.9,0.000881195,0.00369072,0.017309189,0,
00:06.9,0.000881195,0.003679276,0.017309189,0,
00:06.9,0.000881195,0.003679276,0.017314911,0,
00:06.9,0.000881195,0.003684998,0.017314911,0,
00:06.9,0.000875473,0.003696442,0.017314911,0,
00:06.9,0.000875473,0.003696442,0.017309189,0,
00:06.9,0.000881195,0.003684998,0.017309189,0,
00:06.9,0.000881195,0.003684998,0.017309189,0,
00:06.9,0.000881195,0.003696442,0.017309189,0,
00:06.9,0.000875473,0.00369072,0.017309189,0,
00:06.9,0.000875473,0.003684998,0.017309189,0,
00:06.9,0.000881195,0.00369072,0.017309189,0,
00:06.9,0.000881195,0.003684998,0.017309189,0,
00:06.9,0.000881195,0.003696442,0.017303467,0,
00:06.9,0.000881195,0.003707886,0.017303467,0,
00:06.9,0.000881195,0.003696442,0.017303467,0,
00:07.0,0.000881195,0.003679276,0.017303467,0,
00:07.0,0.000881195,0.003679276,0.017309189,0,
00:07.0,0.000881195,0.003696442,0.017309189,0,
00:07.0,0.000875473,0.003713608,0.017303467,0,
00:07.0,0.000881195,0.003702164,0.017303467,0,
00:07.0,0.000881195,0.003684998,0.017303467,0,
00:07.0,0.000881195,0.003684998,0.017303467,0,
00:07.0,0.000875473,0.003696442,0.017303467,0,
00:07.0,0.000875473,0.003702164,0.017303467,0,
00:07.0,0.000881195,0.003696442,0.017303467,0,
00:07.0,0.000881195,0.00369072,0.017303467,0,
00:07.0,0.000881195,0.00369072,0.017303467,0,
00:00:07,0.000881195,0.003702164,0.017303467,0,
00:07.0,0.000881195,0.003702164,0.017303467,0,
00:07.0,0.000881195,0.00369072,0.017303467,0,
00:07.0,0.000881195,0.003679276,0.017303467,0,
00:07.0,0.000881195,0.00369072,0.017303467,0,
00:07.0,0.000881195,0.003707886,0.017303467,0,
00:07.0,0.000881195,0.003707886,0.017297745,0,
00:07.0,0.000881195,0.00369072,0.017297745,0,
00:07.0,0.000881195,0.003684998,0.017297745,0,
00:07.0,0.000881195,0.00369072,0.017297745,0,
00:07.0,0.000881195,0.003696442,0.017297745,0,
00:07.0,0.000881195,0.003702164,0.017297745,0,
00:07.0,0.000881195,0.003702164,0.017297745,0,
00:07.1,0.000881195,0.00369072,0.017297745,0,
00:07.1,0.000881195,0.00369072,0.017297745,0,
00:07.1,0.000881195,0.003707886,0.017297745,0,
00:07.1,0.000881195,0.00371933,0.017297745,0,
00:07.1,0.000881195,0.003707886,0.017297745,0,
00:07.1,0.000881195,0.003696442,0.017297745,0,
00:07.1,0.000881195,0.003696442,0.017297745,0,
00:07.1,0.000875473,0.003707886,0.017297745,0,
00:07.1,0.000875473,0.00371933,0.017297745,0,
00:07.1,0.000875473,0.003707886,0.017297745,0,
00:07.1,0.000875473,0.003696442,0.017297745,0,
00:07.1,0.000875473,0.003696442,0.017297745,0,
00:07.1,0.000881195,0.00371933,0.017292023,0,
00:07.1,0.000881195,0.00371933,0.017292023,0,
00:07.1,0.000875473,0.003707886,0.017292023,0,
00:07.1,0.000875473,0.003696442,0.017292023,0,
00:07.1,0.000881195,0.003702164,0.017292023,0,
00:07.1,0.000881195,0.003713608,0.017292023,0,
00:07.1,0.000875473,0.00371933,0.017292023,0,
00:07.1,0.000881195,0.003707886,0.017286301,0,
00:07.1,0.000881195,0.003696442,0.017286301,0,
00:07.1,0.000881195,0.003707886,0.017286301,0,
00:07.1,0.000875473,0.00371933,0.017292023,0,
00:07.1,0.000875473,0.00371933,0.017292023,0,
00:07.1,0.000875473,0.003713608,0.017292023,0,
00:07.2,0.000875473,0.003696442,0.017292023,0,
00:07.2,0.000875473,0.003702164,0.017292023,0,
00:07.2,0.000881195,0.003725052,0.017292023,0,
00:07.2,0.000875473,0.003725052,0.017292023,0,
00:07.2,0.000875473,0.003707886,0.017292023,0,
00:07.2,0.000875473,0.00369072,0.017292023,0,
00:07.2,0.000875473,0.00369072,0.017292023,0,
00:07.2,0.000881195,0.003725052,0.017292023,0,
00:07.2,0.000881195,0.003742218,0.017292023,0,
00:07.2,0.000875473,0.003725052,0.017292023,0,
00:07.2,0.000875473,0.003707886,0.017292023,0,
00:07.2,0.000875473,0.003713608,0.017286301,0,
00:07.2,0.000875473,0.003725052,0.017292023,0,
00:07.2,0.000881195,0.003730774,0.017286301,0,
00:07.2,0.000875473,0.003713608,0.017286301,0,
00:07.2,0.000875473,0.003702164,0.017286301,0,
00:07.2,0.000881195,0.003713608,0.017286301,0,
00:07.2,0.000881195,0.003730774,0.017286301,0,
00:07.2,0.000881195,0.003730774,0.017286301,0,
00:07.2,0.000881195,0.003725052,0.017286301,0,
00:07.2,0.000881195,0.00371933,0.017286301,0,
00:07.2,0.000881195,0.00371933,0.017286301,0,
00:07.2,0.000881195,0.003730774,0.017280579,0,
00:07.2,0.000875473,0.003736496,0.017280579,0,
00:07.2,0.000875473,0.00371933,0.017280579,0,
00:07.3,0.000875473,0.003713608,0.017280579,0,
00:07.3,0.000881195,0.003725052,0.017280579,0,
00:07.3,0.000875473,0.003736496,0.017286301,0,
00:07.3,0.000875473,0.003730774,0.017280579,0,
00:07.3,0.000875473,0.00371933,0.017280579,0,
00:07.3,0.000875473,0.00371933,0.017280579,0,
00:07.3,0.000875473,0.003725052,0.017280579,0,
00:07.3,0.000881195,0.003736496,0.017280579,0,
00:07.3,0.000875473,0.003736496,0.017280579,0,
00:07.3,0.000875473,0.003725052,0.017280579,0,
00:07.3,0.000875473,0.003713608,0.017280579,0,
00:07.3,0.000875473,0.00371933,0.017280579,0,
00:07.3,0.000875473,0.003730774,0.017280579,0,
00:07.3,0.000875473,0.003742218,0.017280579,0,
00:07.3,0.000875473,0.003730774,0.017280579,0,
00:07.3,0.000875473,0.00371933,0.017280579,0,
00:07.3,0.000875473,0.003725052,0.017280579,0,
00:07.3,0.000881195,0.003736496,0.017280579,0,
00:07.3,0.000875473,0.003730774,0.017280579,0,
00:07.3,0.000875473,0.00371933,0.017280579,0,
00:07.3,0.000875473,0.003725052,0.017280579,0,
00:07.3,0.000881195,0.003730774,0.017280579,0,
00:07.3,0.000875473,0.003742218,0.017280579,0,
00:07.3,0.000875473,0.00374794,0.017280579,0,
00:07.3,0.000875473,0.003736496,0.017274857,0,
00:07.4,0.000875473,0.003725052,0.017274857,0,
00:07.4,0.000875473,0.00371933,0.017274857,0,
00:07.4,0.000875473,0.003730774,0.017274857,0,
00:07.4,0.000875473,0.00374794,0.017274857,0,
00:07.4,0.000881195,0.003742218,0.017274857,0,
00:07.4,0.000881195,0.003725052,0.017274857,0,
00:07.4,0.000881195,0.003736496,0.017274857,0,
00:07.4,0.000875473,0.00374794,0.017280579,0,
00:07.4,0.000875473,0.003742218,0.017274857,0,
00:07.4,0.000875473,0.003730774,0.017274857,0,
00:07.4,0.000875473,0.003730774,0.017274857,0,
00:07.4,0.000875473,0.003730774,0.017274857,0,
00:07.4,0.000875473,0.003742218,0.017274857,0,
00:07.4,0.000869751,0.00374794,0.017274857,0,
00:07.4,0.000875473,0.003736496,0.017274857,0,
00:07.4,0.000875473,0.003730774,0.017274857,0,
00:07.4,0.000875473,0.003736496,0.017274857,0,
00:07.4,0.000875473,0.00374794,0.017274857,0,
00:07.4,0.000875473,0.00374794,0.017274857,0,
00:07.4,0.000869751,0.003730774,0.017274857,0,
00:07.4,0.000875473,0.003730774,0.017274857,0,
00:07.4,0.000875473,0.003730774,0.017274857,0,
00:07.4,0.000875473,0.003736496,0.017274857,0,
00:07.4,0.000881195,0.003753662,0.017274857,0,
00:07.4,0.000875473,0.00374794,0.017274857,0,
00:07.5,0.000881195,0.003736496,0.017274857,0,
00:07.5,0.000881195,0.003736496,0.017274857,0,
00:07.5,0.000881195,0.003753662,0.017274857,0,
00:07.5,0.000881195,0.003759384,0.017274857,0,
00:07.5,0.000875473,0.00374794,0.017269135,0,
00:07.5,0.000875473,0.003730774,0.017269135,0,
00:07.5,0.000875473,0.003736496,0.017269135,0,
00:07.5,0.000875473,0.003753662,0.017269135,0,
00:07.5,0.000875473,0.003753662,0.017269135,0,
00:07.5,0.000875473,0.003730774,0.017269135,0,
00:07.5,0.000875473,0.003725052,0.017269135,0,
00:07.5,0.000875473,0.003736496,0.017269135,0,
00:07.5,0.000875473,0.003753662,0.017269135,0,
00:07.5,0.000875473,0.003753662,0.017269135,0,
00:07.5,0.000875473,0.003736496,0.017269135,0,
00:07.5,0.000875473,0.003730774,0.017269135,0,
00:07.5,0.000875473,0.003736496,0.017269135,0,
00:07.5,0.000875473,0.003753662,0.017269135,0,
00:07.5,0.000875473,0.003753662,0.017269135,0,
00:07.5,0.000869751,0.003736496,0.017263412,0,
00:07.5,0.000875473,0.003730774,0.017263412,0,
00:07.5,0.000875473,0.003742218,0.017263412,0,
00:07.5,0.000869751,0.003753662,0.017263412,0,
00:07.5,0.000875473,0.003765106,0.017263412,0,
00:07.5,0.000875473,0.003753662,0.017263412,0,
00:07.6,0.000875473,0.003742218,0.017263412,0,
00:07.6,0.000875473,0.003736496,0.017263412,0,
00:07.6,0.000875473,0.00374794,0.017263412,0,
00:07.6,0.000875473,0.003759384,0.017263412,0,
00:07.6,0.000875473,0.003742218,0.01725769,0,
00:07.6,0.000875473,0.003736496,0.01725769,0,
00:07.6,0.000875473,0.00374794,0.01725769,0,
00:07.6,0.000875473,0.003759384,0.017263412,0,
00:07.6,0.000875473,0.003759384,0.017263412,0,
00:07.6,0.000875473,0.00374794,0.017263412,0,
00:07.6,0.000875473,0.003736496,0.017263412,0,
00:07.6,0.000875473,0.003742218,0.017263412,0,
00:07.6,0.000881195,0.003753662,0.017263412,0,
00:07.6,0.000881195,0.003765106,0.01725769,0,
00:07.6,0.000875473,0.003753662,0.01725769,0,
00:07.6,0.000875473,0.003736496,0.01725769,0,
00:07.6,0.000881195,0.003736496,0.01725769,0,
00:07.6,0.000881195,0.003759384,0.01725769,0,
00:07.6,0.000881195,0.003765106,0.01725769,0,
00:07.6,0.000875473,0.00374794,0.01725769,0,
00:07.6,0.000881195,0.003742218,0.01725769,0,
00:07.6,0.000881195,0.00374794,0.01725769,0,
00:07.6,0.000875473,0.003753662,0.01725769,0,
00:07.6,0.000875473,0.003759384,0.01725769,0,
00:07.6,0.000875473,0.003759384,0.01725769,0,
00:07.7,0.000881195,0.003742218,0.01725769,0,
00:07.7,0.000881195,0.003753662,0.01725769,0,
00:07.7,0.000881195,0.003765106,0.01725769,0,
00:07.7,0.000881195,0.003759384,0.017251968,0,
00:07.7,0.000875473,0.003742218,0.017251968,0,
00:07.7,0.000881195,0.003736496,0.01725769,0,
00:07.7,0.000881195,0.003753662,0.01725769,0,
00:07.7,0.000875473,0.003770828,0.01725769,0,
00:07.7,0.000875473,0.003770828,0.017251968,0,
00:07.7,0.000875473,0.003759384,0.017251968,0,
00:07.7,0.000881195,0.003742218,0.017251968,0,
00:07.7,0.000875473,0.003742218,0.017251968,0,
00:07.7,0.000875473,0.003753662,0.017251968,0,
00:07.7,0.000881195,0.00377655,0.017251968,0,
00:07.7,0.000881195,0.003753662,0.017251968,0,
00:07.7,0.000875473,0.003742218,0.017251968,0,
00:07.7,0.000881195,0.003753662,0.017251968,0,
00:07.7,0.000881195,0.003765106,0.017251968,0,
00:07.7,0.000875473,0.003765106,0.017251968,0,
00:07.7,0.000875473,0.003753662,0.017251968,0,
00:07.7,0.000875473,0.00374794,0.017251968,0,
00:07.7,0.000881195,0.003759384,0.017251968,0,
00:07.7,0.000881195,0.003770828,0.017251968,0,
00:07.7,0.000875473,0.003770828,0.017251968,0,
00:07.7,0.000875473,0.003753662,0.017251968,0,
00:07.8,0.000881195,0.00374794,0.017251968,0,
00:07.8,0.000881195,0.003753662,0.017251968,0,
00:07.8,0.000881195,0.003765106,0.017251968,0,
00:07.8,0.000881195,0.00377655,0.017251968,0,
00:07.8,0.000881195,0.003765106,0.017246246,0,
00:07.8,0.000881195,0.003759384,0.017246246,0,
00:07.8,0.000881195,0.003765106,0.017246246,0,
00:07.8,0.000875473,0.003770828,0.017246246,0,
00:07.8,0.000875473,0.003770828,0.017246246,0,
00:07.8,0.000881195,0.003765106,0.017246246,0,
00:07.8,0.000875473,0.003759384,0.017246246,0,
00:07.8,0.000875473,0.003753662,0.017246246,0,
00:07.8,0.000875473,0.00377655,0.017246246,0,
00:07.8,0.000875473,0.003787994,0.017246246,0,
00:07.8,0.000875473,0.003765106,0.017240524,0,
00:07.8,0.000875473,0.003753662,0.017240524,0,
00:07.8,0.000875473,0.003765106,0.017246246,0,
00:07.8,0.000875473,0.00377655,0.017240524,0,
00:07.8,0.000881195,0.00377655,0.017240524,0,
00:07.8,0.000881195,0.003770828,0.017240524,0,
00:07.8,0.000881195,0.003759384,0.017240524,0,
00:07.8,0.000881195,0.003765106,0.017240524,0,
00:07.8,0.000881195,0.00377655,0.017240524,0,
00:07.8,0.000881195,0.00377655,0.017240524,0,
00:07.8,0.000881195,0.003765106,0.017240524,0,
00:07.9,0.000881195,0.003765106,0.017240524,0,
00:07.9,0.000881195,0.003770828,0.017240524,0,
00:07.9,0.000881195,0.003782272,0.017240524,0,
00:07.9,0.000881195,0.003782272,0.017240524,0,
00:07.9,0.000881195,0.003765106,0.017240524,0,
00:07.9,0.000881195,0.003759384,0.017240524,0,
00:07.9,0.000881195,0.003770828,0.017240524,0,
00:07.9,0.000881195,0.003782272,0.017240524,0,
00:07.9,0.000886917,0.003782272,0.017240524,0,
00:07.9,0.000886917,0.00377655,0.017240524,0,
00:07.9,0.000886917,0.003770828,0.017234802,0,
00:07.9,0.000881195,0.003765106,0.017240524,0,
00:07.9,0.000881195,0.003782272,0.017240524,0,
00:07.9,0.000881195,0.003782272,0.017234802,0,
00:07.9,0.000881195,0.003765106,0.017234802,0,
00:07.9,0.000881195,0.003765106,0.017234802,0,
00:07.9,0.000881195,0.003770828,0.017234802,0,
00:07.9,0.000881195,0.003787994,0.017234802,0,
00:07.9,0.000881195,0.003793716,0.017234802,0,
00:07.9,0.000881195,0.003782272,0.017234802,0,
00:07.9,0.000881195,0.003770828,0.017234802,0,
00:07.9,0.000881195,0.003770828,0.017234802,0,
00:07.9,0.000881195,0.003782272,0.017234802,0,
00:07.9,0.000881195,0.003793716,0.017234802,0,
00:07.9,0.000881195,0.003782272,0.017234802,0,
00:08.0,0.000881195,0.003765106,0.017234802,0,
00:08.0,0.000881195,0.00377655,0.017234802,0,
00:08.0,0.000881195,0.003787994,0.017234802,0,
00:08.0,0.000881195,0.003787994,0.01722908,0,
00:08.0,0.000881195,0.00377655,0.01722908,0,
00:08.0,0.000881195,0.003770828,0.017234802,0,
00:08.0,0.000881195,0.003787994,0.017234802,0,
00:08.0,0.000881195,0.003799438,0.017234802,0,
00:08.0,0.000881195,0.003793716,0.01722908,0,
00:08.0,0.000881195,0.003770828,0.01722908,0,
00:08.0,0.000881195,0.003770828,0.017234802,0,
00:08.0,0.000881195,0.003782272,0.01722908,0,
00:00:08,0.000881195,0.003793716,0.01722908,0,
00:08.0,0.000881195,0.003787994,0.01722908,0,
00:08.0,0.000881195,0.00377655,0.01722908,0,
00:08.0,0.000881195,0.00377655,0.01722908,0,
00:08.0,0.000881195,0.00377655,0.01722908,0,
00:08.0,0.000881195,0.003787994,0.01722908,0,
00:08.0,0.000875473,0.003787994,0.01722908,0,
00:08.0,0.000881195,0.003770828,0.01722908,0,
00:08.0,0.000881195,0.00377655,0.01722908,0,
00:08.0,0.000881195,0.003787994,0.01722908,0,
00:08.0,0.000881195,0.003793716,0.01722908,0,
00:08.0,0.000881195,0.003799438,0.01722908,0,
00:08.0,0.000881195,0.00377655,0.01722908,0,
00:08.1,0.000886917,0.003770828,0.01722908,0,
00:08.1,0.000886917,0.003787994,0.01722908,0,
00:08.1,0.000886917,0.003799438,0.01722908,0,
00:08.1,0.000886917,0.003793716,0.01722908,0,
00:08.1,0.000886917,0.003782272,0.017223358,0,
00:08.1,0.000886917,0.00377655,0.017223358,0,
00:08.1,0.000886917,0.003787994,0.01722908,0,
00:08.1,0.000886917,0.003793716,0.01722908,0,
00:08.1,0.000886917,0.003793716,0.01722908,0,
00:08.1,0.000886917,0.003770828,0.01722908,0,
00:08.1,0.000881195,0.003759384,0.01722908,0,
00:08.1,0.000881195,0.003782272,0.01722908,0,
00:08.1,0.000886917,0.003799438,0.01722908,0,
00:08.1,0.000886917,0.003799438,0.01722908,0,
00:08.1,0.000886917,0.003782272,0.017223358,0,
00:08.1,0.000886917,0.00377655,0.01722908,0,
00:08.1,0.000881195,0.003782272,0.01722908,0,
00:08.1,0.000881195,0.003793716,0.01722908,0,
00:08.1,0.000881195,0.003787994,0.01722908,0,
00:08.1,0.000886917,0.00377655,0.017223358,0,
00:08.1,0.000886917,0.00377655,0.017223358,0,
00:08.1,0.000886917,0.003787994,0.01722908,0,
00:08.1,0.000886917,0.003793716,0.01722908,0,
00:08.1,0.000886917,0.003793716,0.01722908,0,
00:08.1,0.000886917,0.003782272,0.01722908,0,
00:08.2,0.000886917,0.003765106,0.017223358,0,
00:08.2,0.000881195,0.00377655,0.01722908,0,
00:08.2,0.000886917,0.003805161,0.017223358,0,
00:08.2,0.000886917,0.003810883,0.017223358,0,
00:08.2,0.000886917,0.003787994,0.017223358,0,
00:08.2,0.000881195,0.003765106,0.017223358,0,
00:08.2,0.000886917,0.003782272,0.017223358,0,
00:08.2,0.000886917,0.003805161,0.017223358,0,
00:08.2,0.000881195,0.003799438,0.01722908,0,
00:08.2,0.000881195,0.003782272,0.01722908,0,
00:08.2,0.000881195,0.00377655,0.017223358,0,
00:08.2,0.000881195,0.003787994,0.01722908,0,
00:08.2,0.000881195,0.003793716,0.01722908,0,
00:08.2,0.000881195,0.003793716,0.01722908,0,
00:08.2,0.000881195,0.003787994,0.017223358,0,
00:08.2,0.000881195,0.00377655,0.017223358,0,
00:08.2,0.000881195,0.003793716,0.01722908,0,
00:08.2,0.000881195,0.003799438,0.01722908,0,
00:08.2,0.000881195,0.003799438,0.017223358,0,
00:08.2,0.000881195,0.003787994,0.017223358,0,
00:08.2,0.000886917,0.00377655,0.017223358,0,
00:08.2,0.000886917,0.00377655,0.017223358,0,
00:08.2,0.000881195,0.003799438,0.017223358,0,
00:08.2,0.000886917,0.003793716,0.017223358,0,
00:08.2,0.000886917,0.003787994,0.017223358,0,
00:08.3,0.000886917,0.003787994,0.017223358,0,
00:08.3,0.000886917,0.003787994,0.01722908,0,
00:08.3,0.000881195,0.003799438,0.01722908,0,
00:08.3,0.000886917,0.003799438,0.01722908,0,
00:08.3,0.000886917,0.003782272,0.017223358,0,
00:08.3,0.000881195,0.003770828,0.01722908,0,
00:08.3,0.000886917,0.00377655,0.017223358,0,
00:08.3,0.000881195,0.003793716,0.01722908,0,
00:08.3,0.000886917,0.003805161,0.01722908,0,
00:08.3,0.000886917,0.003787994,0.01722908,0,
00:08.3,0.000886917,0.00377655,0.01722908,0,
00:08.3,0.000886917,0.003787994,0.01722908,0,
00:08.3,0.000881195,0.003799438,0.01722908,0,
00:08.3,0.000881195,0.003793716,0.01722908,0,
00:08.3,0.000881195,0.00377655,0.01722908,0,
00:08.3,0.000881195,0.003770828,0.01722908,0,
00:08.3,0.000881195,0.003787994,0.01722908,0,
00:08.3,0.000881195,0.003805161,0.01722908,0,
00:08.3,0.000881195,0.003799438,0.017223358,0,
00:08.3,0.000881195,0.00377655,0.01722908,0,
00:08.3,0.000881195,0.003782272,0.01722908,0,
00:08.3,0.000886917,0.003799438,0.01722908,0,
00:08.3,0.000881195,0.003799438,0.01722908,0,
00:08.3,0.000881195,0.003793716,0.01722908,0,
00:08.3,0.000881195,0.003782272,0.01722908,0,
00:08.4,0.000881195,0.003770828,0.01722908,0,
00:08.4,0.000886917,0.003799438,0.01722908,0,
00:08.4,0.000886917,0.003805161,0.01722908,0,
00:08.4,0.000881195,0.003799438,0.01722908,0,
00:08.4,0.000881195,0.003787994,0.01722908,0,
00:08.4,0.000881195,0.00377655,0.01722908,0,
00:08.4,0.000881195,0.003787994,0.01722908,0,
00:08.4,0.000881195,0.003799438,0.01722908,0,
00:08.4,0.000881195,0.003793716,0.01722908,0,
00:08.4,0.000886917,0.003782272,0.01722908,0,
00:08.4,0.000886917,0.00377655,0.01722908,0,
00:08.4,0.000886917,0.003782272,0.01722908,0,
00:08.4,0.000881195,0.003799438,0.01722908,0,
00:08.4,0.000881195,0.003799438,0.01722908,0,
00:08.4,0.000881195,0.003782272,0.01722908,0,
00:08.4,0.000881195,0.00377655,0.01722908,0,
00:08.4,0.000881195,0.003793716,0.01722908,0,
00:08.4,0.000881195,0.003805161,0.01722908,0,
00:08.4,0.000881195,0.003799438,0.01722908,0,
00:08.4,0.000881195,0.003782272,0.017223358,0,
00:08.4,0.000881195,0.003770828,0.017223358,0,
00:08.4,0.000881195,0.003787994,0.01722908,0,
00:08.4,0.000886917,0.003793716,0.01722908,0,
00:08.4,0.000881195,0.003787994,0.01722908,0,
00:08.4,0.000881195,0.003787994,0.017223358,0,
00:08.5,0.000881195,0.003787994,0.017223358,0,
00:08.5,0.000881195,0.003787994,0.01722908,0,
00:08.5,0.000886917,0.003799438,0.01722908,0,
00:08.5,0.000886917,0.003793716,0.01722908,0,
00:08.5,0.000886917,0.003787994,0.01722908,0,
00:08.5,0.000886917,0.003782272,0.01722908,0,
00:08.5,0.000886917,0.003793716,0.01722908,0,
00:08.5,0.000886917,0.003805161,0.01722908,0,
00:08.5,0.000886917,0.003799438,0.01722908,0,
00:08.5,0.000881195,0.00377655,0.01722908,0,
00:08.5,0.000881195,0.003770828,0.01722908,0,
00:08.5,0.000881195,0.003793716,0.01722908,0,
00:08.5,0.000881195,0.003799438,0.01722908,0,
00:08.5,0.000881195,0.003799438,0.01722908,0,
00:08.5,0.000881195,0.003787994,0.017223358,0,
00:08.5,0.000881195,0.00377655,0.017223358,0,
00:08.5,0.000886917,0.003793716,0.01722908,0,
00:08.5,0.000881195,0.003799438,0.01722908,0,
00:08.5,0.000886917,0.003793716,0.017223358,0,
00:08.5,0.000886917,0.00377655,0.017223358,0,
00:08.5,0.000886917,0.00377655,0.01722908,0,
00:08.5,0.000886917,0.003782272,0.01722908,0,
00:08.5,0.000886917,0.003793716,0.01722908,0,
00:08.5,0.000881195,0.003787994,0.01722908,0,
00:08.5,0.000881195,0.003770828,0.017223358,0,
00:08.6,0.000886917,0.003782272,0.017223358,0,
00:08.6,0.000886917,0.003793716,0.01722908,0,
00:08.6,0.000886917,0.003799438,0.01722908,0,
00:08.6,0.000881195,0.003793716,0.01722908,0,
00:08.6,0.000881195,0.003782272,0.01722908,0,
00:08.6,0.000886917,0.00377655,0.01722908,0,
00:08.6,0.000886917,0.003787994,0.01722908,0,
00:08.6,0.000881195,0.003799438,0.01722908,0,
00:08.6,0.000881195,0.003793716,0.01722908,0,
00:08.6,0.000881195,0.00377655,0.01722908,0,
00:08.6,0.000881195,0.003770828,0.01722908,0,
00:08.6,0.000881195,0.003782272,0.017234802,0,
00:08.6,0.000881195,0.003793716,0.017234802,0,
00:08.6,0.000881195,0.003793716,0.01722908,0,
00:08.6,0.000886917,0.003782272,0.01722908,0,
00:08.6,0.000886917,0.003782272,0.01722908,0,
00:08.6,0.000886917,0.003787994,0.01722908,0,
00:08.6,0.000881195,0.003793716,0.017234802,0,
00:08.6,0.000881195,0.003787994,0.01722908,0,
00:08.6,0.000886917,0.003782272,0.017234802,0,
00:08.6,0.000886917,0.003770828,0.017234802,0,
00:08.6,0.000886917,0.003782272,0.017240524,0,
00:08.6,0.000886917,0.003799438,0.017240524,0,
00:08.6,0.000886917,0.003793716,0.017240524,0,
00:08.6,0.000886917,0.003782272,0.017234802,0,
00:08.7,0.000886917,0.003782272,0.017240524,0,
00:08.7,0.000886917,0.003793716,0.017240524,0,
00:08.7,0.000886917,0.003787994,0.017240524,0,
00:08.7,0.000886917,0.003782272,0.017234802,0,
00:08.7,0.000886917,0.003782272,0.017234802,0,
00:08.7,0.000886917,0.00377655,0.017234802,0,
00:08.7,0.000886917,0.003782272,0.017240524,0,
00:08.7,0.000886917,0.003793716,0.017240524,0,
00:08.7,0.000886917,0.003793716,0.017240524,0,
00:08.7,0.000886917,0.00377655,0.017240524,0,
00:08.7,0.000886917,0.003765106,0.017240524,0,
00:08.7,0.000881195,0.00377655,0.017240524,0,
00:08.7,0.000886917,0.003805161,0.017240524,0,
00:08.7,0.000886917,0.003799438,0.017240524,0,
00:08.7,0.000886917,0.003782272,0.017240524,0,
00:08.7,0.000881195,0.00377655,0.017240524,0,
00:08.7,0.000886917,0.003782272,0.017240524,0,
00:08.7,0.000886917,0.003799438,0.017240524,0,
00:08.7,0.000886917,0.003793716,0.017240524,0,
00:08.7,0.000886917,0.00377655,0.017240524,0,
00:08.7,0.000886917,0.00377655,0.017240524,0,
00:08.7,0.000886917,0.003782272,0.017240524,0,
00:08.7,0.000886917,0.003793716,0.017240524,0,
00:08.7,0.000886917,0.003799438,0.017240524,0,
00:08.7,0.000886917,0.003787994,0.017240524,0,
00:08.8,0.000886917,0.00377655,0.017240524,0,
00:08.8,0.000886917,0.003793716,0.017240524,0,
00:08.8,0.000886917,0.003799438,0.017240524,0,
00:08.8,0.000886917,0.003787994,0.017240524,0,
00:08.8,0.000886917,0.00377655,0.017240524,0,
00:08.8,0.000886917,0.003770828,0.017246246,0,
00:08.8,0.000886917,0.003787994,0.017246246,0,
00:08.8,0.000886917,0.003799438,0.017246246,0,
00:08.8,0.000886917,0.003787994,0.017246246,0,
00:08.8,0.000892639,0.00377655,0.017240524,0,
00:08.8,0.000892639,0.00377655,0.017240524,0,
00:08.8,0.000886917,0.003782272,0.017240524,0,
00:08.8,0.000886917,0.003787994,0.017240524,0,
00:08.8,0.000886917,0.003787994,0.017240524,0,
00:08.8,0.000886917,0.003782272,0.017240524,0,
00:08.8,0.000886917,0.00377655,0.017246246,0,
00:08.8,0.000886917,0.003782272,0.017246246,0,
00:08.8,0.000886917,0.003799438,0.017246246,0,
00:08.8,0.000886917,0.003793716,0.017246246,0,
00:08.8,0.000892639,0.00377655,0.017246246,0,
00:08.8,0.000886917,0.00377655,0.017246246,0,
00:08.8,0.000886917,0.003793716,0.017246246,0,
00:08.8,0.000886917,0.003805161,0.017246246,0,
00:08.8,0.000886917,0.003787994,0.017251968,0,
00:08.8,0.000886917,0.00377655,0.017246246,0,
00:08.9,0.000886917,0.00377655,0.017246246,0,
00:08.9,0.000886917,0.003787994,0.017246246,0,
00:08.9,0.000886917,0.003805161,0.017246246,0,
00:08.9,0.000886917,0.003793716,0.017246246,0,
00:08.9,0.000886917,0.00377655,0.017246246,0,
00:08.9,0.000886917,0.003770828,0.017246246,0,
00:08.9,0.000886917,0.003787994,0.017246246,0,
00:08.9,0.000886917,0.003805161,0.017246246,0,
00:08.9,0.000881195,0.003787994,0.017246246,0,
00:08.9,0.000881195,0.00377655,0.017246246,0,
00:08.9,0.000886917,0.003770828,0.017246246,0,
00:08.9,0.000886917,0.003793716,0.017246246,0,
00:08.9,0.000886917,0.003799438,0.017246246,0,
00:08.9,0.000881195,0.003793716,0.017246246,0,
00:08.9,0.000881195,0.003782272,0.017246246,0,
00:08.9,0.000881195,0.00377655,0.017246246,0,
00:08.9,0.000881195,0.003793716,0.017246246,0,
00:08.9,0.000881195,0.003805161,0.017246246,0,
00:08.9,0.000881195,0.003793716,0.017246246,0,
00:08.9,0.000881195,0.003770828,0.017246246,0,
00:08.9,0.000881195,0.003770828,0.017246246,0,
00:08.9,0.000881195,0.003787994,0.017246246,0,
00:08.9,0.000881195,0.003799438,0.017246246,0,
00:08.9,0.000881195,0.003793716,0.017246246,0,
00:08.9,0.000881195,0.003787994,0.017246246,0,
00:09.0,0.000881195,0.003782272,0.017246246,0,
00:09.0,0.000881195,0.003782272,0.017246246,0,
00:09.0,0.000881195,0.003787994,0.017246246,0,
00:09.0,0.000881195,0.003793716,0.017246246,0,
00:09.0,0.000881195,0.003787994,0.017246246,0,
00:09.0,0.000881195,0.003787994,0.017246246,0,
00:09.0,0.000881195,0.003793716,0.017246246,0,
00:09.0,0.000881195,0.003793716,0.017246246,0,
00:09.0,0.000881195,0.003787994,0.017246246,0,
00:09.0,0.000881195,0.00377655,0.017246246,0,
00:09.0,0.000881195,0.003782272,0.017246246,0,
00:09.0,0.000886917,0.003799438,0.017246246,0,
00:00:09,0.000881195,0.003799438,0.017246246,0,
00:09.0,0.000881195,0.003787994,0.017246246,0,
00:09.0,0.000881195,0.003782272,0.017246246,0,
00:09.0,0.000881195,0.003782272,0.017246246,0,
00:09.0,0.000881195,0.003787994,0.017246246,0,
00:09.0,0.000881195,0.003799438,0.017246246,0,
00:09.0,0.000881195,0.003793716,0.017246246,0,
00:09.0,0.000881195,0.00377655,0.017246246,0,
00:09.0,0.000881195,0.00377655,0.017246246,0,
00:09.0,0.000886917,0.003793716,0.017246246,0,
00:09.0,0.000881195,0.003793716,0.017240524,0,
00:09.0,0.000881195,0.003782272,0.017240524,0,
00:09.0,0.000881195,0.00377655,0.017246246,0,
00:09.1,0.000881195,0.00377655,0.017246246,0,
00:09.1,0.000881195,0.003787994,0.017246246,0,
00:09.1,0.000881195,0.003799438,0.017246246,0,
00:09.1,0.000881195,0.003787994,0.017246246,0,
00:09.1,0.000881195,0.003770828,0.017246246,0,
00:09.1,0.000875473,0.003765106,0.017246246,0,
00:09.1,0.000875473,0.003787994,0.017246246,0,
00:09.1,0.000881195,0.003805161,0.017246246,0,
00:09.1,0.000875473,0.003793716,0.017246246,0,
00:09.1,0.000881195,0.003782272,0.017246246,0,
00:09.1,0.000881195,0.003782272,0.017246246,0,
00:09.1,0.000881195,0.003787994,0.017246246,0,
00:09.1,0.000875473,0.003799438,0.017246246,0,
00:09.1,0.000875473,0.003787994,0.017246246,0,
00:09.1,0.000881195,0.00377655,0.017246246,0,
00:09.1,0.000881195,0.003770828,0.017246246,0,
00:09.1,0.000881195,0.003782272,0.017246246,0,
00:09.1,0.000875473,0.003799438,0.017246246,0,
00:09.1,0.000875473,0.003793716,0.017246246,0,
00:09.1,0.000881195,0.003782272,0.017246246,0,
00:09.1,0.000881195,0.00377655,0.017246246,0,
00:09.1,0.000875473,0.003787994,0.017246246,0,
00:09.1,0.000875473,0.003793716,0.017246246,0,
00:09.1,0.000875473,0.003782272,0.017246246,0,
00:09.1,0.000875473,0.003770828,0.017246246,0,
00:09.2,0.000881195,0.003787994,0.017251968,0,
00:09.2,0.000881195,0.003787994,0.017251968,0,
00:09.2,0.000881195,0.003793716,0.017251968,0,
00:09.2,0.000881195,0.003787994,0.017251968,0,
00:09.2,0.000881195,0.003770828,0.017251968,0,
00:09.2,0.000881195,0.00377655,0.017251968,0,
00:09.2,0.000881195,0.003793716,0.017251968,0,
00:09.2,0.000881195,0.003799438,0.017251968,0,
00:09.2,0.000881195,0.003787994,0.017251968,0,
00:09.2,0.000881195,0.00377655,0.017246246,0,
00:09.2,0.000881195,0.003782272,0.017251968,0,
00:09.2,0.000881195,0.003787994,0.017251968,0,
00:09.2,0.000886917,0.003805161,0.017251968,0,
00:09.2,0.000886917,0.003787994,0.017251968,0,
00:09.2,0.000886917,0.003770828,0.017251968,0,
00:09.2,0.000881195,0.003782272,0.017251968,0,
00:09.2,0.000881195,0.003799438,0.017251968,0,
00:09.2,0.000881195,0.003799438,0.017251968,0,
00:09.2,0.000881195,0.003787994,0.017251968,0,
00:09.2,0.000886917,0.00377655,0.017251968,0,
00:09.2,0.000886917,0.003782272,0.017251968,0,
00:09.2,0.000886917,0.003799438,0.017251968,0,
00:09.2,0.000886917,0.003799438,0.017251968,0,
00:09.2,0.000881195,0.003787994,0.017251968,0,
00:09.2,0.000881195,0.003770828,0.017251968,0,
00:09.3,0.000881195,0.003770828,0.017251968,0,
00:09.3,0.000881195,0.003787994,0.017251968,0,
00:09.3,0.000875473,0.003793716,0.017251968,0,
00:09.3,0.000875473,0.003787994,0.017251968,0,
00:09.3,0.000875473,0.003782272,0.017251968,0,
00:09.3,0.000875473,0.00377655,0.017251968,0,
00:09.3,0.000881195,0.003793716,0.017251968,0,
00:09.3,0.000881195,0.003805161,0.017251968,0,
00:09.3,0.000881195,0.003793716,0.017251968,0,
00:09.3,0.000881195,0.00377655,0.017246246,0,
00:09.3,0.000875473,0.00377655,0.017246246,0,
00:09.3,0.000875473,0.003787994,0.017246246,0,
00:09.3,0.000875473,0.003793716,0.017246246,0,
00:09.3,0.000875473,0.003782272,0.017246246,0,
00:09.3,0.000875473,0.003770828,0.017246246,0,
00:09.3,0.000881195,0.003782272,0.017246246,0,
00:09.3,0.000881195,0.003793716,0.017251968,0,
00:09.3,0.000881195,0.003793716,0.017251968,0,
00:09.3,0.000881195,0.003787994,0.017246246,0,
00:09.3,0.000881195,0.00377655,0.017246246,0,
00:09.3,0.000881195,0.003782272,0.017251968,0,
00:09.3,0.000881195,0.003787994,0.017251968,0,
00:09.3,0.000881195,0.003787994,0.017246246,0,
00:09.3,0.000881195,0.003787994,0.017246246,0,
00:09.3,0.000881195,0.003787994,0.017246246,0,
00:09.4,0.000881195,0.003787994,0.017246246,0,
00:09.4,0.000881195,0.003787994,0.017246246,0,
00:09.4,0.000881195,0.003793716,0.017246246,0,
00:09.4,0.000881195,0.003799438,0.017246246,0,
00:09.4,0.000886917,0.003782272,0.017246246,0,
00:09.4,0.000881195,0.003782272,0.017246246,0,
00:09.4,0.000881195,0.003793716,0.017246246,0,
00:09.4,0.000881195,0.003799438,0.017246246,0,
00:09.4,0.000881195,0.003787994,0.017240524,0,
00:09.4,0.000881195,0.003782272,0.017240524,0,
00:09.4,0.000881195,0.003787994,0.017246246,0,
00:09.4,0.000881195,0.003793716,0.017246246,0,
00:09.4,0.000881195,0.003793716,0.017246246,0,
00:09.4,0.000881195,0.003787994,0.017240524,0,
00:09.4,0.000881195,0.00377655,0.017240524,0,
00:09.4,0.000881195,0.00377655,0.017240524,0,
00:09.4,0.000881195,0.003799438,0.017246246,0,
00:09.4,0.000881195,0.003810883,0.017240524,0,
00:09.4,0.000881195,0.003793716,0.017246246,0,
00:09.4,0.000881195,0.003782272,0.017246246,0,
00:09.4,0.000881195,0.003782272,0.017246246,0,
00:09.4,0.000881195,0.003793716,0.017246246,0,
00:09.4,0.000881195,0.003787994,0.017246246,0,
00:09.4,0.000881195,0.003793716,0.017246246,0,
00:09.4,0.000886917,0.003793716,0.017246246,0,
00:09.5,0.000881195,0.003782272,0.017246246,0,
00:09.5,0.000881195,0.003793716,0.017246246,0,
00:09.5,0.000881195,0.003805161,0.017246246,0,
00:09.5,0.000881195,0.003793716,0.017246246,0,
00:09.5,0.000881195,0.003770828,0.017246246,0,
00:09.5,0.000881195,0.003782272,0.017246246,0,
00:09.5,0.000881195,0.003805161,0.017246246,0,
00:09.5,0.000881195,0.003805161,0.017246246,0,
00:09.5,0.000881195,0.003793716,0.017240524,0,
00:09.5,0.000881195,0.003782272,0.017240524,0,
00:09.5,0.000881195,0.00377655,0.017240524,0,
00:09.5,0.000881195,0.003782272,0.017240524,0,
00:09.5,0.000881195,0.003787994,0.017240524,0,
00:09.5,0.000881195,0.003787994,0.017240524,0,
00:09.5,0.000881195,0.003770828,0.017240524,0,
00:09.5,0.000881195,0.00377655,0.017240524,0,
00:09.5,0.000881195,0.003799438,0.017240524,0,
00:09.5,0.000881195,0.003799438,0.017240524,0,
00:09.5,0.000875473,0.003787994,0.017240524,0,
00:09.5,0.000881195,0.00377655,0.017240524,0,
00:09.5,0.000881195,0.00377655,0.017240524,0,
00:09.5,0.000881195,0.003787994,0.017240524,0,
00:09.5,0.000881195,0.003787994,0.017246246,0,
00:09.5,0.000881195,0.00377655,0.017240524,0,
00:09.5,0.000881195,0.003782272,0.017246246,0,
00:09.6,0.000881195,0.003782272,0.017246246,0,
00:09.6,0.000881195,0.003787994,0.017246246,0,
00:09.6,0.000881195,0.003787994,0.017246246,0,
00:09.6,0.000881195,0.003782272,0.017246246,0,
00:09.6,0.000886917,0.003782272,0.017246246,0,
00:09.6,0.000886917,0.00377655,0.017246246,0,
00:09.6,0.000881195,0.003793716,0.017246246,0,
00:09.6,0.000881195,0.003793716,0.017246246,0,
00:09.6,0.000881195,0.003782272,0.017246246,0,
00:09.6,0.000881195,0.00377655,0.017246246,0,
00:09.6,0.000881195,0.00377655,0.017246246,0,
00:09.6,0.000881195,0.003799438,0.017251968,0,
00:09.6,0.000881195,0.003799438,0.017251968,0,
00:09.6,0.000881195,0.003787994,0.017251968,0,
00:09.6,0.000881195,0.00377655,0.017251968,0,
00:09.6,0.000881195,0.003782272,0.017251968,0,
00:09.6,0.000881195,0.003793716,0.017251968,0,
00:09.6,0.000881195,0.003799438,0.017251968,0,
00:09.6,0.000881195,0.003782272,0.017251968,0,
00:09.6,0.000881195,0.003770828,0.017251968,0,
00:09.6,0.000881195,0.003782272,0.017251968,0,
00:09.6,0.000881195,0.003793716,0.01725769,0,
00:09.6,0.000881195,0.003793716,0.01725769,0,
00:09.6,0.000881195,0.003787994,0.01725769,0,
00:09.6,0.000886917,0.003782272,0.017251968,0,
00:09.7,0.000886917,0.003770828,0.01725769,0,
00:09.7,0.000881195,0.003782272,0.01725769,0,
00:09.7,0.000881195,0.003793716,0.01725769,0,
00:09.7,0.000881195,0.003793716,0.01725769,0,
00:09.7,0.000886917,0.003782272,0.01725769,0,
00:09.7,0.000886917,0.00377655,0.017263412,0,
00:09.7,0.000881195,0.003782272,0.017263412,0,
00:09.7,0.000881195,0.003799438,0.017263412,0,
00:09.7,0.000886917,0.003793716,0.017263412,0,
00:09.7,0.000886917,0.00377655,0.017263412,0,
00:09.7,0.000886917,0.003782272,0.017269135,0,
00:09.7,0.000881195,0.003787994,0.017269135,0,
00:09.7,0.000881195,0.003787994,0.017263412,0,
00:09.7,0.000881195,0.003782272,0.017269135,0,
00:09.7,0.000881195,0.003765106,0.017269135,0,
00:09.7,0.000881195,0.003765106,0.017269135,0,
00:09.7,0.000875473,0.003787994,0.017269135,0,
00:09.7,0.000875473,0.003793716,0.017274857,0,
00:09.7,0.000875473,0.003782272,0.017269135,0,
00:09.7,0.000881195,0.00377655,0.017274857,0,
00:09.7,0.000881195,0.003782272,0.017274857,0,
00:09.7,0.000881195,0.003787994,0.017274857,0,
00:09.7,0.000881195,0.003793716,0.017274857,0,
00:09.7,0.000881195,0.003787994,0.017274857,0,
00:09.7,0.000881195,0.003770828,0.017274857,0,
00:09.8,0.000881195,0.00377655,0.017280579,0,
00:09.8,0.000881195,0.003782272,0.017280579,0,
00:09.8,0.000881195,0.003799438,0.017280579,0,
00:09.8,0.000881195,0.003782272,0.017280579,0,
00:09.8,0.000881195,0.003765106,0.017280579,0,
00:09.8,0.000881195,0.003770828,0.017280579,0,
00:09.8,0.000875473,0.003787994,0.017286301,0,
00:09.8,0.000875473,0.003793716,0.017286301,0,
00:09.8,0.000881195,0.003782272,0.017286301,0,
00:09.8,0.000881195,0.003770828,0.017286301,0,
00:09.8,0.000881195,0.003765106,0.017286301,0,
00:09.8,0.000875473,0.003765106,0.017286301,0,
00:09.8,0.000881195,0.003782272,0.017292023,0,
00:09.8,0.000881195,0.003782272,0.017286301,0,
00:09.8,0.000881195,0.003765106,0.017292023,0,
00:09.8,0.000881195,0.003782272,0.017292023,0,
00:09.8,0.000881195,0.003787994,0.017292023,0,
00:09.8,0.000881195,0.003787994,0.017292023,0,
00:09.8,0.000875473,0.00377655,0.017292023,0,
00:09.8,0.000875473,0.003765106,0.017292023,0,
00:09.8,0.000875473,0.003765106,0.017297745,0,
00:09.8,0.000875473,0.003782272,0.017297745,0,
00:09.8,0.000875473,0.003787994,0.017297745,0,
00:09.8,0.000875473,0.003770828,0.017297745,0,
00:09.8,0.000875473,0.003765106,0.017297745,0,
00:09.9,0.000875473,0.003770828,0.017297745,0,
00:09.9,0.000875473,0.003782272,0.017303467,0,
00:09.9,0.000875473,0.003787994,0.017303467,0,
00:09.9,0.000875473,0.00377655,0.017303467,0,
00:09.9,0.000875473,0.003759384,0.017303467,0,
00:09.9,0.000875473,0.003765106,0.017303467,0,
00:09.9,0.000875473,0.003787994,0.017303467,0,
00:09.9,0.000875473,0.003787994,0.017303467,0,
00:09.9,0.000875473,0.003770828,0.017309189,0,
00:09.9,0.000875473,0.003765106,0.017309189,0,
00:09.9,0.000875473,0.003770828,0.017309189,0,
00:09.9,0.000881195,0.003787994,0.017314911,0,
00:09.9,0.000875473,0.003787994,0.017314911,0,
00:09.9,0.000875473,0.00377655,0.017314911,0,
00:09.9,0.000881195,0.003765106,0.017314911,0,
00:09.9,0.000881195,0.003770828,0.017320633,0,
00:09.9,0.000881195,0.003782272,0.017320633,0,
00:09.9,0.000881195,0.003782272,0.017320633,0,
00:09.9,0.000881195,0.003765106,0.017320633,0,
00:09.9,0.000881195,0.003759384,0.017320633,0,
00:09.9,0.000881195,0.003765106,0.017326355,0,
00:09.9,0.000881195,0.003782272,0.017326355,0,
00:09.9,0.000881195,0.003787994,0.017326355,0,
00:09.9,0.000881195,0.00377655,0.017326355,0,
00:09.9,0.000881195,0.003765106,0.017326355,0,
00:10.0,0.000881195,0.003770828,0.017332077,0,
00:10.0,0.000881195,0.003782272,0.017337799,0,
00:10.0,0.000881195,0.00377655,0.017337799,0,
00:10.0,0.000881195,0.003770828,0.017337799,0,
00:10.0,0.000881195,0.003759384,0.017337799,0,
00:10.0,0.000881195,0.003765106,0.017343521,0,
00:10.0,0.000881195,0.003782272,0.017343521,0,
00:10.0,0.000875473,0.003782272,0.017343521,0,
00:10.0,0.000875473,0.003765106,0.017343521,0,
00:10.0,0.000875473,0.003759384,0.017343521,0,
00:10.0,0.000881195,0.003765106,0.017349243,0,
00:10.0,0.000881195,0.003782272,0.017349243,0,
00:00:10,0.000881195,0.003787994,0.017349243,0,
00:10.0,0.000881195,0.003770828,0.017349243,0,
00:10.0,0.000881195,0.003759384,0.017349243,0,
00:10.0,0.000881195,0.003765106,0.017354965,0,
00:10.0,0.000881195,0.003782272,0.017354965,0,
00:10.0,0.000881195,0.00377655,0.017354965,0,
00:10.0,0.000875473,0.003770828,0.017360687,0,
00:10.0,0.000881195,0.003765106,0.017360687,0,
00:10.0,0.000881195,0.003770828,0.017366409,0,
00:10.0,0.000881195,0.003782272,0.017366409,0,
00:10.0,0.000881195,0.00377655,0.017366409,0,
00:10.0,0.000875473,0.003770828,0.017366409,0,
00:10.0,0.000881195,0.003765106,0.017372131,0,
00:10.1,0.000881195,0.003765106,0.017372131,0,
00:10.1,0.000881195,0.003782272,0.017372131,0,
00:10.1,0.000881195,0.003787994,0.017372131,0,
00:10.1,0.000875473,0.003770828,0.017377853,0,
00:10.1,0.000875473,0.003759384,0.017377853,0,
00:10.1,0.000875473,0.003765106,0.017383575,0,
00:10.1,0.000875473,0.003770828,0.017383575,0,
00:10.1,0.000875473,0.00377655,0.017383575,0,
00:10.1,0.000881195,0.00377655,0.017383575,0,
00:10.1,0.000881195,0.003765106,0.017383575,0,
00:10.1,0.000881195,0.003770828,0.017383575,0,
00:10.1,0.000881195,0.003782272,0.017389297,0,
00:10.1,0.000881195,0.00377655,0.017389297,0,
00:10.1,0.000881195,0.003759384,0.017389297,0,
00:10.1,0.000881195,0.003759384,0.017389297,0,
00:10.1,0.000881195,0.003770828,0.01739502,0,
00:10.1,0.000875473,0.003782272,0.01739502,0,
00:10.1,0.000875473,0.003782272,0.017400742,0,
00:10.1,0.000875473,0.003765106,0.017400742,0,
00:10.1,0.000875473,0.003753662,0.017400742,0,
00:10.1,0.000875473,0.003770828,0.017406464,0,
00:10.1,0.000875473,0.003782272,0.017406464,0,
00:10.1,0.000875473,0.003782272,0.017406464,0,
00:10.1,0.000875473,0.003770828,0.017406464,0,
00:10.1,0.000875473,0.003759384,0.017406464,0,
00:10.2,0.000875473,0.003765106,0.017412186,0,
00:10.2,0.000875473,0.003782272,0.017412186,0,
00:10.2,0.000875473,0.003782272,0.017412186,0,
00:10.2,0.000875473,0.003765106,0.017412186,0,
00:10.2,0.000875473,0.003759384,0.017412186,0,
00:10.2,0.000875473,0.003765106,0.017412186,0,
00:10.2,0.000875473,0.00377655,0.017417908,0,
00:10.2,0.000875473,0.003770828,0.017417908,0,
00:10.2,0.000875473,0.003765106,0.01742363,0,
00:10.2,0.000875473,0.00374794,0.01742363,0,
00:10.2,0.000875473,0.00374794,0.017429352,0,
00:10.2,0.000875473,0.003770828,0.017429352,0,
00:10.2,0.000875473,0.003782272,0.017429352,0,
00:10.2,0.000875473,0.00377655,0.017429352,0,
00:10.2,0.000875473,0.003753662,0.017429352,0,
00:10.2,0.000881195,0.003759384,0.017435074,0,
00:10.2,0.000881195,0.00377655,0.017435074,0,
00:10.2,0.000875473,0.00377655,0.017435074,0,
00:10.2,0.000875473,0.003765106,0.017435074,0,
00:10.2,0.000881195,0.003753662,0.017435074,0,
00:10.2,0.000881195,0.003759384,0.017440796,0,
00:10.2,0.000875473,0.00377655,0.017440796,0,
00:10.2,0.000875473,0.003782272,0.017440796,0,
00:10.2,0.000875473,0.003770828,0.017440796,0,
00:10.2,0.000881195,0.003759384,0.017446518,0,
00:10.3,0.000881195,0.003765106,0.017446518,0,
00:10.3,0.000881195,0.003770828,0.017446518,0,
00:10.3,0.000881195,0.003770828,0.01745224,0,
