Elapsed_Time,EMG1,EMG2,EMG3,BioRadio Event,Unnamed: 5
00:00:00,0.004245758,0.00047493,0.013458252,0,
00:00.0,0.004205704,0.000469208,0.013458252,0,
00:00.0,0.00419426,0.000469208,0.013469696,0,
00:00.0,0.00425148,0.000463486,0.013458252,0,
00:00.0,0.004291534,0.000486374,0.013435364,0,
00:00.0,0.004268646,0.00050354,0.013458252,0,
00:00.0,0.00425148,0.000497818,0.013463974,0,
00:00.0,0.004245758,0.000463486,0.013486862,0,
00:00.0,0.004217148,0.000423431,0.01350975,0,
00:00.0,0.004234314,0.000440598,0.01350975,0,
00:00.0,0.004268646,0.000463486,0.013515472,0,
00:00.0,0.004205704,0.00047493,0.013515472,0,
00:00.0,0.004245758,0.000492096,0.01350975,0,
00:00.1,0.004268646,0.000480652,0.013498306,0,
00:00.1,0.004228592,0.000480652,0.013538361,0,
00:00.1,0.004217148,0.00047493,0.013526917,0,
00:00.1,0.004274368,0.000463486,0.01350975,0,
00:00.1,0.004245758,0.000463486,0.01350975,0,
00:00.1,0.004262924,0.000492096,0.013544083,0,
00:00.1,0.00425148,0.000486374,0.013538361,0,
00:00.1,0.004240036,0.000463486,0.013538361,0,
00:00.1,0.004211426,0.000417709,0.013549805,0,
00:00.1,0.00422287,0.000469208,0.013566971,0,
00:00.1,0.00425148,0.000492096,0.013572693,0,
00:00.1,0.00425148,0.000480652,0.013578415,0,
00:00.1,0.00425148,0.000463486,0.013555527,0,
00:00.1,0.004217148,0.00047493,0.013561249,0,
00:00.1,0.004228592,0.00050354,0.013584137,0,
00:00.1,0.004262924,0.00047493,0.013589859,0,
00:00.1,0.004274368,0.00047493,0.013578415,0,
00:00.1,0.00425148,0.000492096,0.013584137,0,
00:00.1,0.00422287,0.000514984,0.013601303,0,
00:00.1,0.00425148,0.00047493,0.013601303,0,
00:00.1,0.004240036,0.000463486,0.013612747,0,
00:00.1,0.004240036,0.000480652,0.013612747,0,
00:00.1,0.004262924,0.000469208,0.013607025,0,
00:00.1,0.004257202,0.000469208,0.013601303,0,
00:00.1,0.004228592,0.000452042,0.013607025,0,
00:00.2,0.004274368,0.00047493,0.013635635,0,
00:00.2,0.00428009,0.000486374,0.013612747,0,
00:00.2,0.004245758,0.000492096,0.013641357,0,
00:00.2,0.004234314,0.000497818,0.013641357,0,
00:00.2,0.004240036,0.00047493,0.013652802,0,
00:00.2,0.004188538,0.00047493,0.013669968,0,
00:00.2,0.00425148,0.000486374,0.013664246,0,
00:00.2,0.00428009,0.00047493,0.013635635,0,
00:00.2,0.004268646,0.00047493,0.01367569,0,
00:00.2,0.004262924,0.000480652,0.01367569,0,
00:00.2,0.004262924,0.000492096,0.013687134,0,
00:00.2,0.004228592,0.000469208,0.01367569,0,
00:00.2,0.00419426,0.000463486,0.013687134,0,
00:00.2,0.004240036,0.000480652,0.0137043,0,
00:00.2,0.004245758,0.000492096,0.013692856,0,
00:00.2,0.004262924,0.000480652,0.013710022,0,
00:00.2,0.004245758,0.00047493,0.013692856,0,
00:00.2,0.004262924,0.000492096,0.013715744,0,
00:00.2,0.004268646,0.000497818,0.013710022,0,
00:00.2,0.004228592,0.000457764,0.013710022,0,
00:00.2,0.004234314,0.000463486,0.013715744,0,
00:00.2,0.00425148,0.000452042,0.01373291,0,
00:00.2,0.004262924,0.000492096,0.013721466,0,
00:00.2,0.004262924,0.000492096,0.013750076,0,
00:00.2,0.004274368,0.000497818,0.013750076,0,
00:00.3,0.004268646,0.000514984,0.01373291,0,
00:00.3,0.004234314,0.000492096,0.013738632,0,
00:00.3,0.004240036,0.000480652,0.013755798,0,
00:00.3,0.004245758,0.000497818,0.013744354,0,
00:00.3,0.00425148,0.000486374,0.013750076,0,
00:00.3,0.004257202,0.000463486,0.013772964,0,
00:00.3,0.004262924,0.000463486,0.013795853,0,
00:00.3,0.004257202,0.000492096,0.013795853,0,
00:00.3,0.004199982,0.000509262,0.013801575,0,
00:00.3,0.004165649,0.00050354,0.013790131,0,
00:00.3,0.00425148,0.000497818,0.013818741,0,
00:00.3,0.004274368,0.000463486,0.013813019,0,
00:00.3,0.004274368,0.000480652,0.013807297,0,
00:00.3,0.004268646,0.000486374,0.013818741,0,
00:00.3,0.004262924,0.000463486,0.013813019,0,
00:00.3,0.004257202,0.000492096,0.013801575,0,
00:00.3,0.004274368,0.000497818,0.013818741,0,
00:00.3,0.004262924,0.000486374,0.013830185,0,
00:00.3,0.004257202,0.000492096,0.013824463,0,
00:00.3,0.004257202,0.000486374,0.013847351,0,
00:00.3,0.004240036,0.000480652,0.013830185,0,
00:00.3,0.004245758,0.000509262,0.013841629,0,
00:00.3,0.00425148,0.000497818,0.013841629,0,
00:00.3,0.004262924,0.000486374,0.013875961,0,
00:00.3,0.004228592,0.000492096,0.013864517,0,
00:00.4,0.00422287,0.000457764,0.013858795,0,
00:00.4,0.00428009,0.000480652,0.013875961,0,
00:00.4,0.00425148,0.000497818,0.013864517,0,
00:00.4,0.004257202,0.000509262,0.013881683,0,
00:00.4,0.004234314,0.000514984,0.013875961,0,
00:00.4,0.004234314,0.00047493,0.013887405,0,
00:00.4,0.004257202,0.000452042,0.013875961,0,
00:00.4,0.004257202,0.000480652,0.013904572,0,
00:00.4,0.004268646,0.000509262,0.013898849,0,
00:00.4,0.00425148,0.000509262,0.013887405,0,
00:00.4,0.004245758,0.000480652,0.013887405,0,
00:00.4,0.004205704,0.000486374,0.013875961,0,
00:00.4,0.004262924,0.00050354,0.013921738,0,
00:00.4,0.004257202,0.000497818,0.013938904,0,
00:00.4,0.004171371,0.000497818,0.01392746,0,
00:00.4,0.004217148,0.000497818,0.013898849,0,
00:00.4,0.004308701,0.000497818,0.013910294,0,
00:00.4,0.004297256,0.00050354,0.01392746,0,
00:00.4,0.00428009,0.000509262,0.013944626,0,
00:00.4,0.00425148,0.00050354,0.013938904,0,
00:00.4,0.004240036,0.00050354,0.013938904,0,
00:00.4,0.00425148,0.000486374,0.013944626,0,
00:00.4,0.004257202,0.000480652,0.01395607,0,
00:00.4,0.004257202,0.000463486,0.013973236,0,
00:00.4,0.00425148,0.000452042,0.013967514,0,
00:00.5,0.00425148,0.00050354,0.013973236,0,
00:00.5,0.004262924,0.000514984,0.013978958,0,
00:00.5,0.004199982,0.000497818,0.013978958,0,
00:00.5,0.004217148,0.00050354,0.013961792,0,
00:00.5,0.004325867,0.000492096,0.013973236,0,
00:00.5,0.004268646,0.000497818,0.013978958,0,
00:00.5,0.004274368,0.00050354,0.01395607,0,
00:00.5,0.004274368,0.00050354,0.014001846,0,
00:00.5,0.004285812,0.000497818,0.014007568,0,
00:00.5,0.004262924,0.000492096,0.014001846,0,
00:00.5,0.00425148,0.000486374,0.014001846,0,
00:00.5,0.004257202,0.000492096,0.01398468,0,
00:00.5,0.004245758,0.00047493,0.014007568,0,
00:00.5,0.004262924,0.000492096,0.01401329,0,
00:00.5,0.004257202,0.00053215,0.013973236,0,
00:00.5,0.004205704,0.000543594,0.01398468,0,
00:00.5,0.004257202,0.000497818,0.014053345,0,
00:00.5,0.004228592,0.000480652,0.014076233,0,
00:00.5,0.004285812,0.000486374,0.014053345,0,
00:00.5,0.004268646,0.000469208,0.014041901,0,
00:00.5,0.004257202,0.000480652,0.014059067,0,
00:00.5,0.004257202,0.000486374,0.014059067,0,
00:00.5,0.004262924,0.000486374,0.014047623,0,
00:00.5,0.004257202,0.000486374,0.014053345,0,
00:00.5,0.004234314,0.00047493,0.014041901,0,
00:00.6,0.00419426,0.00053215,0.014024734,0,
00:00.6,0.004234314,0.00056076,0.013990402,0,
00:00.6,0.004343033,0.000543594,0.014047623,0,
00:00.6,0.004314423,0.000520706,0.014036179,0,
00:00.6,0.004245758,0.000480652,0.014064789,0,
00:00.6,0.004245758,0.000463486,0.014144897,0,
00:00.6,0.00425148,0.000469208,0.01415062,0,
00:00.6,0.004245758,0.00047493,0.014122009,0,
00:00.6,0.004245758,0.00047493,0.014099121,0,
00:00.6,0.004257202,0.000486374,0.014104843,0,
00:00.6,0.004262924,0.000497818,0.014087677,0,
00:00.6,0.004257202,0.00050354,0.014093399,0,
00:00.6,0.004240036,0.000509262,0.014093399,0,
00:00.6,0.004245758,0.00050354,0.014087677,0,
00:00.6,0.004285812,0.000566483,0.014076233,0,
00:00.6,0.00428009,0.000595093,0.014070511,0,
00:00.6,0.00425148,0.000509262,0.014133453,0,
00:00.6,0.004245758,0.000469208,0.014144897,0,
00:00.6,0.00428009,0.00047493,0.014162064,0,
00:00.6,0.00425148,0.000480652,0.014167786,0,
00:00.6,0.004240036,0.000480652,0.014167786,0,
00:00.6,0.004240036,0.000463486,0.014167786,0,
00:00.6,0.00425148,0.000452042,0.014162064,0,
00:00.6,0.004217148,0.000497818,0.01415062,0,
00:00.6,0.00428009,0.000514984,0.014122009,0,
00:00.7,0.00428009,0.000543594,0.014139175,0,
00:00.7,0.004262924,0.000555038,0.014156342,0,
00:00.7,0.004268646,0.000520706,0.014139175,0,
00:00.7,0.004257202,0.000509262,0.01415062,0,
00:00.7,0.004240036,0.00050354,0.014196396,0,
00:00.7,0.004240036,0.000486374,0.014196396,0,
00:00.7,0.004257202,0.00047493,0.014219284,0,
00:00.7,0.004257202,0.00047493,0.014230728,0,
00:00.7,0.004262924,0.000480652,0.014225006,0,
00:00.7,0.00428009,0.000514984,0.01420784,0,
00:00.7,0.00425148,0.000497818,0.014202118,0,
00:00.7,0.00422287,0.000492096,0.014213562,0,
00:00.7,0.00425148,0.000497818,0.01420784,0,
00:00.7,0.004240036,0.000509262,0.014196396,0,
00:00.7,0.004308701,0.000520706,0.01417923,0,
00:00.7,0.004325867,0.000555038,0.014190674,0,
00:00.7,0.004308701,0.000526428,0.014184952,0,
00:00.7,0.004274368,0.000457764,0.014242172,0,
00:00.7,0.004268646,0.00047493,0.014270782,0,
00:00.7,0.004274368,0.000514984,0.014259338,0,
00:00.7,0.004245758,0.000514984,0.01423645,0,
00:00.7,0.004257202,0.00050354,0.014276505,0,
00:00.7,0.00428009,0.000480652,0.014270782,0,
00:00.7,0.004268646,0.00050354,0.014270782,0,
00:00.7,0.004274368,0.00053215,0.014270782,0,
00:00.8,0.004262924,0.000526428,0.014282227,0,
00:00.8,0.004302979,0.00050354,0.014282227,0,
00:00.8,0.004314423,0.000509262,0.014293671,0,
00:00.8,0.004257202,0.000526428,0.014282227,0,
00:00.8,0.004240036,0.000520706,0.014305115,0,
00:00.8,0.004297256,0.000509262,0.014293671,0,
00:00.8,0.004285812,0.000497818,0.014316559,0,
00:00.8,0.004308701,0.000509262,0.014316559,0,
00:00.8,0.004308701,0.000514984,0.014299393,0,
00:00.8,0.00428009,0.000492096,0.014328003,0,
00:00.8,0.004262924,0.000469208,0.014322281,0,
00:00.8,0.004291534,0.00050354,0.014310837,0,
00:00.8,0.004348755,0.000526428,0.014299393,0,
00:00.8,0.004291534,0.00053215,0.014333725,0,
00:00.8,0.004320145,0.000509262,0.014356613,0,
00:00.8,0.004314423,0.000497818,0.014385223,0,
00:00.8,0.004302979,0.000497818,0.014362335,0,
00:00.8,0.004308701,0.000509262,0.014356613,0,
00:00.8,0.004308701,0.000492096,0.014373779,0,
00:00.8,0.004285812,0.00047493,0.014373779,0,
00:00.8,0.004274368,0.000514984,0.014368057,0,
00:00.8,0.004325867,0.000526428,0.014379501,0,
00:00.8,0.004325867,0.00053215,0.014356613,0,
00:00.8,0.004343033,0.000526428,0.014373779,0,
00:00.8,0.004348755,0.000526428,0.014373779,0,
00:00.9,0.004325867,0.00050354,0.014368057,0,
00:00.9,0.00428009,0.000469208,0.014408112,0,
00:00.9,0.004291534,0.000469208,0.014436722,0,
00:00.9,0.004331589,0.00050354,0.014419556,0,
00:00.9,0.004325867,0.000537872,0.014385223,0,
00:00.9,0.004348755,0.000549316,0.014408112,0,
00:00.9,0.004314423,0.000520706,0.014419556,0,
00:00.9,0.004343033,0.000486374,0.014431,0,
00:00.9,0.00425148,0.000486374,0.014448166,0,
00:00.9,0.004337311,0.000497818,0.014425278,0,
00:00.9,0.004348755,0.000514984,0.014431,0,
00:00.9,0.004405975,0.000514984,0.014431,0,
00:00.9,0.004354477,0.000480652,0.014425278,0,
00:00.9,0.004314423,0.000492096,0.014436722,0,
00:00.9,0.004337311,0.000486374,0.014453888,0,
00:00.9,0.004343033,0.000514984,0.01445961,0,
00:00.9,0.004383087,0.000526428,0.014453888,0,
00:00.9,0.004331589,0.000514984,0.014453888,0,
00:00.9,0.004343033,0.00050354,0.01445961,0,
00:00.9,0.004371643,0.000526428,0.014442444,0,
00:00.9,0.004360199,0.000514984,0.014465332,0,
00:00.9,0.004371643,0.000514984,0.01448822,0,
00:00.9,0.004365921,0.00050354,0.014471054,0,
00:00.9,0.004394531,0.000509262,0.014442444,0,
00:00.9,0.004394531,0.000520706,0.014453888,0,
00:01.0,0.004365921,0.000492096,0.014471054,0,
00:01.0,0.004371643,0.000486374,0.014511108,0,
00:01.0,0.004331589,0.00050354,0.014505386,0,
00:01.0,0.004320145,0.000509262,0.014493942,0,
00:01.0,0.004383087,0.00050354,0.014499664,0,
00:01.0,0.004417419,0.00050354,0.014528275,0,
00:01.0,0.004371643,0.000514984,0.014528275,0,
00:01.0,0.004417419,0.000497818,0.014505386,0,
00:01.0,0.004411697,0.00050354,0.014493942,0,
00:01.0,0.004400253,0.000497818,0.014499664,0,
00:01.0,0.004405975,0.000509262,0.014499664,0,
00:01.0,0.004400253,0.000520706,0.01451683,0,
00:00:01,0.004388809,0.00050354,0.014528275,0,
00:01.0,0.004388809,0.000492096,0.014511108,0,
00:01.0,0.004423141,0.000514984,0.01451683,0,
00:01.0,0.004400253,0.000520706,0.014522552,0,
00:01.0,0.004405975,0.000497818,0.014505386,0,
00:01.0,0.004428864,0.000497818,0.014511108,0,
00:01.0,0.004400253,0.000514984,0.014511108,0,
00:01.0,0.004400253,0.000526428,0.014505386,0,
00:01.0,0.004451752,0.000514984,0.014499664,0,
00:01.0,0.004451752,0.000497818,0.014528275,0,
00:01.0,0.004434586,0.000497818,0.014533997,0,
00:01.0,0.004417419,0.000514984,0.01451683,0,
00:01.0,0.004405975,0.000509262,0.014539719,0,
00:01.1,0.004451752,0.00050354,0.014528275,0,
00:01.1,0.004400253,0.000486374,0.014511108,0,
00:01.1,0.004428864,0.000497818,0.014511108,0,
00:01.1,0.004468918,0.000520706,0.014511108,0,
00:01.1,0.004434586,0.000497818,0.014551163,0,
00:01.1,0.004394531,0.000486374,0.01451683,0,
00:01.1,0.00444603,0.000486374,0.014522552,0,
00:01.1,0.004457474,0.000497818,0.01451683,0,
00:01.1,0.004491806,0.000514984,0.014511108,0,
00:01.1,0.004497528,0.000520706,0.014505386,0,
00:01.1,0.004480362,0.000514984,0.014493942,0,
00:01.1,0.004480362,0.000520706,0.01451683,0,
00:01.1,0.004457474,0.000492096,0.014493942,0,
00:01.1,0.004468918,0.000514984,0.014522552,0,
00:01.1,0.004486084,0.000520706,0.01451683,0,
00:01.1,0.004480362,0.000492096,0.014539719,0,
00:01.1,0.004491806,0.00047493,0.014545441,0,
00:01.1,0.004463196,0.000492096,0.014522552,0,
00:01.1,0.004486084,0.000514984,0.014505386,0,
00:01.1,0.004508972,0.000509262,0.014505386,0,
00:01.1,0.004434586,0.000492096,0.014499664,0,
00:01.1,0.004480362,0.000486374,0.01451683,0,
00:01.1,0.004520416,0.000509262,0.014539719,0,
00:01.1,0.004520416,0.000509262,0.014511108,0,
00:01.1,0.004491806,0.000486374,0.014476776,0,
00:01.2,0.00453186,0.000492096,0.01448822,0,
00:01.2,0.004520416,0.000526428,0.014482498,0,
00:01.2,0.00450325,0.000492096,0.01451683,0,
00:01.2,0.004520416,0.00050354,0.014499664,0,
00:01.2,0.004520416,0.000526428,0.014482498,0,
00:01.2,0.004486084,0.000497818,0.014482498,0,
00:01.2,0.004514694,0.00050354,0.014482498,0,
00:01.2,0.004543304,0.000509262,0.014493942,0,
00:01.2,0.00453186,0.000497818,0.014476776,0,
00:01.2,0.004514694,0.000514984,0.01445961,0,
00:01.2,0.004491806,0.00050354,0.014453888,0,
00:01.2,0.004560471,0.000509262,0.01445961,0,
00:01.2,0.004537582,0.000486374,0.014465332,0,
00:01.2,0.00453186,0.000486374,0.014471054,0,
00:01.2,0.004554749,0.000497818,0.014436722,0,
00:01.2,0.004560471,0.000492096,0.014436722,0,
00:01.2,0.004537582,0.00053215,0.014453888,0,
00:01.2,0.004549026,0.000537872,0.014425278,0,
00:01.2,0.004537582,0.000486374,0.014425278,0,
00:01.2,0.00453186,0.000492096,0.014448166,0,
00:01.2,0.004560471,0.000497818,0.01445961,0,
00:01.2,0.00453186,0.00047493,0.014431,0,
00:01.2,0.00453186,0.000486374,0.014436722,0,
00:01.2,0.004606247,0.000492096,0.014431,0,
00:01.2,0.004594803,0.000509262,0.014390945,0,
00:01.3,0.004566193,0.000497818,0.014408112,0,
00:01.3,0.004549026,0.000480652,0.01440239,0,
00:01.3,0.004537582,0.000486374,0.014385223,0,
00:01.3,0.004549026,0.000486374,0.014368057,0,
00:01.3,0.004594803,0.000497818,0.014408112,0,
00:01.3,0.004577637,0.000509262,0.01440239,0,
00:01.3,0.004571915,0.00050354,0.014362335,0,
00:01.3,0.004617691,0.000497818,0.014362335,0,
00:01.3,0.004549026,0.000509262,0.014356613,0,
00:01.3,0.004560471,0.000497818,0.014362335,0,
00:01.3,0.004606247,0.000497818,0.014373779,0,
00:01.3,0.004606247,0.000509262,0.014350891,0,
00:01.3,0.004606247,0.000497818,0.014356613,0,
00:01.3,0.004583359,0.000492096,0.014362335,0,
00:01.3,0.004606247,0.000492096,0.014328003,0,
00:01.3,0.004617691,0.00050354,0.014299393,0,
00:01.3,0.004606247,0.000497818,0.014293671,0,
00:01.3,0.004594803,0.000492096,0.014310837,0,
00:01.3,0.004594803,0.000486374,0.014322281,0,
00:01.3,0.004594803,0.000486374,0.014310837,0,
00:01.3,0.004606247,0.000509262,0.014299393,0,
00:01.3,0.004589081,0.000486374,0.014259338,0,
00:01.3,0.004600525,0.000469208,0.01426506,0,
00:01.3,0.004554749,0.000514984,0.014293671,0,
00:01.3,0.004629135,0.00050354,0.014282227,0,
00:01.4,0.004640579,0.00050354,0.014282227,0,
00:01.4,0.004611969,0.000497818,0.01426506,0,
00:01.4,0.004554749,0.000514984,0.014253616,0,
00:01.4,0.004652023,0.00050354,0.014242172,0,
00:01.4,0.004663467,0.000492096,0.01420784,0,
00:01.4,0.004623413,0.00047493,0.014225006,0,
00:01.4,0.004583359,0.000497818,0.014230728,0,
00:01.4,0.004577637,0.000520706,0.01420784,0,
00:01.4,0.004623413,0.000497818,0.014190674,0,
00:01.4,0.004663467,0.00047493,0.014202118,0,
00:01.4,0.004646301,0.000486374,0.014190674,0,
00:01.4,0.004634857,0.000497818,0.014167786,0,
00:01.4,0.004652023,0.00047493,0.014167786,0,
00:01.4,0.004652023,0.000497818,0.014184952,0,
00:01.4,0.004652023,0.000537872,0.014167786,0,
00:01.4,0.004640579,0.000520706,0.014162064,0,
00:01.4,0.004634857,0.000509262,0.014144897,0,
00:01.4,0.004657745,0.000492096,0.014173508,0,
00:01.4,0.004663467,0.00047493,0.014127731,0,
00:01.4,0.004634857,0.000486374,0.014104843,0,
00:01.4,0.004589081,0.000486374,0.014139175,0,
00:01.4,0.004674911,0.000497818,0.014122009,0,
00:01.4,0.004674911,0.000514984,0.014093399,0,
00:01.4,0.004657745,0.00050354,0.014093399,0,
00:01.4,0.004646301,0.000486374,0.014081955,0,
00:01.5,0.004663467,0.000509262,0.014041901,0,
00:01.5,0.004663467,0.00050354,0.014064789,0,
00:01.5,0.004606247,0.00050354,0.014070511,0,
00:01.5,0.0046978,0.000492096,0.014059067,0,
00:01.5,0.004680634,0.00050354,0.014059067,0,
00:01.5,0.004674911,0.000509262,0.014047623,0,
00:01.5,0.004623413,0.000480652,0.014047623,0,
00:01.5,0.004611969,0.000492096,0.014036179,0,
00:01.5,0.004674911,0.000526428,0.01401329,0,
00:01.5,0.004709244,0.000509262,0.013990402,0,
00:01.5,0.004674911,0.000497818,0.013996124,0,
00:01.5,0.004657745,0.000469208,0.014019012,0,
00:01.5,0.004646301,0.000469208,0.014001846,0,
00:01.5,0.004634857,0.00050354,0.013967514,0,
00:01.5,0.004703522,0.000543594,0.013967514,0,
00:01.5,0.004686356,0.000514984,0.013967514,0,
00:01.5,0.004680634,0.000497818,0.013944626,0,
00:01.5,0.004680634,0.00050354,0.01392746,0,
00:01.5,0.004686356,0.000509262,0.013910294,0,
00:01.5,0.004652023,0.000492096,0.01392746,0,
00:01.5,0.004629135,0.000497818,0.013916016,0,
00:01.5,0.004640579,0.000514984,0.013904572,0,
00:01.5,0.0046978,0.000509262,0.013887405,0,
00:01.5,0.004663467,0.000509262,0.013887405,0,
00:01.5,0.004663467,0.000509262,0.013898849,0,
00:01.6,0.004663467,0.00050354,0.013893127,0,
00:01.6,0.004652023,0.00050354,0.013864517,0,
00:01.6,0.004714966,0.000509262,0.013835907,0,
00:01.6,0.004680634,0.000497818,0.013841629,0,
00:01.6,0.004652023,0.000497818,0.013841629,0,
00:01.6,0.004686356,0.000509262,0.013835907,0,
00:01.6,0.004680634,0.000514984,0.013818741,0,
00:01.6,0.004674911,0.000492096,0.013807297,0,
00:01.6,0.004680634,0.000497818,0.013778687,0,
00:01.6,0.004669189,0.000497818,0.013790131,0,
00:01.6,0.004663467,0.000497818,0.013807297,0,
00:01.6,0.004657745,0.000492096,0.01376152,0,
00:01.6,0.004669189,0.000509262,0.013778687,0,
00:01.6,0.004652023,0.000526428,0.013767242,0,
00:01.6,0.004674911,0.000514984,0.013738632,0,
00:01.6,0.004692078,0.000514984,0.013744354,0,
00:01.6,0.004657745,0.000509262,0.013744354,0,
00:01.6,0.004657745,0.000509262,0.013721466,0,
00:01.6,0.004669189,0.000514984,0.013687134,0,
00:01.6,0.004680634,0.00050354,0.0137043,0,
00:01.6,0.004640579,0.00050354,0.013710022,0,
00:01.6,0.004669189,0.000480652,0.013692856,0,
00:01.6,0.004680634,0.000492096,0.01367569,0,
00:01.6,0.004674911,0.000520706,0.013669968,0,
00:01.6,0.004703522,0.000509262,0.013658524,0,
00:01.7,0.004692078,0.000486374,0.013664246,0,
00:01.7,0.004692078,0.00050354,0.013664246,0,
00:01.7,0.004680634,0.000509262,0.013635635,0,
00:01.7,0.004669189,0.000514984,0.013635635,0,
00:01.7,0.004686356,0.000526428,0.013618469,0,
00:01.7,0.004692078,0.000497818,0.013618469,0,
00:01.7,0.004669189,0.000486374,0.013612747,0,
00:01.7,0.004680634,0.00050354,0.013612747,0,
00:01.7,0.004686356,0.000537872,0.013584137,0,
00:01.7,0.0046978,0.000520706,0.013595581,0,
00:01.7,0.004692078,0.000514984,0.013584137,0,
00:01.7,0.004674911,0.00050354,0.013578415,0,
00:01.7,0.004657745,0.000492096,0.013589859,0,
00:01.7,0.004686356,0.000486374,0.013561249,0,
00:01.7,0.004674911,0.000486374,0.013532639,0,
00:01.7,0.004669189,0.00050354,0.013532639,0,
00:01.7,0.004669189,0.000520706,0.013549805,0,
00:01.7,0.004686356,0.000520706,0.013532639,0,
00:01.7,0.0046978,0.000509262,0.013532639,0,
00:01.7,0.004600525,0.000497818,0.01350975,0,
00:01.7,0.004657745,0.000486374,0.013498306,0,
00:01.7,0.00475502,0.000492096,0.013492584,0,
00:01.7,0.004737854,0.000509262,0.013475418,0,
00:01.7,0.004714966,0.00053215,0.013475418,0,
00:01.7,0.0046978,0.000492096,0.01348114,0,
00:01.8,0.004709244,0.000486374,0.013463974,0,
00:01.8,0.0046978,0.000492096,0.013446808,0,
00:01.8,0.004703522,0.000514984,0.013441086,0,
00:01.8,0.004703522,0.000520706,0.013412476,0,
00:01.8,0.0046978,0.000520706,0.013418198,0,
00:01.8,0.004674911,0.000497818,0.013446808,0,
00:01.8,0.004674911,0.000486374,0.013435364,0,
00:01.8,0.004703522,0.00047493,0.013412476,0,
00:01.8,0.004714966,0.000497818,0.013418198,0,
00:01.8,0.004703522,0.00050354,0.013412476,0,
00:01.8,0.004674911,0.000520706,0.013418198,0,
00:01.8,0.004692078,0.000509262,0.013395309,0,
00:01.8,0.004686356,0.000469208,0.013401031,0,
00:01.8,0.004703522,0.000492096,0.013395309,0,
00:01.8,0.0046978,0.000520706,0.013360977,0,
00:01.8,0.004674911,0.000514984,0.013332367,0,
00:01.8,0.004680634,0.000514984,0.013343811,0,
00:01.8,0.004714966,0.000509262,0.013360977,0,
00:01.8,0.004589081,0.00050354,0.013326645,0,
00:01.8,0.004686356,0.000492096,0.013315201,0,
00:01.8,0.00475502,0.000492096,0.013349533,0,
00:01.8,0.004720688,0.00050354,0.013349533,0,
00:01.8,0.0046978,0.00050354,0.013326645,0,
00:01.8,0.004686356,0.00050354,0.013320923,0,
00:01.8,0.004692078,0.000486374,0.013292313,0,
00:01.9,0.004703522,0.000457764,0.013286591,0,
00:01.9,0.004703522,0.00047493,0.013303757,0,
00:01.9,0.004692078,0.000526428,0.013292313,0,
00:01.9,0.004686356,0.000537872,0.013286591,0,
00:01.9,0.004714966,0.000537872,0.013252258,0,
00:01.9,0.004692078,0.00050354,0.013246536,0,
00:01.9,0.004686356,0.000509262,0.01322937,0,
00:01.9,0.004680634,0.00050354,0.013246536,0,
00:01.9,0.004686356,0.000497818,0.013235092,0,
00:01.9,0.004652023,0.000497818,0.013240814,0,
00:01.9,0.004686356,0.000492096,0.013240814,0,
00:01.9,0.004686356,0.000509262,0.01322937,0,
00:01.9,0.004674911,0.000520706,0.01320076,0,
00:01.9,0.004692078,0.000509262,0.01322937,0,
00:01.9,0.004686356,0.000509262,0.01322937,0,
00:01.9,0.004674911,0.000486374,0.01322937,0,
00:01.9,0.004674911,0.00047493,0.01322937,0,
00:01.9,0.004657745,0.000514984,0.01320076,0,
00:01.9,0.004720688,0.000526428,0.013206482,0,
00:01.9,0.004709244,0.000497818,0.013183594,0,
00:01.9,0.004692078,0.000486374,0.013195038,0,
00:01.9,0.004692078,0.000492096,0.01320076,0,
00:01.9,0.004680634,0.000520706,0.01317215,0,
00:01.9,0.004640579,0.000526428,0.013177872,0,
00:01.9,0.004663467,0.000497818,0.013166428,0,
00:02.0,0.004686356,0.00047493,0.013132095,0,
00:02.0,0.004703522,0.00047493,0.013143539,0,
00:02.0,0.004692078,0.000497818,0.01317215,0,
00:02.0,0.004674911,0.000497818,0.01317215,0,
00:02.0,0.004657745,0.000480652,0.013177872,0,
00:02.0,0.004674911,0.000469208,0.013166428,0,
00:02.0,0.004692078,0.000509262,0.013137817,0,
00:02.0,0.0046978,0.000520706,0.013120651,0,
00:02.0,0.004703522,0.000492096,0.013109207,0,
00:02.0,0.004692078,0.000492096,0.013109207,0,
00:02.0,0.004686356,0.00050354,0.013126373,0,
00:02.0,0.004686356,0.000514984,0.013126373,0,
00:00:02,0.004674911,0.000509262,0.013109207,0,
00:02.0,0.004692078,0.000486374,0.013132095,0,
00:02.0,0.004663467,0.00050354,0.013109207,0,
00:02.0,0.0046978,0.000509262,0.013092041,0,
00:02.0,0.004674911,0.000480652,0.013080597,0,
00:02.0,0.004686356,0.000486374,0.013074875,0,
00:02.0,0.004709244,0.000480652,0.013109207,0,
00:02.0,0.0046978,0.000492096,0.013114929,0,
00:02.0,0.0046978,0.00050354,0.013080597,0,
00:02.0,0.0046978,0.000486374,0.013057709,0,
00:02.0,0.004686356,0.000492096,0.013074875,0,
00:02.0,0.004686356,0.000509262,0.013080597,0,
00:02.0,0.004703522,0.000492096,0.013092041,0,
00:02.1,0.0046978,0.000497818,0.013063431,0,
00:02.1,0.0046978,0.000520706,0.013040543,0,
00:02.1,0.004703522,0.000526428,0.013051987,0,
00:02.1,0.004663467,0.000497818,0.013063431,0,
00:02.1,0.004686356,0.000492096,0.013040543,0,
00:02.1,0.004669189,0.000480652,0.013057709,0,
00:02.1,0.004680634,0.000457764,0.013069153,0,
00:02.1,0.004720688,0.00047493,0.013063431,0,
00:02.1,0.004703522,0.000480652,0.013046265,0,
00:02.1,0.004692078,0.00050354,0.013057709,0,
00:02.1,0.004669189,0.000514984,0.013017654,0,
00:02.1,0.004623413,0.000486374,0.013040543,0,
00:02.1,0.00472641,0.000480652,0.013051987,0,
00:02.1,0.004720688,0.000480652,0.013040543,0,
00:02.1,0.004674911,0.000486374,0.013023376,0,
00:02.1,0.004732132,0.000492096,0.013063431,0,
00:02.1,0.004732132,0.000497818,0.013040543,0,
00:02.1,0.004720688,0.000514984,0.013023376,0,
00:02.1,0.0046978,0.000509262,0.013017654,0,
00:02.1,0.004686356,0.000486374,0.013029099,0,
00:02.1,0.004680634,0.000492096,0.013040543,0,
00:02.1,0.004692078,0.00047493,0.013040543,0,
00:02.1,0.004714966,0.00047493,0.013023376,0,
00:02.1,0.004703522,0.00050354,0.013011932,0,
00:02.1,0.004714966,0.000514984,0.013017654,0,
00:02.2,0.0046978,0.000492096,0.01300621,0,
00:02.2,0.004692078,0.000480652,0.013029099,0,
00:02.2,0.0046978,0.000486374,0.013034821,0,
00:02.2,0.004703522,0.000480652,0.013023376,0,
00:02.2,0.004692078,0.000492096,0.013029099,0,
00:02.2,0.004709244,0.000514984,0.013029099,0,
00:02.2,0.004686356,0.000480652,0.013034821,0,
00:02.2,0.004714966,0.00047493,0.013017654,0,
00:02.2,0.00472641,0.000492096,0.01300621,0,
00:02.2,0.004709244,0.000469208,0.013017654,0,
00:02.2,0.004686356,0.00047493,0.013023376,0,
00:02.2,0.004611969,0.000509262,0.013000488,0,
00:02.2,0.004703522,0.000492096,0.012989044,0,
00:02.2,0.004737854,0.000452042,0.012989044,0,
00:02.2,0.004720688,0.00047493,0.013017654,0,
00:02.2,0.004709244,0.000509262,0.013017654,0,
00:02.2,0.004720688,0.000497818,0.013023376,0,
00:02.2,0.004703522,0.000486374,0.0129776,0,
00:02.2,0.004692078,0.00047493,0.013011932,0,
00:02.2,0.004680634,0.000509262,0.013023376,0,
00:02.2,0.004692078,0.000509262,0.013017654,0,
00:02.2,0.004732132,0.00050354,0.012989044,0,
00:02.2,0.0046978,0.000480652,0.013029099,0,
00:02.2,0.004703522,0.000492096,0.013017654,0,
00:02.2,0.004703522,0.000497818,0.013000488,0,
00:02.3,0.004674911,0.000492096,0.013017654,0,
00:02.3,0.004686356,0.000469208,0.013011932,0,
00:02.3,0.004686356,0.000457764,0.013017654,0,
00:02.3,0.004709244,0.00047493,0.013023376,0,
00:02.3,0.004749298,0.000486374,0.013017654,0,
00:02.3,0.004709244,0.00050354,0.013023376,0,
00:02.3,0.004703522,0.00050354,0.01300621,0,
00:02.3,0.004714966,0.000480652,0.013011932,0,
00:02.3,0.004703522,0.000480652,0.013017654,0,
00:02.3,0.004663467,0.000469208,0.013046265,0,
00:02.3,0.004680634,0.000480652,0.01300621,0,
00:02.3,0.00472641,0.00050354,0.013029099,0,
00:02.3,0.004703522,0.000486374,0.013034821,0,
00:02.3,0.004709244,0.000469208,0.013034821,0,
00:02.3,0.004709244,0.000457764,0.013034821,0,
00:02.3,0.004703522,0.000480652,0.013017654,0,
00:02.3,0.004709244,0.000492096,0.013023376,0,
00:02.3,0.0046978,0.000463486,0.013034821,0,
00:02.3,0.004709244,0.000469208,0.013017654,0,
00:02.3,0.004714966,0.000492096,0.013017654,0,
00:02.3,0.004720688,0.000509262,0.013040543,0,
00:02.3,0.004703522,0.000480652,0.013046265,0,
00:02.3,0.004657745,0.000480652,0.013034821,0,
00:02.3,0.004692078,0.000492096,0.013023376,0,
00:02.3,0.00472641,0.000480652,0.013040543,0,
00:02.4,0.004669189,0.000480652,0.013034821,0,
00:02.4,0.0046978,0.000492096,0.013034821,0,
00:02.4,0.004714966,0.000497818,0.013029099,0,
00:02.4,0.00472641,0.000480652,0.013040543,0,
00:02.4,0.004709244,0.000480652,0.013057709,0,
00:02.4,0.0046978,0.00047493,0.013063431,0,
00:02.4,0.004714966,0.000486374,0.013029099,0,
00:02.4,0.00472641,0.00047493,0.013040543,0,
00:02.4,0.004714966,0.000440598,0.013086319,0,
00:02.4,0.004703522,0.000463486,0.013074875,0,
00:02.4,0.004680634,0.000509262,0.013046265,0,
00:02.4,0.004714966,0.000480652,0.013057709,0,
00:02.4,0.004720688,0.000480652,0.013057709,0,
00:02.4,0.0046978,0.000497818,0.013063431,0,
00:02.4,0.004709244,0.000457764,0.013057709,0,
00:02.4,0.004714966,0.000480652,0.013063431,0,
00:02.4,0.0046978,0.000492096,0.013074875,0,
00:02.4,0.0046978,0.00047493,0.013097763,0,
00:02.4,0.004669189,0.000486374,0.013109207,0,
00:02.4,0.004692078,0.00050354,0.013086319,0,
00:02.4,0.004720688,0.000492096,0.013074875,0,
00:02.4,0.004714966,0.000480652,0.013080597,0,
00:02.4,0.004709244,0.000469208,0.013086319,0,
00:02.4,0.004669189,0.00044632,0.013103485,0,
00:02.4,0.004669189,0.00047493,0.013063431,0,
00:02.5,0.004720688,0.000509262,0.013109207,0,
00:02.5,0.004720688,0.000520706,0.013120651,0,
00:02.5,0.004720688,0.000469208,0.013132095,0,
00:02.5,0.004709244,0.000440598,0.013120651,0,
00:02.5,0.004703522,0.000480652,0.013097763,0,
00:02.5,0.004680634,0.000492096,0.013109207,0,
00:02.5,0.004657745,0.000469208,0.013114929,0,
00:02.5,0.004703522,0.000457764,0.013132095,0,
00:02.5,0.004714966,0.00047493,0.013120651,0,
00:02.5,0.004709244,0.000480652,0.013086319,0,
00:02.5,0.004720688,0.000497818,0.013109207,0,
00:02.5,0.004674911,0.00047493,0.013149261,0,
00:02.5,0.004686356,0.00047493,0.013149261,0,
00:02.5,0.004652023,0.000480652,0.013109207,0,
00:02.5,0.004669189,0.00044632,0.013137817,0,
00:02.5,0.004737854,0.000457764,0.013166428,0,
00:02.5,0.004714966,0.000480652,0.01317215,0,
00:02.5,0.0046978,0.000486374,0.013143539,0,
00:02.5,0.004720688,0.000492096,0.013143539,0,
00:02.5,0.004709244,0.000486374,0.013160706,0,
00:02.5,0.004709244,0.000480652,0.01317215,0,
00:02.5,0.004703522,0.000457764,0.01320076,0,
00:02.5,0.004692078,0.000457764,0.013189316,0,
00:02.5,0.004669189,0.000463486,0.013183594,0,
00:02.5,0.004714966,0.000492096,0.013183594,0,
00:02.6,0.004709244,0.000486374,0.01317215,0,
00:02.6,0.004692078,0.00047493,0.013189316,0,
00:02.6,0.0046978,0.00047493,0.01320076,0,
00:02.6,0.0046978,0.000463486,0.01317215,0,
00:02.6,0.004640579,0.000463486,0.013195038,0,
00:02.6,0.004600525,0.000457764,0.013223648,0,
00:02.6,0.004737854,0.000486374,0.013217926,0,
00:02.6,0.00472641,0.000463486,0.013240814,0,
00:02.6,0.004686356,0.00047493,0.013235092,0,
00:02.6,0.004686356,0.000486374,0.013217926,0,
00:02.6,0.004714966,0.00047493,0.01320076,0,
00:02.6,0.004692078,0.000452042,0.013235092,0,
00:02.6,0.004646301,0.00044632,0.013252258,0,
00:02.6,0.004692078,0.000463486,0.013252258,0,
00:02.6,0.004720688,0.000520706,0.013240814,0,
00:02.6,0.004714966,0.00050354,0.013235092,0,
00:02.6,0.004703522,0.000469208,0.013235092,0,
00:02.6,0.004692078,0.000469208,0.013252258,0,
00:02.6,0.004686356,0.000469208,0.013275146,0,
00:02.6,0.004686356,0.000469208,0.013269424,0,
00:02.6,0.004680634,0.000480652,0.013298035,0,
00:02.6,0.004680634,0.000463486,0.013286591,0,
00:02.6,0.004674911,0.000440598,0.013303757,0,
00:02.6,0.004669189,0.000440598,0.013309479,0,
00:02.6,0.004686356,0.000457764,0.013298035,0,
00:02.7,0.004692078,0.000497818,0.013280869,0,
00:02.7,0.004680634,0.000497818,0.013269424,0,
00:02.7,0.004617691,0.000480652,0.013298035,0,
00:02.7,0.004669189,0.000480652,0.013298035,0,
00:02.7,0.004737854,0.000486374,0.013332367,0,
00:02.7,0.004686356,0.000463486,0.013349533,0,
00:02.7,0.004680634,0.00044632,0.013360977,0,
00:02.7,0.0046978,0.000457764,0.013349533,0,
00:02.7,0.004669189,0.000452042,0.013349533,0,
00:02.7,0.004611969,0.000434875,0.013355255,0,
00:02.7,0.004686356,0.000457764,0.013372421,0,
00:02.7,0.004686356,0.000463486,0.013372421,0,
00:02.7,0.004680634,0.000469208,0.013338089,0,
00:02.7,0.0046978,0.000497818,0.013338089,0,
00:02.7,0.004652023,0.000509262,0.013366699,0,
00:02.7,0.004686356,0.00047493,0.013372421,0,
00:02.7,0.004680634,0.000480652,0.013395309,0,
00:02.7,0.004709244,0.000463486,0.013406754,0,
00:02.7,0.004680634,0.000452042,0.013418198,0,
00:02.7,0.004640579,0.00044632,0.013406754,0,
00:02.7,0.004680634,0.000469208,0.013418198,0,
00:02.7,0.004692078,0.000469208,0.013406754,0,
00:02.7,0.004674911,0.000429153,0.01342392,0,
00:02.7,0.004680634,0.000452042,0.013435364,0,
00:02.7,0.004686356,0.000480652,0.013441086,0,
00:02.8,0.004709244,0.000514984,0.013418198,0,
00:02.8,0.004663467,0.000514984,0.013401031,0,
00:02.8,0.004652023,0.000469208,0.013435364,0,
00:02.8,0.004652023,0.000457764,0.013458252,0,
00:02.8,0.004674911,0.000457764,0.013475418,0,
00:02.8,0.004686356,0.000429153,0.013498306,0,
00:02.8,0.004669189,0.00044632,0.013492584,0,
00:02.8,0.004669189,0.000463486,0.013475418,0,
00:02.8,0.004657745,0.00044632,0.01348114,0,
00:02.8,0.004629135,0.000423431,0.013498306,0,
00:02.8,0.004646301,0.00044632,0.013498306,0,
00:02.8,0.004657745,0.000492096,0.01348114,0,
00:02.8,0.004692078,0.000497818,0.013486862,0,
00:02.8,0.004623413,0.000486374,0.01348114,0,
00:02.8,0.004686356,0.00047493,0.013504028,0,
00:02.8,0.0046978,0.000469208,0.013521194,0,
00:02.8,0.004692078,0.000457764,0.013521194,0,
00:02.8,0.004674911,0.000417709,0.013555527,0,
00:02.8,0.004669189,0.000452042,0.013555527,0,
00:02.8,0.004640579,0.000457764,0.013544083,0,
00:02.8,0.004634857,0.000463486,0.013561249,0,
00:02.8,0.004680634,0.000457764,0.013561249,0,
00:02.8,0.004674911,0.000452042,0.013561249,0,
00:02.8,0.004674911,0.000457764,0.013549805,0,
00:02.8,0.004663467,0.000463486,0.013544083,0,
00:02.9,0.004663467,0.000457764,0.013555527,0,
00:02.9,0.004669189,0.000480652,0.013566971,0,
00:02.9,0.004674911,0.000492096,0.013578415,0,
00:02.9,0.004674911,0.000492096,0.013589859,0,
00:02.9,0.004594803,0.000463486,0.013624191,0,
00:02.9,0.004634857,0.000452042,0.013629913,0,
00:02.9,0.004720688,0.00044632,0.013629913,0,
00:02.9,0.004686356,0.000434875,0.013618469,0,
00:02.9,0.004680634,0.000452042,0.013652802,0,
00:02.9,0.004686356,0.000492096,0.013658524,0,
00:02.9,0.004674911,0.000486374,0.013647079,0,
00:02.9,0.004657745,0.00047493,0.013664246,0,
00:02.9,0.004657745,0.000463486,0.013652802,0,
00:02.9,0.004663467,0.000457764,0.013624191,0,
00:02.9,0.004629135,0.000440598,0.013664246,0,
00:02.9,0.004652023,0.000457764,0.013692856,0,
00:02.9,0.004663467,0.000452042,0.013692856,0,
00:02.9,0.004549026,0.000452042,0.013698578,0,
00:02.9,0.004674911,0.00047493,0.013681412,0,
00:02.9,0.00472641,0.000497818,0.013664246,0,
00:02.9,0.004674911,0.000480652,0.013721466,0,
00:02.9,0.004674911,0.000480652,0.013721466,0,
00:02.9,0.004674911,0.000480652,0.013721466,0,
00:02.9,0.004669189,0.00044632,0.013744354,0,
00:02.9,0.004669189,0.00044632,0.013715744,0,
00:03.0,0.004634857,0.000463486,0.01373291,0,
00:03.0,0.004634857,0.000452042,0.013767242,0,
00:03.0,0.004657745,0.000457764,0.013750076,0,
00:03.0,0.004634857,0.000480652,0.013750076,0,
00:03.0,0.004663467,0.000463486,0.013755798,0,
00:03.0,0.004669189,0.000452042,0.013778687,0,
00:03.0,0.004663467,0.00047493,0.013772964,0,
00:03.0,0.004657745,0.000486374,0.013767242,0,
00:03.0,0.004634857,0.00047493,0.013750076,0,
00:03.0,0.004669189,0.000480652,0.013784409,0,
00:03.0,0.004657745,0.000463486,0.013813019,0,
00:03.0,0.004646301,0.000440598,0.013801575,0,
00:00:03,0.004657745,0.000463486,0.013801575,0,
00:03.0,0.004606247,0.000469208,0.013795853,0,
00:03.0,0.004617691,0.000457764,0.013807297,0,
00:03.0,0.004606247,0.000469208,0.013818741,0,
00:03.0,0.004669189,0.000480652,0.013824463,0,
00:03.0,0.004640579,0.000463486,0.013853073,0,
00:03.0,0.004663467,0.00047493,0.013864517,0,
00:03.0,0.004634857,0.00047493,0.013858795,0,
00:03.0,0.004640579,0.000452042,0.013847351,0,
00:03.0,0.004646301,0.000440598,0.013875961,0,
00:03.0,0.004640579,0.000434875,0.013881683,0,
00:03.0,0.004623413,0.000480652,0.013881683,0,
00:03.0,0.004680634,0.000480652,0.013875961,0,
00:03.1,0.004663467,0.00047493,0.013887405,0,
00:03.1,0.004652023,0.00047493,0.013870239,0,
00:03.1,0.004634857,0.000463486,0.013887405,0,
00:03.1,0.004652023,0.000457764,0.013893127,0,
00:03.1,0.004646301,0.000457764,0.013910294,0,
00:03.1,0.004634857,0.000440598,0.01392746,0,
00:03.1,0.004652023,0.000463486,0.013910294,0,
00:03.1,0.004663467,0.000497818,0.013893127,0,
00:03.1,0.004617691,0.000440598,0.01392746,0,
00:03.1,0.004583359,0.000429153,0.013973236,0,
00:03.1,0.004652023,0.000486374,0.013944626,0,
00:03.1,0.004680634,0.000463486,0.01395607,0,
00:03.1,0.004634857,0.000469208,0.013944626,0,
00:03.1,0.004634857,0.000463486,0.013973236,0,
00:03.1,0.004617691,0.000452042,0.01398468,0,
00:03.1,0.004646301,0.000463486,0.013973236,0,
00:03.1,0.004646301,0.000457764,0.01398468,0,
00:03.1,0.004640579,0.000469208,0.013978958,0,
00:03.1,0.004606247,0.000480652,0.013990402,0,
00:03.1,0.004571915,0.000480652,0.013996124,0,
00:03.1,0.004600525,0.000469208,0.013978958,0,
00:03.1,0.004663467,0.000469208,0.014001846,0,
00:03.1,0.004669189,0.000452042,0.014007568,0,
00:03.1,0.004646301,0.000429153,0.01401329,0,
00:03.1,0.004640579,0.000452042,0.01401329,0,
00:03.2,0.004640579,0.000492096,0.014024734,0,
00:03.2,0.004634857,0.000492096,0.014036179,0,
00:03.2,0.004652023,0.000469208,0.014064789,0,
00:03.2,0.004640579,0.000486374,0.014076233,0,
00:03.2,0.004611969,0.00044632,0.014070511,0,
00:03.2,0.004577637,0.000457764,0.014087677,0,
00:03.2,0.004657745,0.000469208,0.014087677,0,
00:03.2,0.004634857,0.00044632,0.014081955,0,
00:03.2,0.004606247,0.000452042,0.014087677,0,
00:03.2,0.004617691,0.000452042,0.014093399,0,
00:03.2,0.004629135,0.000469208,0.014076233,0,
00:03.2,0.004606247,0.000497818,0.014081955,0,
00:03.2,0.004611969,0.000469208,0.014087677,0,
00:03.2,0.004577637,0.000440598,0.014104843,0,
00:03.2,0.004629135,0.00044632,0.014110565,0,
00:03.2,0.004640579,0.000457764,0.014133453,0,
00:03.2,0.004600525,0.000457764,0.014133453,0,
00:03.2,0.004646301,0.000452042,0.014139175,0,
00:03.2,0.004640579,0.000469208,0.01415062,0,
00:03.2,0.004640579,0.000463486,0.014139175,0,
00:03.2,0.004611969,0.000463486,0.01415062,0,
00:03.2,0.00453186,0.00044632,0.014173508,0,
00:03.2,0.004623413,0.000457764,0.014184952,0,
00:03.2,0.004652023,0.000463486,0.014202118,0,
00:03.2,0.004634857,0.000463486,0.014196396,0,
00:03.3,0.004640579,0.000469208,0.014184952,0,
00:03.3,0.004617691,0.000463486,0.01417923,0,
00:03.3,0.004594803,0.000434875,0.014196396,0,
00:03.3,0.004629135,0.00047493,0.014219284,0,
00:03.3,0.004606247,0.000497818,0.014202118,0,
00:03.3,0.004577637,0.000463486,0.014190674,0,
00:03.3,0.004623413,0.00044632,0.014247894,0,
00:03.3,0.004611969,0.000457764,0.014253616,0,
00:03.3,0.004606247,0.000463486,0.014230728,0,
00:03.3,0.004583359,0.000440598,0.014242172,0,
00:03.3,0.004611969,0.000440598,0.014259338,0,
00:03.3,0.004611969,0.000457764,0.01426506,0,
00:03.3,0.004594803,0.000469208,0.014259338,0,
00:03.3,0.004589081,0.000480652,0.014247894,0,
00:03.3,0.004583359,0.00047493,0.014270782,0,
00:03.3,0.004560471,0.00047493,0.014299393,0,
00:03.3,0.004629135,0.000452042,0.014270782,0,
00:03.3,0.004611969,0.000452042,0.014305115,0,
00:03.3,0.004571915,0.000457764,0.014299393,0,
00:03.3,0.004600525,0.00044632,0.014305115,0,
00:03.3,0.004623413,0.000440598,0.014322281,0,
00:03.3,0.004606247,0.000457764,0.014310837,0,
00:03.3,0.004606247,0.000457764,0.014333725,0,
00:03.3,0.004600525,0.00047493,0.014328003,0,
00:03.3,0.004600525,0.000480652,0.014328003,0,
00:03.4,0.004611969,0.000480652,0.014316559,0,
00:03.4,0.004600525,0.000452042,0.014339447,0,
00:03.4,0.004571915,0.000440598,0.014373779,0,
00:03.4,0.004577637,0.00047493,0.014362335,0,
00:03.4,0.004611969,0.000457764,0.014362335,0,
00:03.4,0.004589081,0.00044632,0.014396667,0,
00:03.4,0.004594803,0.000440598,0.014396667,0,
00:03.4,0.004583359,0.00044632,0.014396667,0,
00:03.4,0.004594803,0.00047493,0.01440239,0,
00:03.4,0.004589081,0.000469208,0.014385223,0,
00:03.4,0.004600525,0.000452042,0.014385223,0,
00:03.4,0.004571915,0.000457764,0.014413834,0,
00:03.4,0.004549026,0.000469208,0.01440239,0,
00:03.4,0.004617691,0.00047493,0.014396667,0,
00:03.4,0.004611969,0.000480652,0.014419556,0,
00:03.4,0.004571915,0.000452042,0.014425278,0,
00:03.4,0.004589081,0.00044632,0.01445961,0,
00:03.4,0.004606247,0.000463486,0.014431,0,
00:03.4,0.004589081,0.000469208,0.014436722,0,
00:03.4,0.004600525,0.000452042,0.014476776,0,
00:03.4,0.004583359,0.000452042,0.014476776,0,
00:03.4,0.004571915,0.000457764,0.01445961,0,
00:03.4,0.004577637,0.000463486,0.01445961,0,
00:03.4,0.004508972,0.000463486,0.014453888,0,
00:03.4,0.004583359,0.000486374,0.014476776,0,
00:03.5,0.004594803,0.000469208,0.014528275,0,
00:03.5,0.004600525,0.000440598,0.014511108,0,
00:03.5,0.004600525,0.00044632,0.01451683,0,
00:03.5,0.004600525,0.000463486,0.014511108,0,
00:03.5,0.004571915,0.000452042,0.014511108,0,
00:03.5,0.004549026,0.00044632,0.01451683,0,
00:03.5,0.004611969,0.000452042,0.014533997,0,
00:03.5,0.004606247,0.000463486,0.014539719,0,
00:03.5,0.004589081,0.00044632,0.014556885,0,
00:03.5,0.004577637,0.00044632,0.014562607,0,
00:03.5,0.004589081,0.000469208,0.014556885,0,
00:03.5,0.004589081,0.000457764,0.014562607,0,
00:03.5,0.004594803,0.00044632,0.014556885,0,
00:03.5,0.004594803,0.000440598,0.014556885,0,
00:03.5,0.004589081,0.000457764,0.014574051,0,
00:03.5,0.004594803,0.000469208,0.014602661,0,
00:03.5,0.004577637,0.000469208,0.014596939,0,
00:03.5,0.004589081,0.00047493,0.014591217,0,
00:03.5,0.004577637,0.000463486,0.014602661,0,
00:03.5,0.004577637,0.00044632,0.014619827,0,
00:03.5,0.004594803,0.000457764,0.014619827,0,
00:03.5,0.004606247,0.000469208,0.014591217,0,
00:03.5,0.004497528,0.000452042,0.014608383,0,
00:03.5,0.004537582,0.000440598,0.014665604,0,
00:03.5,0.004577637,0.000429153,0.014648438,0,
00:03.6,0.004526138,0.000463486,0.014625549,0,
00:03.6,0.004583359,0.000463486,0.014659882,0,
00:03.6,0.004606247,0.000463486,0.014659882,0,
00:03.6,0.004600525,0.000469208,0.014648438,0,
00:03.6,0.004589081,0.00047493,0.014659882,0,
00:03.6,0.004594803,0.000452042,0.014665604,0,
00:03.6,0.004589081,0.000440598,0.01468277,0,
00:03.6,0.004594803,0.000452042,0.014688492,0,
00:03.6,0.004583359,0.000452042,0.01471138,0,
00:03.6,0.004577637,0.00044632,0.014717102,0,
00:03.6,0.004560471,0.00044632,0.014717102,0,
00:03.6,0.004566193,0.000463486,0.014717102,0,
00:03.6,0.004594803,0.000469208,0.014722824,0,
00:03.6,0.004571915,0.000434875,0.014717102,0,
00:03.6,0.004577637,0.000434875,0.014717102,0,
00:03.6,0.004594803,0.000463486,0.014734268,0,
00:03.6,0.004600525,0.000480652,0.014734268,0,
00:03.6,0.004577637,0.000463486,0.014734268,0,
00:03.6,0.004571915,0.000463486,0.014751434,0,
00:03.6,0.004583359,0.00047493,0.0147686,0,
00:03.6,0.004583359,0.000463486,0.014774323,0,
00:03.6,0.004571915,0.00044632,0.014774323,0,
00:03.6,0.004554749,0.000452042,0.014774323,0,
00:03.6,0.004566193,0.000463486,0.014797211,0,
00:03.6,0.004571915,0.000457764,0.014797211,0,
00:03.7,0.004589081,0.000452042,0.014762878,0,
00:03.7,0.004560471,0.00044632,0.014745712,0,
00:03.7,0.004537582,0.000452042,0.014820099,0,
00:03.7,0.004566193,0.000469208,0.014842987,0,
00:03.7,0.004589081,0.000457764,0.014837265,0,
00:03.7,0.004566193,0.000440598,0.014820099,0,
00:03.7,0.004543304,0.000457764,0.014808655,0,
00:03.7,0.00450325,0.000452042,0.014820099,0,
00:03.7,0.004566193,0.000463486,0.014842987,0,
00:03.7,0.004600525,0.000463486,0.014837265,0,
00:03.7,0.004577637,0.000469208,0.014837265,0,
00:03.7,0.00453186,0.000469208,0.014837265,0,
00:03.7,0.004600525,0.000469208,0.014831543,0,
00:03.7,0.004606247,0.00044632,0.014842987,0,
00:03.7,0.004566193,0.000440598,0.014865875,0,
00:03.7,0.004554749,0.000434875,0.014888763,0,
00:03.7,0.004549026,0.00044632,0.014883041,0,
00:03.7,0.004543304,0.000452042,0.014848709,0,
00:03.7,0.004566193,0.000457764,0.014894485,0,
00:03.7,0.004571915,0.000452042,0.014894485,0,
00:03.7,0.004566193,0.000463486,0.014894485,0,
00:03.7,0.004566193,0.00044632,0.01490593,0,
00:03.7,0.004583359,0.000463486,0.014917374,0,
00:03.7,0.004560471,0.00047493,0.014928818,0,
00:03.7,0.004560471,0.00044632,0.014917374,0,
00:03.8,0.004543304,0.000457764,0.014917374,0,
00:03.8,0.004554749,0.000469208,0.014911652,0,
00:03.8,0.004560471,0.000463486,0.014923096,0,
00:03.8,0.004543304,0.000452042,0.014911652,0,
00:03.8,0.004554749,0.00044632,0.01493454,0,
00:03.8,0.004560471,0.000440598,0.014940262,0,
00:03.8,0.004554749,0.000423431,0.01496315,0,
00:03.8,0.004566193,0.000452042,0.014968872,0,
00:03.8,0.004571915,0.000457764,0.014957428,0,
00:03.8,0.004571915,0.000457764,0.014928818,0,
00:03.8,0.004514694,0.000469208,0.01493454,0,
00:03.8,0.004554749,0.000457764,0.01499176,0,
00:03.8,0.004640579,0.000463486,0.015003204,0,
00:03.8,0.004583359,0.000440598,0.01499176,0,
00:03.8,0.004589081,0.000417709,0.014968872,0,
00:03.8,0.004577637,0.000463486,0.01496315,0,
00:03.8,0.004583359,0.000469208,0.014968872,0,
00:03.8,0.004566193,0.000452042,0.014957428,0,
00:03.8,0.004571915,0.000457764,0.014997482,0,
00:03.8,0.004549026,0.000469208,0.014997482,0,
00:03.8,0.004497528,0.000469208,0.015003204,0,
00:03.8,0.004514694,0.00044632,0.015037537,0,
00:03.8,0.004594803,0.000434875,0.015026093,0,
00:03.8,0.004554749,0.000440598,0.01502037,0,
00:03.8,0.004571915,0.000457764,0.015008926,0,
00:03.9,0.004543304,0.000469208,0.015008926,0,
00:03.9,0.004577637,0.000463486,0.015014648,0,
00:03.9,0.004566193,0.000429153,0.015014648,0,
00:03.9,0.004594803,0.00044632,0.015043259,0,
00:03.9,0.004577637,0.000452042,0.015031815,0,
00:03.9,0.004554749,0.000452042,0.015031815,0,
00:03.9,0.004577637,0.00047493,0.015014648,0,
00:03.9,0.004583359,0.000469208,0.015026093,0,
00:03.9,0.004560471,0.000440598,0.015048981,0,
00:03.9,0.004566193,0.000434875,0.015043259,0,
00:03.9,0.00453186,0.000434875,0.015054703,0,
00:03.9,0.004571915,0.000469208,0.015066147,0,
00:03.9,0.004589081,0.000469208,0.015048981,0,
00:03.9,0.004571915,0.000452042,0.015066147,0,
00:03.9,0.004577637,0.000486374,0.015043259,0,
00:03.9,0.004554749,0.00047493,0.015054703,0,
00:03.9,0.004560471,0.000452042,0.015043259,0,
00:03.9,0.004543304,0.000417709,0.015077591,0,
00:03.9,0.004543304,0.000411987,0.015083313,0,
00:03.9,0.004577637,0.000469208,0.015094757,0,
00:03.9,0.00450325,0.000492096,0.015071869,0,
00:03.9,0.004514694,0.000469208,0.015077591,0,
00:03.9,0.004554749,0.00044632,0.015083313,0,
00:03.9,0.004543304,0.00044632,0.015066147,0,
00:03.9,0.004566193,0.000440598,0.015094757,0,
00:04.0,0.004577637,0.00044632,0.015111923,0,
00:04.0,0.004600525,0.000452042,0.015100479,0,
00:04.0,0.004571915,0.000440598,0.015111923,0,
00:04.0,0.004577637,0.00044632,0.015111923,0,
00:04.0,0.004560471,0.000457764,0.015100479,0,
00:04.0,0.00453186,0.000463486,0.015089035,0,
00:04.0,0.004571915,0.000457764,0.015094757,0,
00:04.0,0.004566193,0.000457764,0.015117645,0,
00:04.0,0.004560471,0.000452042,0.015129089,0,
00:04.0,0.004554749,0.000411987,0.015117645,0,
00:04.0,0.004554749,0.000423431,0.015106201,0,
00:04.0,0.004554749,0.000457764,0.015094757,0,
00:00:04,0.004560471,0.00047493,0.015094757,0,
00:04.0,0.004577637,0.000486374,0.015094757,0,
00:04.0,0.004560471,0.000463486,0.015117645,0,
00:04.0,0.004543304,0.00044632,0.015140533,0,
00:04.0,0.004543304,0.000457764,0.015140533,0,
00:04.0,0.004554749,0.00044632,0.015106201,0,
00:04.0,0.004526138,0.00044632,0.015151978,0,
00:04.0,0.004520416,0.000463486,0.015134811,0,
00:04.0,0.00447464,0.00047493,0.015140533,0,
00:04.0,0.00453186,0.000469208,0.015140533,0,
00:04.0,0.004594803,0.000463486,0.015151978,0,
00:04.0,0.004549026,0.000440598,0.0151577,0,
00:04.0,0.004583359,0.00044632,0.015146255,0,
00:04.1,0.004589081,0.00044632,0.015151978,0,
00:04.1,0.004566193,0.000429153,0.015169144,0,
00:04.1,0.004560471,0.000406265,0.015163422,0,
00:04.1,0.004560471,0.00044632,0.015134811,0,
00:04.1,0.004560471,0.000486374,0.015146255,0,
00:04.1,0.004537582,0.000463486,0.0151577,0,
00:04.1,0.004526138,0.00044632,0.015151978,0,
00:04.1,0.004566193,0.000463486,0.015146255,0,
00:04.1,0.004549026,0.00044632,0.015169144,0,
00:04.1,0.004554749,0.000434875,0.015174866,0,
00:04.1,0.004537582,0.000463486,0.015169144,0,
00:04.1,0.004554749,0.000469208,0.0151577,0,
00:04.1,0.004571915,0.000486374,0.015169144,0,
00:04.1,0.004554749,0.00047493,0.015163422,0,
00:04.1,0.004497528,0.000417709,0.015180588,0,
00:04.1,0.004497528,0.000429153,0.015169144,0,
00:04.1,0.004571915,0.000457764,0.015140533,0,
00:04.1,0.004571915,0.00044632,0.015174866,0,
00:04.1,0.004543304,0.000452042,0.01518631,0,
00:04.1,0.004526138,0.00044632,0.01518631,0,
00:04.1,0.004508972,0.000452042,0.01518631,0,
00:04.1,0.00453186,0.000463486,0.015163422,0,
00:04.1,0.004543304,0.000463486,0.015180588,0,
00:04.1,0.004594803,0.000457764,0.015163422,0,
00:04.1,0.004583359,0.000469208,0.015163422,0,
00:04.2,0.004577637,0.000480652,0.015169144,0,
00:04.2,0.004554749,0.000457764,0.015174866,0,
00:04.2,0.00453186,0.000417709,0.015192032,0,
00:04.2,0.004543304,0.00044632,0.015174866,0,
00:04.2,0.004554749,0.000463486,0.015163422,0,
00:04.2,0.004554749,0.000452042,0.0151577,0,
00:04.2,0.004549026,0.000463486,0.015169144,0,
00:04.2,0.004526138,0.000457764,0.015180588,0,
00:04.2,0.00453186,0.000452042,0.015163422,0,
00:04.2,0.004520416,0.000434875,0.015169144,0,
00:04.2,0.004549026,0.000457764,0.015169144,0,
00:04.2,0.004560471,0.00044632,0.01518631,0,
00:04.2,0.004577637,0.000452042,0.015197754,0,
00:04.2,0.004514694,0.000463486,0.015180588,0,
00:04.2,0.004497528,0.000457764,0.015174866,0,
00:04.2,0.004554749,0.00044632,0.015192032,0,
00:04.2,0.00453186,0.00044632,0.015180588,0,
00:04.2,0.00453186,0.000452042,0.015174866,0,
00:04.2,0.004583359,0.000480652,0.015197754,0,
00:04.2,0.004554749,0.000469208,0.015192032,0,
00:04.2,0.004566193,0.000440598,0.015163422,0,
00:04.2,0.004566193,0.000457764,0.015163422,0,
00:04.2,0.004526138,0.00044632,0.015163422,0,
00:04.2,0.004543304,0.00044632,0.01518631,0,
00:04.2,0.004543304,0.000452042,0.015180588,0,
00:04.3,0.004514694,0.000452042,0.015174866,0,
00:04.3,0.004543304,0.000469208,0.015174866,0,
00:04.3,0.004566193,0.000480652,0.01518631,0,
00:04.3,0.004520416,0.000469208,0.015209198,0,
00:04.3,0.004543304,0.000452042,0.01521492,0,
00:04.3,0.004549026,0.000452042,0.015209198,0,
00:04.3,0.004554749,0.000452042,0.015192032,0,
00:04.3,0.004537582,0.00044632,0.015192032,0,
00:04.3,0.004526138,0.00044632,0.015197754,0,
00:04.3,0.004526138,0.000457764,0.015197754,0,
00:04.3,0.004526138,0.000440598,0.01518631,0,
00:04.3,0.004554749,0.000452042,0.015180588,0,
00:04.3,0.004537582,0.000469208,0.01518631,0,
00:04.3,0.004543304,0.000457764,0.015174866,0,
00:04.3,0.00453186,0.000457764,0.015197754,0,
00:04.3,0.004554749,0.000492096,0.01518631,0,
00:04.3,0.004560471,0.000492096,0.015174866,0,
00:04.3,0.004486084,0.00044632,0.015209198,0,
00:04.3,0.004497528,0.000440598,0.015169144,0,
00:04.3,0.004537582,0.000452042,0.0151577,0,
00:04.3,0.004589081,0.00044632,0.01521492,0,
00:04.3,0.004554749,0.000469208,0.015192032,0,
00:04.3,0.00453186,0.000457764,0.015192032,0,
00:04.3,0.004514694,0.000463486,0.015197754,0,
00:04.3,0.004554749,0.000463486,0.015192032,0,
00:04.4,0.004543304,0.000457764,0.015180588,0,
00:04.4,0.004526138,0.000452042,0.01518631,0,
00:04.4,0.004526138,0.000452042,0.015180588,0,
00:04.4,0.004554749,0.000457764,0.01518631,0,
00:04.4,0.004549026,0.000480652,0.015197754,0,
00:04.4,0.00450325,0.000480652,0.015192032,0,
00:04.4,0.004491806,0.000480652,0.01518631,0,
00:04.4,0.004554749,0.000452042,0.015169144,0,
00:04.4,0.004560471,0.000457764,0.015192032,0,
00:04.4,0.004549026,0.000452042,0.015197754,0,
00:04.4,0.004543304,0.00044632,0.015197754,0,
00:04.4,0.004537582,0.000463486,0.015197754,0,
00:04.4,0.004526138,0.000463486,0.01518631,0,
00:04.4,0.004526138,0.00047493,0.015197754,0,
00:04.4,0.004543304,0.000469208,0.015180588,0,
00:04.4,0.004537582,0.000457764,0.015169144,0,
00:04.4,0.004520416,0.000452042,0.01521492,0,
00:04.4,0.00453186,0.000463486,0.015192032,0,
00:04.4,0.004566193,0.000480652,0.01518631,0,
00:04.4,0.004543304,0.000463486,0.015180588,0,
00:04.4,0.004537582,0.000463486,0.015197754,0,
00:04.4,0.004526138,0.000469208,0.01518631,0,
00:04.4,0.004491806,0.00047493,0.015174866,0,
00:04.4,0.004537582,0.000480652,0.0151577,0,
00:04.4,0.004583359,0.00047493,0.015151978,0,
00:04.5,0.004554749,0.00047493,0.015192032,0,
00:04.5,0.004537582,0.00044632,0.015197754,0,
00:04.5,0.004549026,0.00044632,0.015203476,0,
00:04.5,0.004526138,0.00044632,0.015180588,0,
00:04.5,0.004543304,0.000457764,0.015180588,0,
00:04.5,0.004549026,0.000480652,0.01518631,0,
00:04.5,0.00453186,0.000463486,0.015192032,0,
00:04.5,0.004526138,0.000457764,0.015192032,0,
00:04.5,0.004520416,0.000440598,0.015197754,0,
00:04.5,0.004526138,0.000457764,0.01518631,0,
00:04.5,0.004486084,0.000486374,0.015180588,0,
00:04.5,0.00453186,0.000480652,0.015169144,0,
00:04.5,0.00453186,0.000480652,0.015163422,0,
00:04.5,0.004571915,0.000492096,0.0151577,0,
00:04.5,0.004537582,0.000480652,0.015146255,0,
00:04.5,0.004537582,0.000440598,0.015192032,0,
00:04.5,0.004543304,0.000457764,0.015197754,0,
00:04.5,0.004537582,0.00047493,0.015197754,0,
00:04.5,0.004520416,0.000457764,0.015197754,0,
00:04.5,0.00453186,0.000463486,0.015174866,0,
00:04.5,0.004526138,0.000429153,0.0151577,0,
00:04.5,0.004543304,0.000452042,0.015174866,0,
00:04.5,0.004537582,0.000492096,0.015180588,0,
00:04.5,0.004543304,0.000492096,0.015169144,0,
00:04.5,0.004463196,0.000492096,0.015169144,0,
00:04.6,0.004480362,0.00044632,0.015197754,0,
00:04.6,0.004571915,0.000429153,0.015192032,0,
00:04.6,0.004537582,0.000452042,0.01518631,0,
00:04.6,0.004526138,0.000486374,0.015163422,0,
00:04.6,0.004549026,0.000469208,0.01518631,0,
00:04.6,0.004526138,0.000463486,0.015163422,0,
00:04.6,0.00453186,0.00047493,0.015180588,0,
00:04.6,0.00453186,0.000480652,0.015192032,0,
00:04.6,0.004537582,0.000492096,0.015180588,0,
00:04.6,0.004508972,0.00044632,0.015192032,0,
00:04.6,0.004520416,0.000440598,0.015180588,0,
00:04.6,0.004514694,0.000452042,0.015180588,0,
00:04.6,0.004434586,0.000463486,0.01518631,0,
00:04.6,0.004486084,0.000480652,0.015169144,0,
00:04.6,0.004583359,0.000469208,0.01518631,0,
00:04.6,0.004560471,0.000463486,0.015203476,0,
00:04.6,0.00453186,0.000469208,0.015174866,0,
00:04.6,0.004520416,0.000463486,0.015180588,0,
00:04.6,0.004549026,0.00047493,0.015174866,0,
00:04.6,0.004543304,0.000486374,0.015163422,0,
00:04.6,0.004514694,0.00047493,0.015174866,0,
00:04.6,0.004514694,0.000469208,0.015203476,0,
00:04.6,0.00453186,0.000469208,0.015209198,0,
00:04.6,0.00453186,0.000457764,0.015180588,0,
00:04.6,0.00450325,0.000452042,0.01518631,0,
00:04.7,0.00447464,0.000457764,0.015209198,0,
00:04.7,0.004491806,0.000469208,0.015209198,0,
00:04.7,0.004554749,0.000463486,0.015209198,0,
00:04.7,0.004526138,0.000457764,0.015197754,0,
00:04.7,0.004514694,0.000469208,0.015192032,0,
00:04.7,0.004514694,0.000463486,0.015220642,0,
00:04.7,0.004514694,0.000457764,0.015192032,0,
00:04.7,0.004491806,0.000457764,0.01518631,0,
00:04.7,0.004486084,0.000457764,0.015197754,0,
00:04.7,0.004520416,0.000492096,0.01518631,0,
00:04.7,0.00453186,0.000492096,0.01518631,0,
00:04.7,0.004463196,0.000452042,0.015203476,0,
00:04.7,0.004411697,0.00044632,0.01518631,0,
00:04.7,0.004554749,0.000469208,0.015197754,0,
00:04.7,0.004549026,0.000480652,0.015192032,0,
00:04.7,0.004526138,0.000497818,0.015209198,0,
00:04.7,0.004514694,0.000463486,0.015203476,0,
00:04.7,0.004508972,0.00044632,0.015209198,0,
00:04.7,0.004508972,0.000480652,0.01521492,0,
00:04.7,0.00450325,0.000497818,0.01518631,0,
00:04.7,0.004468918,0.000480652,0.015197754,0,
00:04.7,0.004497528,0.000463486,0.015232086,0,
00:04.7,0.004508972,0.00044632,0.015232086,0,
00:04.7,0.00450325,0.00044632,0.015226364,0,
00:04.7,0.004508972,0.000480652,0.015209198,0,
00:04.8,0.00450325,0.000486374,0.015197754,0,
00:04.8,0.004491806,0.000463486,0.01521492,0,
00:04.8,0.00447464,0.000457764,0.015226364,0,
00:04.8,0.004480362,0.000463486,0.015197754,0,
00:04.8,0.004491806,0.000463486,0.015203476,0,
00:04.8,0.00447464,0.000440598,0.015260696,0,
00:04.8,0.00450325,0.00047493,0.015237808,0,
00:04.8,0.004526138,0.00047493,0.015197754,0,
00:04.8,0.004491806,0.00044632,0.015226364,0,
00:04.8,0.004491806,0.00044632,0.015249252,0,
00:04.8,0.004508972,0.000486374,0.015232086,0,
00:04.8,0.004486084,0.00047493,0.015220642,0,
00:04.8,0.00447464,0.000469208,0.015232086,0,
00:04.8,0.004491806,0.00047493,0.015232086,0,
00:04.8,0.004497528,0.000457764,0.015226364,0,
00:04.8,0.004497528,0.000469208,0.015232086,0,
00:04.8,0.00450325,0.000457764,0.015232086,0,
00:04.8,0.004463196,0.000480652,0.01521492,0,
00:04.8,0.00450325,0.000497818,0.015226364,0,
00:04.8,0.00450325,0.000463486,0.015260696,0,
00:04.8,0.004491806,0.00044632,0.015254974,0,
00:04.8,0.004486084,0.00047493,0.015226364,0,
00:04.8,0.00450325,0.000469208,0.015226364,0,
00:04.8,0.00450325,0.000463486,0.015237808,0,
00:04.8,0.004497528,0.00047493,0.015237808,0,
00:04.9,0.004468918,0.000480652,0.015226364,0,
00:04.9,0.004486084,0.000463486,0.01524353,0,
00:04.9,0.004480362,0.000463486,0.015249252,0,
00:04.9,0.004480362,0.000469208,0.015272141,0,
00:04.9,0.004388809,0.000469208,0.015254974,0,
00:04.9,0.00444603,0.00047493,0.015226364,0,
00:04.9,0.004543304,0.00047493,0.015226364,0,
00:04.9,0.004543304,0.00047493,0.015232086,0,
00:04.9,0.004520416,0.000469208,0.015254974,0,
00:04.9,0.00450325,0.000463486,0.015266418,0,
00:04.9,0.00450325,0.000469208,0.015277863,0,
00:04.9,0.004486084,0.00044632,0.015254974,0,
00:04.9,0.004480362,0.000452042,0.015260696,0,
00:04.9,0.00450325,0.00047493,0.015249252,0,
00:04.9,0.004491806,0.000452042,0.01524353,0,
00:04.9,0.004497528,0.000457764,0.015232086,0,
00:04.9,0.004480362,0.00047493,0.015266418,0,
00:04.9,0.004480362,0.000469208,0.015283585,0,
00:04.9,0.004486084,0.00047493,0.015272141,0,
00:04.9,0.004480362,0.000486374,0.015283585,0,
00:04.9,0.004480362,0.00047493,0.015283585,0,
00:04.9,0.004491806,0.00047493,0.015254974,0,
00:04.9,0.004508972,0.000486374,0.015266418,0,
00:04.9,0.004486084,0.000457764,0.015283585,0,
00:04.9,0.004480362,0.000469208,0.015289307,0,
00:05.0,0.004486084,0.000463486,0.015272141,0,
00:05.0,0.004491806,0.000457764,0.015277863,0,
00:05.0,0.00447464,0.000469208,0.015272141,0,
00:05.0,0.004497528,0.000463486,0.015277863,0,
00:05.0,0.004497528,0.000457764,0.015277863,0,
00:05.0,0.004520416,0.000480652,0.015266418,0,
00:05.0,0.004491806,0.00050354,0.015283585,0,
00:05.0,0.004463196,0.000463486,0.015306473,0,
00:05.0,0.004451752,0.000452042,0.015312195,0,
00:05.0,0.004491806,0.000457764,0.015300751,0,
00:05.0,0.004468918,0.000469208,0.015283585,0,
00:05.0,0.004480362,0.000469208,0.015300751,0,
00:00:05,0.004468918,0.000492096,0.015295029,0,
00:05.0,0.004508972,0.000492096,0.015317917,0,
00:05.0,0.004491806,0.000463486,0.015312195,0,
00:05.0,0.004468918,0.000457764,0.015306473,0,
00:05.0,0.004457474,0.000463486,0.015317917,0,
00:05.0,0.00450325,0.000469208,0.015329361,0,
00:05.0,0.004486084,0.00047493,0.015317917,0,
00:05.0,0.004480362,0.000480652,0.015323639,0,
00:05.0,0.004486084,0.000480652,0.015317917,0,
00:05.0,0.00447464,0.000492096,0.015323639,0,
00:05.0,0.00444603,0.00047493,0.015340805,0,
00:05.0,0.004491806,0.00047493,0.015340805,0,
00:05.0,0.004491806,0.00047493,0.015346527,0,
00:05.1,0.004497528,0.000492096,0.015329361,0,
00:05.1,0.004486084,0.000469208,0.015317917,0,
00:05.1,0.004480362,0.00044632,0.015335083,0,
00:05.1,0.004468918,0.000434875,0.015340805,0,
00:05.1,0.00447464,0.000469208,0.015335083,0,
00:05.1,0.004486084,0.000480652,0.015340805,0,
00:05.1,0.004480362,0.000492096,0.015357971,0,
00:05.1,0.00447464,0.000497818,0.015352249,0,
00:05.1,0.004480362,0.00047493,0.015357971,0,
00:05.1,0.004468918,0.000463486,0.015352249,0,
00:05.1,0.004468918,0.000452042,0.015335083,0,
00:05.1,0.004463196,0.000463486,0.015352249,0,
00:05.1,0.004463196,0.000480652,0.015369415,0,
00:05.1,0.00447464,0.000486374,0.015386581,0,
00:05.1,0.00447464,0.00047493,0.015357971,0,
00:05.1,0.004451752,0.000486374,0.015352249,0,
00:05.1,0.00447464,0.000486374,0.015346527,0,
00:05.1,0.004486084,0.00047493,0.015352249,0,
00:05.1,0.004480362,0.000480652,0.015375137,0,
00:05.1,0.004440308,0.000492096,0.015380859,0,
00:05.1,0.00444603,0.000469208,0.015369415,0,
00:05.1,0.00447464,0.00044632,0.015369415,0,
00:05.1,0.004480362,0.000452042,0.015363693,0,
00:05.1,0.004497528,0.00047493,0.015392303,0,
00:05.1,0.00447464,0.000492096,0.015380859,0,
00:05.2,0.004468918,0.000486374,0.015375137,0,
00:05.2,0.004491806,0.000486374,0.015398026,0,
00:05.2,0.004486084,0.00047493,0.015392303,0,
00:05.2,0.00447464,0.000469208,0.015380859,0,
00:05.2,0.004486084,0.000463486,0.015392303,0,
00:05.2,0.004480362,0.000480652,0.015386581,0,
00:05.2,0.004468918,0.000469208,0.015392303,0,
00:05.2,0.004468918,0.000457764,0.015398026,0,
00:05.2,0.004480362,0.000492096,0.015398026,0,
00:05.2,0.004480362,0.000492096,0.015392303,0,
00:05.2,0.004497528,0.000457764,0.015386581,0,
00:05.2,0.004486084,0.000469208,0.015398026,0,
00:05.2,0.004486084,0.000486374,0.015415192,0,
00:05.2,0.00447464,0.000492096,0.015415192,0,
00:05.2,0.00447464,0.000486374,0.015449524,0,
00:05.2,0.004468918,0.000457764,0.015420914,0,
00:05.2,0.004468918,0.000452042,0.015415192,0,
00:05.2,0.004480362,0.000480652,0.015420914,0,
00:05.2,0.004480362,0.000497818,0.015443802,0,
00:05.2,0.00447464,0.000486374,0.015415192,0,
00:05.2,0.004468918,0.000480652,0.015426636,0,
00:05.2,0.004383087,0.00047493,0.015415192,0,
00:05.2,0.004463196,0.000469208,0.015415192,0,
00:05.2,0.004486084,0.000480652,0.015426636,0,
00:05.2,0.004463196,0.00050354,0.015415192,0,
00:05.3,0.00450325,0.000480652,0.01543808,0,
00:05.3,0.004497528,0.000480652,0.015460968,0,
00:05.3,0.00447464,0.000492096,0.015443802,0,
00:05.3,0.004463196,0.000469208,0.015443802,0,
00:05.3,0.004457474,0.000452042,0.015443802,0,
00:05.3,0.00447464,0.000480652,0.015443802,0,
00:05.3,0.004468918,0.000492096,0.015432358,0,
00:05.3,0.004468918,0.00047493,0.015443802,0,
00:05.3,0.00447464,0.000463486,0.01543808,0,
00:05.3,0.004463196,0.000463486,0.01546669,0,
00:05.3,0.00447464,0.000486374,0.015483856,0,
00:05.3,0.004468918,0.000469208,0.015478134,0,
00:05.3,0.00447464,0.000486374,0.015472412,0,
00:05.3,0.004468918,0.000509262,0.01546669,0,
00:05.3,0.004457474,0.000486374,0.015449524,0,
00:05.3,0.004440308,0.000480652,0.015483856,0,
00:05.3,0.004423141,0.000486374,0.015489578,0,
00:05.3,0.00447464,0.000492096,0.015478134,0,
00:05.3,0.004468918,0.000457764,0.015478134,0,
00:05.3,0.00444603,0.000469208,0.015512466,0,
00:05.3,0.004451752,0.000486374,0.015512466,0,
00:05.3,0.004451752,0.000486374,0.0154953,0,
00:05.3,0.00447464,0.000469208,0.015501022,0,
00:05.3,0.004463196,0.000463486,0.015506744,0,
00:05.3,0.004463196,0.000492096,0.015506744,0,
00:05.4,0.00444603,0.000486374,0.015501022,0,
00:05.4,0.004463196,0.000480652,0.0154953,0,
00:05.4,0.004457474,0.000480652,0.015518188,0,
00:05.4,0.004468918,0.00047493,0.015518188,0,
00:05.4,0.00444603,0.000486374,0.015512466,0,
00:05.4,0.004417419,0.000486374,0.015506744,0,
00:05.4,0.004457474,0.000469208,0.015535355,0,
00:05.4,0.004457474,0.000452042,0.015563965,0,
00:05.4,0.004463196,0.00047493,0.015546799,0,
00:05.4,0.004451752,0.000469208,0.015529633,0,
00:05.4,0.004480362,0.000514984,0.015523911,0,
00:05.4,0.004480362,0.00056076,0.015535355,0,
00:05.4,0.00444603,0.000509262,0.015529633,0,
00:05.4,0.004428864,0.000469208,0.015552521,0,
00:05.4,0.00444603,0.000469208,0.015563965,0,
00:05.4,0.004440308,0.000469208,0.015575409,0,
00:05.4,0.004451752,0.000457764,0.015581131,0,
00:05.4,0.004440308,0.00044632,0.015575409,0,
00:05.4,0.004440308,0.000469208,0.015563965,0,
00:05.4,0.004434586,0.000486374,0.015563965,0,
00:05.4,0.004417419,0.000492096,0.015581131,0,
00:05.4,0.004457474,0.000480652,0.015575409,0,
00:05.4,0.004440308,0.000480652,0.015575409,0,
00:05.4,0.004457474,0.000480652,0.015592575,0,
00:05.4,0.004463196,0.00047493,0.015598297,0,
00:05.5,0.004440308,0.00050354,0.015581131,0,
00:05.5,0.004451752,0.000492096,0.015586853,0,
00:05.5,0.004434586,0.000463486,0.015592575,0,
00:05.5,0.004440308,0.000463486,0.015592575,0,
00:05.5,0.004440308,0.000486374,0.015592575,0,
00:05.5,0.004423141,0.000480652,0.015615463,0,
00:05.5,0.004423141,0.000486374,0.015586853,0,
00:05.5,0.00444603,0.000486374,0.015615463,0,
00:05.5,0.00444603,0.000480652,0.015621185,0,
00:05.5,0.004434586,0.00047493,0.015626907,0,
00:05.5,0.004434586,0.00047493,0.015604019,0,
00:05.5,0.00444603,0.00050354,0.015598297,0,
00:05.5,0.00444603,0.00050354,0.015615463,0,
00:05.5,0.004434586,0.000480652,0.015632629,0,
00:05.5,0.004451752,0.00047493,0.015626907,0,
00:05.5,0.004451752,0.000463486,0.015609741,0,
00:05.5,0.004428864,0.000486374,0.015644073,0,
00:05.5,0.004423141,0.000486374,0.015672684,0,
00:05.5,0.004400253,0.000486374,0.01566124,0,
00:05.5,0.004383087,0.000480652,0.015655518,0,
00:05.5,0.004423141,0.000469208,0.015655518,0,
00:05.5,0.004468918,0.00047493,0.015655518,0,
00:05.5,0.004451752,0.000480652,0.015672684,0,
00:05.5,0.004451752,0.000486374,0.015655518,0,
00:05.5,0.00444603,0.000492096,0.015649796,0,
00:05.6,0.00444603,0.000492096,0.01566124,0,
00:05.6,0.004434586,0.00047493,0.015672684,0,
00:05.6,0.004440308,0.000469208,0.015666962,0,
00:05.6,0.004440308,0.00047493,0.015678406,0,
00:05.6,0.004440308,0.000463486,0.01568985,0,
00:05.6,0.004428864,0.000469208,0.015672684,0,
00:05.6,0.004440308,0.000497818,0.01571846,0,
00:05.6,0.004440308,0.000509262,0.015695572,0,
00:05.6,0.004428864,0.000492096,0.015701294,0,
00:05.6,0.004440308,0.000492096,0.015707016,0,
00:05.6,0.004423141,0.00047493,0.015707016,0,
00:05.6,0.004423141,0.000469208,0.015712738,0,
00:05.6,0.004463196,0.000492096,0.015701294,0,
00:05.6,0.00444603,0.000492096,0.015712738,0,
00:05.6,0.004428864,0.00047493,0.015724182,0,
00:05.6,0.004423141,0.000480652,0.015707016,0,
00:05.6,0.004377365,0.00047493,0.015724182,0,
00:05.6,0.004434586,0.000480652,0.01574707,0,
00:05.6,0.004463196,0.000492096,0.015724182,0,
00:05.6,0.004434586,0.000492096,0.015735626,0,
00:05.6,0.004457474,0.000497818,0.01571846,0,
00:05.6,0.004440308,0.000480652,0.015735626,0,
00:05.6,0.00444603,0.00047493,0.015775681,0,
00:05.6,0.004417419,0.000480652,0.015775681,0,
00:05.6,0.004411697,0.000480652,0.015758514,0,
00:05.7,0.004411697,0.000463486,0.015775681,0,
00:05.7,0.004417419,0.000457764,0.015752792,0,
00:05.7,0.004440308,0.000469208,0.015781403,0,
00:05.7,0.004440308,0.000480652,0.015787125,0,
00:05.7,0.004434586,0.000492096,0.015769958,0,
00:05.7,0.004411697,0.000480652,0.015775681,0,
00:05.7,0.004440308,0.000463486,0.015781403,0,
00:05.7,0.004434586,0.000457764,0.015781403,0,
00:05.7,0.004417419,0.00047493,0.015787125,0,
00:05.7,0.004423141,0.000486374,0.015821457,0,
00:05.7,0.004428864,0.000497818,0.015804291,0,
00:05.7,0.004440308,0.00050354,0.015792847,0,
00:05.7,0.00444603,0.00050354,0.015792847,0,
00:05.7,0.004423141,0.000486374,0.015787125,0,
00:05.7,0.004423141,0.000469208,0.015821457,0,
00:05.7,0.004423141,0.000457764,0.015832901,0,
00:05.7,0.004411697,0.000480652,0.015850067,0,
00:05.7,0.004434586,0.000480652,0.015844345,0,
00:05.7,0.00444603,0.000480652,0.015832901,0,
00:05.7,0.004428864,0.000497818,0.015821457,0,
00:05.7,0.004440308,0.000492096,0.015815735,0,
00:05.7,0.004405975,0.000469208,0.015838623,0,
00:05.7,0.004388809,0.000463486,0.015844345,0,
00:05.7,0.004428864,0.00047493,0.015850067,0,
00:05.7,0.00444603,0.000492096,0.015861511,0,
00:05.8,0.004428864,0.000492096,0.015850067,0,
00:05.8,0.004428864,0.000486374,0.015838623,0,
00:05.8,0.00444603,0.000480652,0.015867233,0,
00:05.8,0.004428864,0.000463486,0.015861511,0,
00:05.8,0.004405975,0.000440598,0.015884399,0,
00:05.8,0.004423141,0.00044632,0.015895844,0,
00:05.8,0.004434586,0.000492096,0.015872955,0,
00:05.8,0.004417419,0.000486374,0.015872955,0,
00:05.8,0.004405975,0.000469208,0.015872955,0,
00:05.8,0.00444603,0.000486374,0.015878677,0,
00:05.8,0.004434586,0.000486374,0.015930176,0,
00:05.8,0.004423141,0.000469208,0.01594162,0,
00:05.8,0.004411697,0.00047493,0.01591301,0,
00:05.8,0.004428864,0.000492096,0.015907288,0,
00:05.8,0.004434586,0.000486374,0.015895844,0,
00:05.8,0.004428864,0.000469208,0.015878677,0,
00:05.8,0.004428864,0.000469208,0.015935898,0,
00:05.8,0.004423141,0.000480652,0.01594162,0,
00:05.8,0.004428864,0.000463486,0.015935898,0,
00:05.8,0.004423141,0.000434875,0.01594162,0,
00:05.8,0.004417419,0.00044632,0.015918732,0,
00:05.8,0.004417419,0.00047493,0.015935898,0,
00:05.8,0.004428864,0.00050354,0.015930176,0,
00:05.8,0.004434586,0.000486374,0.015930176,0,
00:05.8,0.004423141,0.00047493,0.01594162,0,
00:05.9,0.00444603,0.000486374,0.015947342,0,
00:05.9,0.004423141,0.000492096,0.01594162,0,
00:05.9,0.004423141,0.00047493,0.015958786,0,
00:05.9,0.004423141,0.000480652,0.015975952,0,
00:05.9,0.004434586,0.000480652,0.015975952,0,
00:05.9,0.004434586,0.000469208,0.015958786,0,
00:05.9,0.004451752,0.00047493,0.015947342,0,
00:05.9,0.004434586,0.000480652,0.015958786,0,
00:05.9,0.004417419,0.000452042,0.015981674,0,
00:05.9,0.004394531,0.000463486,0.015981674,0,
00:05.9,0.004417419,0.00047493,0.015987396,0,
00:05.9,0.004423141,0.00044632,0.016027451,0,
00:05.9,0.004411697,0.000469208,0.01599884,0,
00:05.9,0.00444603,0.000486374,0.015981674,0,
00:05.9,0.004423141,0.000492096,0.015975952,0,
00:05.9,0.004388809,0.000480652,0.015975952,0,
00:05.9,0.004440308,0.000486374,0.016004562,0,
00:05.9,0.004451752,0.000452042,0.016010284,0,
00:05.9,0.004434586,0.000452042,0.016010284,0,
00:05.9,0.004428864,0.000486374,0.016010284,0,
00:05.9,0.004428864,0.00047493,0.016010284,0,
00:05.9,0.004434586,0.000463486,0.016004562,0,
00:05.9,0.004400253,0.000463486,0.016021729,0,
00:05.9,0.004423141,0.000469208,0.016021729,0,
00:05.9,0.004434586,0.000469208,0.016021729,0,
00:06.0,0.004428864,0.000486374,0.016021729,0,
00:06.0,0.004428864,0.000486374,0.016016006,0,
00:06.0,0.004400253,0.000469208,0.016038895,0,
00:06.0,0.004434586,0.000469208,0.016021729,0,
00:06.0,0.00444603,0.000457764,0.016033173,0,
00:06.0,0.004440308,0.000457764,0.016021729,0,
00:06.0,0.004417419,0.000457764,0.016016006,0,
00:06.0,0.004417419,0.00047493,0.016004562,0,
00:06.0,0.004434586,0.000469208,0.016016006,0,
00:06.0,0.004428864,0.000463486,0.016067505,0,
00:06.0,0.004428864,0.000469208,0.016056061,0,
00:06.0,0.004428864,0.000469208,0.016056061,0,
00:00:06,0.004434586,0.000486374,0.016027451,0,
00:06.0,0.004417419,0.000469208,0.016038895,0,
00:06.0,0.004423141,0.00047493,0.016050339,0,
00:06.0,0.004428864,0.00047493,0.016056061,0,
00:06.0,0.004434586,0.000457764,0.016061783,0,
00:06.0,0.004434586,0.000452042,0.016050339,0,
00:06.0,0.004434586,0.000469208,0.016027451,0,
00:06.0,0.004423141,0.000492096,0.016038895,0,
00:06.0,0.004428864,0.000497818,0.016056061,0,
00:06.0,0.004428864,0.000469208,0.016038895,0,
00:06.0,0.004423141,0.00044632,0.016033173,0,
00:06.0,0.004423141,0.000463486,0.016061783,0,
00:06.0,0.004428864,0.000469208,0.016050339,0,
00:06.1,0.004434586,0.000480652,0.016050339,0,
00:06.1,0.004423141,0.000457764,0.016038895,0,
00:06.1,0.004423141,0.000457764,0.016067505,0,
00:06.1,0.004434586,0.000480652,0.016050339,0,
00:06.1,0.004428864,0.000480652,0.016067505,0,
00:06.1,0.004423141,0.000469208,0.016061783,0,
00:06.1,0.004428864,0.00047493,0.016056061,0,
00:06.1,0.004434586,0.00047493,0.016050339,0,
00:06.1,0.004423141,0.000480652,0.016067505,0,
00:06.1,0.004411697,0.000469208,0.016050339,0,
00:06.1,0.004405975,0.000457764,0.016033173,0,
00:06.1,0.004428864,0.000457764,0.016050339,0,
00:06.1,0.004417419,0.000469208,0.016056061,0,
00:06.1,0.004417419,0.000480652,0.016050339,0,
00:06.1,0.004428864,0.000480652,0.016056061,0,
00:06.1,0.004440308,0.00047493,0.016056061,0,
00:06.1,0.004394531,0.000463486,0.016067505,0,
00:06.1,0.004394531,0.000469208,0.016067505,0,
00:06.1,0.004411697,0.000452042,0.016050339,0,
00:06.1,0.004405975,0.000434875,0.016044617,0,
00:06.1,0.004457474,0.000452042,0.016038895,0,
00:06.1,0.004451752,0.000497818,0.016050339,0,
00:06.1,0.004428864,0.000480652,0.016061783,0,
00:06.1,0.004434586,0.000492096,0.016056061,0,
00:06.1,0.004428864,0.000486374,0.016033173,0,
00:06.2,0.004423141,0.000463486,0.016027451,0,
00:06.2,0.004428864,0.000457764,0.016067505,0,
00:06.2,0.004428864,0.00047493,0.016061783,0,
00:06.2,0.004428864,0.000480652,0.016050339,0,
00:06.2,0.004434586,0.000492096,0.016044617,0,
00:06.2,0.004434586,0.000486374,0.016044617,0,
00:06.2,0.004434586,0.000486374,0.016038895,0,
00:06.2,0.004423141,0.000492096,0.016038895,0,
00:06.2,0.004423141,0.000463486,0.016033173,0,
00:06.2,0.004428864,0.000463486,0.016027451,0,
00:06.2,0.004411697,0.000457764,0.016067505,0,
00:06.2,0.004377365,0.000463486,0.016044617,0,
00:06.2,0.004423141,0.00047493,0.016021729,0,
00:06.2,0.004440308,0.000480652,0.016016006,0,
00:06.2,0.004457474,0.000486374,0.016033173,0,
00:06.2,0.004434586,0.00047493,0.016027451,0,
00:06.2,0.004411697,0.000486374,0.016021729,0,
00:06.2,0.004423141,0.000469208,0.016038895,0,
00:06.2,0.00444603,0.00044632,0.016021729,0,
00:06.2,0.004423141,0.000452042,0.016027451,0,
00:06.2,0.004417419,0.000463486,0.016021729,0,
00:06.2,0.004428864,0.00047493,0.016021729,0,
00:06.2,0.004440308,0.000457764,0.016010284,0,
00:06.2,0.004428864,0.000440598,0.016027451,0,
00:06.2,0.004434586,0.000452042,0.016027451,0,
00:06.3,0.004440308,0.00047493,0.01599884,0,
00:06.3,0.004428864,0.000469208,0.01599884,0,
00:06.3,0.004434586,0.000457764,0.01599884,0,
00:06.3,0.00444603,0.000463486,0.01599884,0,
00:06.3,0.004440308,0.00047493,0.016010284,0,
00:06.3,0.00444603,0.000497818,0.015993118,0,
00:06.3,0.004440308,0.000497818,0.015987396,0,
00:06.3,0.004440308,0.000480652,0.015975952,0,
00:06.3,0.004451752,0.00050354,0.01597023,0,
00:06.3,0.004451752,0.000480652,0.015981674,0,
00:06.3,0.004440308,0.000457764,0.015975952,0,
00:06.3,0.00444603,0.00047493,0.015981674,0,
00:06.3,0.004423141,0.00047493,0.015981674,0,
00:06.3,0.004428864,0.000463486,0.015975952,0,
00:06.3,0.004440308,0.000469208,0.015958786,0,
00:06.3,0.004457474,0.000469208,0.015981674,0,
00:06.3,0.004457474,0.000452042,0.01597023,0,
00:06.3,0.00444603,0.00044632,0.015981674,0,
00:06.3,0.004457474,0.000469208,0.015975952,0,
00:06.3,0.004463196,0.000469208,0.01597023,0,
00:06.3,0.004440308,0.00047493,0.01594162,0,
00:06.3,0.00447464,0.000463486,0.015953064,0,
00:06.3,0.004480362,0.000452042,0.015958786,0,
00:06.3,0.004463196,0.000469208,0.015947342,0,
00:06.3,0.004463196,0.000469208,0.01594162,0,
00:06.4,0.004463196,0.000463486,0.015953064,0,
00:06.4,0.004451752,0.00044632,0.01594162,0,
00:06.4,0.004463196,0.000452042,0.015958786,0,
00:06.4,0.004468918,0.00047493,0.015935898,0,
00:06.4,0.00447464,0.000463486,0.015935898,0,
00:06.4,0.00447464,0.000463486,0.01591301,0,
00:06.4,0.004480362,0.000463486,0.015895844,0,
00:06.4,0.004480362,0.000463486,0.015907288,0,
00:06.4,0.004463196,0.000463486,0.015930176,0,
00:06.4,0.004491806,0.00047493,0.015924454,0,
00:06.4,0.004497528,0.000463486,0.015890121,0,
00:06.4,0.004463196,0.00047493,0.01591301,0,
00:06.4,0.004468918,0.000469208,0.015918732,0,
00:06.4,0.004463196,0.00044632,0.015878677,0,
00:06.4,0.004497528,0.000457764,0.015890121,0,
00:06.4,0.00447464,0.000457764,0.015890121,0,
00:06.4,0.004491806,0.000463486,0.015878677,0,
00:06.4,0.004491806,0.000463486,0.015855789,0,
00:06.4,0.004497528,0.00044632,0.015867233,0,
00:06.4,0.004468918,0.000440598,0.015867233,0,
00:06.4,0.00450325,0.000452042,0.015861511,0,
00:06.4,0.004508972,0.00044632,0.015838623,0,
00:06.4,0.00450325,0.000457764,0.015838623,0,
00:06.4,0.004508972,0.000457764,0.015827179,0,
00:06.4,0.004497528,0.000452042,0.015827179,0,
00:06.5,0.004520416,0.000457764,0.015838623,0,
00:06.5,0.004520416,0.000434875,0.015827179,0,
00:06.5,0.004526138,0.000423431,0.015810013,0,
00:06.5,0.004514694,0.000440598,0.015810013,0,
00:06.5,0.004514694,0.000457764,0.015827179,0,
00:06.5,0.004508972,0.000469208,0.015804291,0,
00:06.5,0.00453186,0.00044632,0.015810013,0,
00:06.5,0.004514694,0.000429153,0.015792847,0,
00:06.5,0.004508972,0.000434875,0.015787125,0,
00:06.5,0.00453186,0.00044632,0.015787125,0,
00:06.5,0.00453186,0.000440598,0.015769958,0,
00:06.5,0.004537582,0.000452042,0.015741348,0,
00:06.5,0.004514694,0.000463486,0.015752792,0,
00:06.5,0.004526138,0.000429153,0.015758514,0,
00:06.5,0.004537582,0.000417709,0.015769958,0,
00:06.5,0.004537582,0.000429153,0.015735626,0,
00:06.5,0.004549026,0.00044632,0.015712738,0,
00:06.5,0.004560471,0.000434875,0.015729904,0,
00:06.5,0.004554749,0.000434875,0.015729904,0,
00:06.5,0.004560471,0.000440598,0.015707016,0,
00:06.5,0.004549026,0.000434875,0.015712738,0,
00:06.5,0.004549026,0.000434875,0.015684128,0,
00:06.5,0.004554749,0.000429153,0.015684128,0,
00:06.5,0.004560471,0.000417709,0.015666962,0,
00:06.5,0.004554749,0.000417709,0.015678406,0,
00:06.6,0.004577637,0.000434875,0.01566124,0,
00:06.6,0.004583359,0.000434875,0.015644073,0,
00:06.6,0.004549026,0.000417709,0.015649796,0,
00:06.6,0.004549026,0.000417709,0.015638351,0,
00:06.6,0.004543304,0.000429153,0.015638351,0,
00:06.6,0.004583359,0.00044632,0.015609741,0,
00:06.6,0.004566193,0.000423431,0.015604019,0,
00:06.6,0.004543304,0.000400543,0.015615463,0,
00:06.6,0.004600525,0.000411987,0.015615463,0,
00:06.6,0.004606247,0.000429153,0.015609741,0,
00:06.6,0.004589081,0.000406265,0.015609741,0,
00:06.6,0.004571915,0.000400543,0.015586853,0,
00:06.6,0.004577637,0.000406265,0.015575409,0,
00:06.6,0.004606247,0.000400543,0.015569687,0,
00:06.6,0.004589081,0.000406265,0.015558243,0,
00:06.6,0.004600525,0.000423431,0.015541077,0,
00:06.6,0.004617691,0.000429153,0.015552521,0,
00:06.6,0.004611969,0.000406265,0.015518188,0,
00:06.6,0.004611969,0.000400543,0.015489578,0,
00:06.6,0.004589081,0.000394821,0.015506744,0,
00:06.6,0.004577637,0.000394821,0.015518188,0,
00:06.6,0.004640579,0.000394821,0.015506744,0,
00:06.6,0.004623413,0.000400543,0.015478134,0,
00:06.6,0.004652023,0.000440598,0.015478134,0,
00:06.6,0.004646301,0.000434875,0.015455246,0,
00:06.7,0.004629135,0.000394821,0.015443802,0,
00:06.7,0.004617691,0.000394821,0.015455246,0,
00:06.7,0.004634857,0.000389099,0.015443802,0,
00:06.7,0.004623413,0.000389099,0.015426636,0,
00:06.7,0.004623413,0.000389099,0.015426636,0,
00:06.7,0.004623413,0.000389099,0.015420914,0,
00:06.7,0.004640579,0.000389099,0.015386581,0,
00:06.7,0.004640579,0.000394821,0.015380859,0,
00:06.7,0.004652023,0.000400543,0.015375137,0,
00:06.7,0.004646301,0.000383377,0.015375137,0,
00:06.7,0.004646301,0.000383377,0.015380859,0,
00:06.7,0.004657745,0.000406265,0.015369415,0,
00:06.7,0.004652023,0.000400543,0.015340805,0,
00:06.7,0.004634857,0.000366211,0.015300751,0,
00:06.7,0.004669189,0.000377655,0.015329361,0,
00:06.7,0.004663467,0.000400543,0.015312195,0,
00:06.7,0.004657745,0.000389099,0.015329361,0,
00:06.7,0.004657745,0.000383377,0.015300751,0,
00:06.7,0.004652023,0.000389099,0.015289307,0,
00:06.7,0.004583359,0.000371933,0.015306473,0,
00:06.7,0.004657745,0.000354767,0.015266418,0,
00:06.7,0.004703522,0.000371933,0.015249252,0,
00:06.7,0.004692078,0.000389099,0.015249252,0,
00:06.7,0.004692078,0.000394821,0.015260696,0,
00:06.7,0.004669189,0.000394821,0.015226364,0,
00:06.8,0.004680634,0.000383377,0.015203476,0,
00:06.8,0.004669189,0.000371933,0.015192032,0,
00:06.8,0.004692078,0.000377655,0.015192032,0,
00:06.8,0.004686356,0.000371933,0.01521492,0,
00:06.8,0.004703522,0.000366211,0.015180588,0,
00:06.8,0.004692078,0.000377655,0.015146255,0,
00:06.8,0.004686356,0.000371933,0.015134811,0,
00:06.8,0.004686356,0.000371933,0.015151978,0,
00:06.8,0.004686356,0.000371933,0.015140533,0,
00:06.8,0.004692078,0.000383377,0.015129089,0,
00:06.8,0.004680634,0.000377655,0.015100479,0,
00:06.8,0.004703522,0.000366211,0.015083313,0,
00:06.8,0.004709244,0.000366211,0.015083313,0,
00:06.8,0.0046978,0.000377655,0.015083313,0,
00:06.8,0.004692078,0.000366211,0.015060425,0,
00:06.8,0.0046978,0.000377655,0.015026093,0,
00:06.8,0.004692078,0.000354767,0.015008926,0,
00:06.8,0.004703522,0.000343323,0.01502037,0,
00:06.8,0.00472641,0.000354767,0.015003204,0,
00:06.8,0.004720688,0.000371933,0.015008926,0,
00:06.8,0.004709244,0.000366211,0.015008926,0,
00:06.8,0.004714966,0.000349045,0.014974594,0,
00:06.8,0.004714966,0.000366211,0.014940262,0,
00:06.8,0.004709244,0.000360489,0.014951706,0,
00:06.8,0.004703522,0.000349045,0.014951706,0,
00:06.9,0.004720688,0.000371933,0.014928818,0,
00:06.9,0.004714966,0.000366211,0.01490593,0,
00:06.9,0.004680634,0.000337601,0.014900208,0,
00:06.9,0.004720688,0.000366211,0.014877319,0,
00:06.9,0.004760742,0.000360489,0.014860153,0,
00:06.9,0.004737854,0.000366211,0.014860153,0,
00:06.9,0.004749298,0.000383377,0.014820099,0,
00:06.9,0.004749298,0.000377655,0.014831543,0,
00:06.9,0.00472641,0.000349045,0.014842987,0,
00:06.9,0.004703522,0.000343323,0.014831543,0,
00:06.9,0.004720688,0.000349045,0.014797211,0,
00:06.9,0.0046978,0.000331879,0.014802933,0,
00:06.9,0.004749298,0.000354767,0.014785767,0,
00:06.9,0.004772186,0.000371933,0.014762878,0,
00:06.9,0.004760742,0.000383377,0.014751434,0,
00:06.9,0.004760742,0.000360489,0.01473999,0,
00:06.9,0.00475502,0.000331879,0.014728546,0,
00:06.9,0.004732132,0.000337601,0.014722824,0,
00:06.9,0.004737854,0.000349045,0.01471138,0,
00:06.9,0.004749298,0.000354767,0.014699936,0,
00:06.9,0.004749298,0.000366211,0.01468277,0,
00:06.9,0.004743576,0.000349045,0.01465416,0,
00:06.9,0.004749298,0.000366211,0.014631271,0,
00:06.9,0.004749298,0.000366211,0.014619827,0,
00:06.9,0.004760742,0.000349045,0.014631271,0,
00:07.0,0.004766464,0.000354767,0.014619827,0,
00:07.0,0.004749298,0.000360489,0.014602661,0,
00:07.0,0.004737854,0.000337601,0.014579773,0,
00:07.0,0.00475502,0.000331879,0.014591217,0,
00:07.0,0.004772186,0.000326157,0.014585495,0,
00:07.0,0.004766464,0.000343323,0.014551163,0,
00:07.0,0.00475502,0.000366211,0.014511108,0,
00:07.0,0.004720688,0.000366211,0.01451683,0,
00:07.0,0.004720688,0.000349045,0.01451683,0,
00:07.0,0.004812241,0.000331879,0.014499664,0,
00:07.0,0.004795074,0.000337601,0.014499664,0,
00:07.0,0.00475502,0.000343323,0.014493942,0,
00:00:07,0.00475502,0.000343323,0.014471054,0,
00:07.0,0.00475502,0.000337601,0.01445961,0,
00:07.0,0.004737854,0.000349045,0.014425278,0,
00:07.0,0.004789352,0.000366211,0.014408112,0,
00:07.0,0.004772186,0.000343323,0.014413834,0,
00:07.0,0.004766464,0.000337601,0.014396667,0,
00:07.0,0.004760742,0.000314713,0.014385223,0,
00:07.0,0.00475502,0.000331879,0.014373779,0,
00:07.0,0.004749298,0.000320435,0.014356613,0,
00:07.0,0.004766464,0.000337601,0.014345169,0,
00:07.0,0.004766464,0.000354767,0.014328003,0,
00:07.0,0.004749298,0.000337601,0.014305115,0,
00:07.0,0.00475502,0.000331879,0.014276505,0,
00:07.1,0.00475502,0.000331879,0.014310837,0,
00:07.1,0.00475502,0.000331879,0.014282227,0,
00:07.1,0.004737854,0.000326157,0.014282227,0,
00:07.1,0.004720688,0.000320435,0.014270782,0,
00:07.1,0.004720688,0.000343323,0.014230728,0,
00:07.1,0.004732132,0.000349045,0.014219284,0,
00:07.1,0.004777908,0.000337601,0.014219284,0,
00:07.1,0.004766464,0.000320435,0.01420784,0,
00:07.1,0.00475502,0.000337601,0.014202118,0,
00:07.1,0.00475502,0.000331879,0.014156342,0,
00:07.1,0.004760742,0.000320435,0.01415062,0,
00:07.1,0.00475502,0.00030899,0.014156342,0,
00:07.1,0.004743576,0.000314713,0.014156342,0,
00:07.1,0.00472641,0.00030899,0.014144897,0,
00:07.1,0.004737854,0.000331879,0.014099121,0,
00:07.1,0.004749298,0.000337601,0.014076233,0,
00:07.1,0.004732132,0.000331879,0.014104843,0,
00:07.1,0.00472641,0.000303268,0.014087677,0,
00:07.1,0.00472641,0.000303268,0.014070511,0,
00:07.1,0.004737854,0.000331879,0.014059067,0,
00:07.1,0.004737854,0.000326157,0.014036179,0,
00:07.1,0.00472641,0.000331879,0.014036179,0,
00:07.1,0.004714966,0.000314713,0.014030457,0,
00:07.1,0.004720688,0.00028038,0.014001846,0,
00:07.1,0.004686356,0.000320435,0.013990402,0,
00:07.2,0.004680634,0.000331879,0.013978958,0,
00:07.2,0.004714966,0.000320435,0.013978958,0,
00:07.2,0.004703522,0.000314713,0.013973236,0,
00:07.2,0.004732132,0.00030899,0.013967514,0,
00:07.2,0.004743576,0.000314713,0.013938904,0,
00:07.2,0.004743576,0.000343323,0.013933182,0,
00:07.2,0.004714966,0.000331879,0.013944626,0,
00:07.2,0.004709244,0.00030899,0.013950348,0,
00:07.2,0.004692078,0.000314713,0.013916016,0,
00:07.2,0.004680634,0.000320435,0.013893127,0,
00:07.2,0.00472641,0.000297546,0.013898849,0,
00:07.2,0.004720688,0.000286102,0.013870239,0,
00:07.2,0.004714966,0.000314713,0.013870239,0,
00:07.2,0.004703522,0.000320435,0.013881683,0,
00:07.2,0.004714966,0.000320435,0.013858795,0,
00:07.2,0.004686356,0.00030899,0.013835907,0,
00:07.2,0.004680634,0.00030899,0.013853073,0,
00:07.2,0.004692078,0.000320435,0.013830185,0,
00:07.2,0.004692078,0.000303268,0.013807297,0,
00:07.2,0.004686356,0.000297546,0.013830185,0,
00:07.2,0.004720688,0.000337601,0.013818741,0,
00:07.2,0.004692078,0.000326157,0.013807297,0,
00:07.2,0.004663467,0.000331879,0.013784409,0,
00:07.2,0.004657745,0.000314713,0.013778687,0,
00:07.2,0.004663467,0.000326157,0.013795853,0,
00:07.3,0.004646301,0.000314713,0.013767242,0,
00:07.3,0.004669189,0.000303268,0.013750076,0,
00:07.3,0.004674911,0.000314713,0.013744354,0,
00:07.3,0.004680634,0.000320435,0.01376152,0,
00:07.3,0.004674911,0.000297546,0.013755798,0,
00:07.3,0.004674911,0.000320435,0.01373291,0,
00:07.3,0.004674911,0.000331879,0.013721466,0,
00:07.3,0.004646301,0.000291824,0.013721466,0,
00:07.3,0.004652023,0.000274658,0.013721466,0,
00:07.3,0.004657745,0.000297546,0.013710022,0,
00:07.3,0.004652023,0.00030899,0.0137043,0,
00:07.3,0.004657745,0.000320435,0.01367569,0,
00:07.3,0.004657745,0.000337601,0.013658524,0,
00:07.3,0.004646301,0.000326157,0.013658524,0,
00:07.3,0.004606247,0.000326157,0.013664246,0,
00:07.3,0.004646301,0.000320435,0.013641357,0,
00:07.3,0.004611969,0.000314713,0.013618469,0,
00:07.3,0.004646301,0.000326157,0.013612747,0,
00:07.3,0.004663467,0.000314713,0.013641357,0,
00:07.3,0.004634857,0.00030899,0.013641357,0,
00:07.3,0.004617691,0.000314713,0.013629913,0,
00:07.3,0.004640579,0.000314713,0.013618469,0,
00:07.3,0.004629135,0.000303268,0.013618469,0,
00:07.3,0.004600525,0.000303268,0.013618469,0,
00:07.3,0.004606247,0.00028038,0.013601303,0,
00:07.4,0.004617691,0.00028038,0.013595581,0,
00:07.4,0.004623413,0.000314713,0.013566971,0,
00:07.4,0.004640579,0.000314713,0.013566971,0,
00:07.4,0.004634857,0.000303268,0.013566971,0,
00:07.4,0.004611969,0.000320435,0.013566971,0,
00:07.4,0.004600525,0.000314713,0.013578415,0,
00:07.4,0.004606247,0.000297546,0.013561249,0,
00:07.4,0.004594803,0.000286102,0.013561249,0,
00:07.4,0.004589081,0.000274658,0.013544083,0,
00:07.4,0.004594803,0.000314713,0.013532639,0,
00:07.4,0.004611969,0.000337601,0.01350975,0,
00:07.4,0.004583359,0.000303268,0.013526917,0,
00:07.4,0.004571915,0.000286102,0.013532639,0,
00:07.4,0.004600525,0.000291824,0.01350975,0,
00:07.4,0.004594803,0.000303268,0.013515472,0,
00:07.4,0.004583359,0.000297546,0.013526917,0,
00:07.4,0.004583359,0.000291824,0.013504028,0,
00:07.4,0.004571915,0.00028038,0.013492584,0,
00:07.4,0.004537582,0.000263214,0.013475418,0,
00:07.4,0.004589081,0.000268936,0.01348114,0,
00:07.4,0.004571915,0.000286102,0.013469696,0,
00:07.4,0.004594803,0.00028038,0.013469696,0,
00:07.4,0.004589081,0.000274658,0.01348114,0,
00:07.4,0.004583359,0.000274658,0.01348114,0,
00:07.4,0.004571915,0.000291824,0.013469696,0,
00:07.5,0.004571915,0.00028038,0.013458252,0,
00:07.5,0.004566193,0.00025177,0.013441086,0,
00:07.5,0.004543304,0.000246048,0.013441086,0,
00:07.5,0.004571915,0.000257492,0.013441086,0,
00:07.5,0.004571915,0.000257492,0.013435364,0,
00:07.5,0.004594803,0.000263214,0.013435364,0,
00:07.5,0.004571915,0.000257492,0.013395309,0,
00:07.5,0.004560471,0.000263214,0.013418198,0,
00:07.5,0.004566193,0.000268936,0.013435364,0,
00:07.5,0.004560471,0.000257492,0.013435364,0,
00:07.5,0.004560471,0.000263214,0.01342392,0,
00:07.5,0.004566193,0.000263214,0.013412476,0,
00:07.5,0.004566193,0.000257492,0.013389587,0,
00:07.5,0.004554749,0.00025177,0.013366699,0,
00:07.5,0.004560471,0.000240326,0.013378143,0,
00:07.5,0.004526138,0.00025177,0.013395309,0,
00:07.5,0.004554749,0.000263214,0.013372421,0,
00:07.5,0.004583359,0.000268936,0.013366699,0,
00:07.5,0.004566193,0.000263214,0.013383865,0,
00:07.5,0.004566193,0.000263214,0.013378143,0,
00:07.5,0.004571915,0.00025177,0.013366699,0,
00:07.5,0.004571915,0.000274658,0.013343811,0,
00:07.5,0.004571915,0.00028038,0.013343811,0,
00:07.5,0.004560471,0.000268936,0.013326645,0,
00:07.5,0.004526138,0.000257492,0.013349533,0,
00:07.6,0.004560471,0.000257492,0.013372421,0,
00:07.6,0.004589081,0.000263214,0.013355255,0,
00:07.6,0.004554749,0.000268936,0.013349533,0,
00:07.6,0.004560471,0.000257492,0.013355255,0,
00:07.6,0.004554749,0.000257492,0.013343811,0,
00:07.6,0.004560471,0.00025177,0.013349533,0,
00:07.6,0.004560471,0.000268936,0.013349533,0,
00:07.6,0.004537582,0.000246048,0.013338089,0,
00:07.6,0.004537582,0.000228882,0.013326645,0,
00:07.6,0.004526138,0.000240326,0.013338089,0,
00:07.6,0.004594803,0.000263214,0.013309479,0,
00:07.6,0.004594803,0.000268936,0.013315201,0,
00:07.6,0.004560471,0.000274658,0.013338089,0,
00:07.6,0.004520416,0.000274658,0.013332367,0,
00:07.6,0.004560471,0.000268936,0.013320923,0,
00:07.6,0.004589081,0.000274658,0.013326645,0,
00:07.6,0.004566193,0.000274658,0.013292313,0,
00:07.6,0.004566193,0.000268936,0.013298035,0,
00:07.6,0.004566193,0.000268936,0.013320923,0,
00:07.6,0.004554749,0.000268936,0.013332367,0,
00:07.6,0.004554749,0.00025177,0.013332367,0,
00:07.6,0.004554749,0.000246048,0.013315201,0,
00:07.6,0.004560471,0.00025177,0.013315201,0,
00:07.6,0.004549026,0.000228882,0.013320923,0,
00:07.6,0.004560471,0.000246048,0.013303757,0,
00:07.7,0.004571915,0.000274658,0.013303757,0,
00:07.7,0.004554749,0.000268936,0.013320923,0,
00:07.7,0.004554749,0.000263214,0.013292313,0,
00:07.7,0.004543304,0.00025177,0.013292313,0,
00:07.7,0.004554749,0.000274658,0.013309479,0,
00:07.7,0.004554749,0.000291824,0.013309479,0,
00:07.7,0.004549026,0.000268936,0.013298035,0,
00:07.7,0.004571915,0.000263214,0.013298035,0,
00:07.7,0.004526138,0.00025177,0.013303757,0,
00:07.7,0.004520416,0.000257492,0.013315201,0,
00:07.7,0.004549026,0.000263214,0.013320923,0,
00:07.7,0.004554749,0.000274658,0.013309479,0,
00:07.7,0.004571915,0.000263214,0.013315201,0,
00:07.7,0.004526138,0.000263214,0.013309479,0,
00:07.7,0.004583359,0.000257492,0.013303757,0,
00:07.7,0.004583359,0.000257492,0.013309479,0,
00:07.7,0.004571915,0.000263214,0.013320923,0,
00:07.7,0.004577637,0.000257492,0.013298035,0,
00:07.7,0.004560471,0.00025177,0.013303757,0,
00:07.7,0.004543304,0.000246048,0.013315201,0,
00:07.7,0.004549026,0.000240326,0.013320923,0,
00:07.7,0.004537582,0.000240326,0.013326645,0,
00:07.7,0.004549026,0.000257492,0.013303757,0,
00:07.7,0.004560471,0.000246048,0.013320923,0,
00:07.7,0.004560471,0.000246048,0.013315201,0,
00:07.8,0.004571915,0.000263214,0.013309479,0,
00:07.8,0.004566193,0.000257492,0.013309479,0,
00:07.8,0.004560471,0.000246048,0.013320923,0,
00:07.8,0.004566193,0.000246048,0.013326645,0,
00:07.8,0.004549026,0.000263214,0.013326645,0,
00:07.8,0.00453186,0.000257492,0.013332367,0,
00:07.8,0.004566193,0.000268936,0.013332367,0,
00:07.8,0.004571915,0.000246048,0.013320923,0,
00:07.8,0.004554749,0.000240326,0.013332367,0,
00:07.8,0.004554749,0.000268936,0.013338089,0,
00:07.8,0.00453186,0.000257492,0.013349533,0,
00:07.8,0.004526138,0.000234604,0.013355255,0,
00:07.8,0.004554749,0.00025177,0.013332367,0,
00:07.8,0.004589081,0.000263214,0.013332367,0,
00:07.8,0.004566193,0.00025177,0.013366699,0,
00:07.8,0.004549026,0.000246048,0.013349533,0,
00:07.8,0.004560471,0.000246048,0.013343811,0,
00:07.8,0.004554749,0.000234604,0.013360977,0,
00:07.8,0.004554749,0.000246048,0.013355255,0,
00:07.8,0.004554749,0.00025177,0.013338089,0,
00:07.8,0.004554749,0.000246048,0.013349533,0,
00:07.8,0.004554749,0.000240326,0.013366699,0,
00:07.8,0.004566193,0.000257492,0.013349533,0,
00:07.8,0.004549026,0.000240326,0.013366699,0,
00:07.8,0.004566193,0.000240326,0.013383865,0,
00:07.9,0.004560471,0.000240326,0.013372421,0,
00:07.9,0.004566193,0.000228882,0.013349533,0,
00:07.9,0.004566193,0.000234604,0.013338089,0,
00:07.9,0.004554749,0.000246048,0.013383865,0,
00:07.9,0.004549026,0.000240326,0.013378143,0,
00:07.9,0.004508972,0.000234604,0.013378143,0,
00:07.9,0.004577637,0.000240326,0.013395309,0,
00:07.9,0.004566193,0.000257492,0.013378143,0,
00:07.9,0.004543304,0.000246048,0.013372421,0,
00:07.9,0.004560471,0.000268936,0.013401031,0,
00:07.9,0.004577637,0.000263214,0.013395309,0,
00:07.9,0.004554749,0.00022316,0.013389587,0,
00:07.9,0.004566193,0.000228882,0.013389587,0,
00:07.9,0.004549026,0.000234604,0.013412476,0,
00:07.9,0.004514694,0.000240326,0.013406754,0,
00:07.9,0.004560471,0.000240326,0.013406754,0,
00:07.9,0.004571915,0.000234604,0.013412476,0,
00:07.9,0.004560471,0.000228882,0.013395309,0,
00:07.9,0.004554749,0.000234604,0.013406754,0,
00:07.9,0.004560471,0.000240326,0.013429642,0,
00:07.9,0.004566193,0.000240326,0.013429642,0,
00:07.9,0.004571915,0.000246048,0.013418198,0,
00:07.9,0.004571915,0.000228882,0.013418198,0,
00:07.9,0.004571915,0.000234604,0.013441086,0,
00:07.9,0.004571915,0.000257492,0.013418198,0,
00:08.0,0.004566193,0.000234604,0.013418198,0,
00:08.0,0.004554749,0.00022316,0.013458252,0,
00:08.0,0.004549026,0.000200272,0.013458252,0,
00:08.0,0.004560471,0.00022316,0.013458252,0,
00:08.0,0.004571915,0.000246048,0.013463974,0,
00:08.0,0.004566193,0.000246048,0.013469696,0,
00:08.0,0.004560471,0.000240326,0.013458252,0,
00:08.0,0.004549026,0.000234604,0.013469696,0,
00:08.0,0.004537582,0.000234604,0.013475418,0,
00:08.0,0.004549026,0.00022316,0.013486862,0,
00:08.0,0.004549026,0.00022316,0.01348114,0,
00:08.0,0.004566193,0.000228882,0.013469696,0,
00:00:08,0.004543304,0.00022316,0.013486862,0,
00:08.0,0.004554749,0.00022316,0.01350975,0,
00:08.0,0.004549026,0.00022316,0.01350975,0,
00:08.0,0.004560471,0.000228882,0.013492584,0,
00:08.0,0.004594803,0.000217438,0.013492584,0,
00:08.0,0.004577637,0.00022316,0.01350975,0,
00:08.0,0.004566193,0.000217438,0.013498306,0,
00:08.0,0.004571915,0.000228882,0.013504028,0,
00:08.0,0.004594803,0.00022316,0.01350975,0,
00:08.0,0.004554749,0.000228882,0.01350975,0,
00:08.0,0.00453186,0.000234604,0.013526917,0,
00:08.0,0.004543304,0.000228882,0.013538361,0,
00:08.0,0.004594803,0.000228882,0.013532639,0,
00:08.1,0.004571915,0.000228882,0.013532639,0,
00:08.1,0.004566193,0.000211716,0.013549805,0,
00:08.1,0.004571915,0.000211716,0.013532639,0,
00:08.1,0.004571915,0.000228882,0.013549805,0,
00:08.1,0.004566193,0.000234604,0.013572693,0,
00:08.1,0.004549026,0.00022316,0.013572693,0,
00:08.1,0.004537582,0.000211716,0.013584137,0,
00:08.1,0.004577637,0.000217438,0.013578415,0,
00:08.1,0.004571915,0.000205994,0.013566971,0,
00:08.1,0.004566193,0.000211716,0.013561249,0,
00:08.1,0.004566193,0.00022316,0.013601303,0,
00:08.1,0.004566193,0.00022316,0.013595581,0,
00:08.1,0.004560471,0.000211716,0.013601303,0,
00:08.1,0.004560471,0.000200272,0.013618469,0,
00:08.1,0.004589081,0.000211716,0.013618469,0,
00:08.1,0.004549026,0.000211716,0.013624191,0,
00:08.1,0.00453186,0.00022316,0.013629913,0,
00:08.1,0.004583359,0.000205994,0.013618469,0,
00:08.1,0.004577637,0.000205994,0.013612747,0,
00:08.1,0.004571915,0.000240326,0.013647079,0,
00:08.1,0.004571915,0.000211716,0.013641357,0,
00:08.1,0.004577637,0.000200272,0.013641357,0,
00:08.1,0.004566193,0.000188828,0.013658524,0,
00:08.1,0.004577637,0.00019455,0.013658524,0,
00:08.1,0.004583359,0.000200272,0.013647079,0,
00:08.2,0.004566193,0.000211716,0.013658524,0,
00:08.2,0.004514694,0.000211716,0.013664246,0,
00:08.2,0.004554749,0.000200272,0.013687134,0,
00:08.2,0.004554749,0.000200272,0.013698578,0,
00:08.2,0.004583359,0.000205994,0.0137043,0,
00:08.2,0.004589081,0.00019455,0.0137043,0,
00:08.2,0.004583359,0.000200272,0.013698578,0,
00:08.2,0.004583359,0.000211716,0.013681412,0,
00:08.2,0.004589081,0.000205994,0.013698578,0,
00:08.2,0.004577637,0.000205994,0.01373291,0,
00:08.2,0.004560471,0.000205994,0.01373291,0,
00:08.2,0.004577637,0.00019455,0.013721466,0,
00:08.2,0.004566193,0.00019455,0.013738632,0,
00:08.2,0.004571915,0.00019455,0.013744354,0,
00:08.2,0.004571915,0.000188828,0.013744354,0,
00:08.2,0.004571915,0.00019455,0.013755798,0,
00:08.2,0.004583359,0.000205994,0.01376152,0,
00:08.2,0.004577637,0.000205994,0.013772964,0,
00:08.2,0.004577637,0.00019455,0.01376152,0,
00:08.2,0.004583359,0.000211716,0.01376152,0,
00:08.2,0.004583359,0.000211716,0.013790131,0,
00:08.2,0.004577637,0.00019455,0.013795853,0,
00:08.2,0.004554749,0.00019455,0.013813019,0,
00:08.2,0.00453186,0.000183105,0.013813019,0,
00:08.2,0.004566193,0.000188828,0.013813019,0,
00:08.3,0.004600525,0.000205994,0.013813019,0,
00:08.3,0.004589081,0.000211716,0.013790131,0,
00:08.3,0.004571915,0.000177383,0.013824463,0,
00:08.3,0.004543304,0.000177383,0.013830185,0,
00:08.3,0.004543304,0.000177383,0.013864517,0,
00:08.3,0.004600525,0.000188828,0.013847351,0,
00:08.3,0.004589081,0.00019455,0.013835907,0,
00:08.3,0.004577637,0.00019455,0.013835907,0,
00:08.3,0.004611969,0.000200272,0.013847351,0,
00:08.3,0.004583359,0.000177383,0.013858795,0,
00:08.3,0.004554749,0.000160217,0.013881683,0,
00:08.3,0.004554749,0.000177383,0.013887405,0,
00:08.3,0.004577637,0.000183105,0.013893127,0,
00:08.3,0.004589081,0.000177383,0.013893127,0,
00:08.3,0.004571915,0.000183105,0.013898849,0,
00:08.3,0.004571915,0.000177383,0.013910294,0,
00:08.3,0.004571915,0.000165939,0.013904572,0,
00:08.3,0.004571915,0.00019455,0.013910294,0,
00:08.3,0.004571915,0.00019455,0.013921738,0,
00:08.3,0.004577637,0.000183105,0.01392746,0,
00:08.3,0.004571915,0.000188828,0.013950348,0,
00:08.3,0.004566193,0.000183105,0.013944626,0,
00:08.3,0.004577637,0.000177383,0.013933182,0,
00:08.3,0.004543304,0.000165939,0.01392746,0,
00:08.3,0.004554749,0.000165939,0.01398468,0,
00:08.4,0.004611969,0.000188828,0.013978958,0,
00:08.4,0.004583359,0.000148773,0.013990402,0,
00:08.4,0.004554749,0.000165939,0.014001846,0,
00:08.4,0.004508972,0.000165939,0.013990402,0,
00:08.4,0.004600525,0.000171661,0.014024734,0,
00:08.4,0.004583359,0.000165939,0.014024734,0,
00:08.4,0.004589081,0.000171661,0.01401329,0,
00:08.4,0.004589081,0.000171661,0.01401329,0,
00:08.4,0.004594803,0.000171661,0.014024734,0,
00:08.4,0.004583359,0.000165939,0.014053345,0,
00:08.4,0.004589081,0.000171661,0.014047623,0,
00:08.4,0.004594803,0.000183105,0.014053345,0,
00:08.4,0.004589081,0.000165939,0.014053345,0,
00:08.4,0.004577637,0.000154495,0.014047623,0,
00:08.4,0.004583359,0.000160217,0.014047623,0,
00:08.4,0.004577637,0.000143051,0.014081955,0,
00:08.4,0.004571915,0.000154495,0.014081955,0,
00:08.4,0.004583359,0.000171661,0.014070511,0,
00:08.4,0.004577637,0.000165939,0.014081955,0,
00:08.4,0.004577637,0.000165939,0.014110565,0,
00:08.4,0.004566193,0.000160217,0.014127731,0,
00:08.4,0.004571915,0.000160217,0.014116287,0,
00:08.4,0.004583359,0.000137329,0.014127731,0,
00:08.4,0.004577637,0.000120163,0.014122009,0,
00:08.4,0.004566193,0.000137329,0.014133453,0,
00:08.5,0.004571915,0.000171661,0.014144897,0,
00:08.5,0.004566193,0.000171661,0.014127731,0,
00:08.5,0.004497528,0.000171661,0.014139175,0,
00:08.5,0.004623413,0.000154495,0.01415062,0,
00:08.5,0.004629135,0.000143051,0.014162064,0,
00:08.5,0.004583359,0.000154495,0.014167786,0,
00:08.5,0.004554749,0.000171661,0.014173508,0,
00:08.5,0.004594803,0.000165939,0.014184952,0,
00:08.5,0.004594803,0.000154495,0.014196396,0,
00:08.5,0.004589081,0.000160217,0.014196396,0,
00:08.5,0.004594803,0.000160217,0.014196396,0,
00:08.5,0.004583359,0.000148773,0.014202118,0,
00:08.5,0.004583359,0.000160217,0.014202118,0,
00:08.5,0.004583359,0.000160217,0.014202118,0,
00:08.5,0.004583359,0.000148773,0.014230728,0,
00:08.5,0.004577637,0.000131607,0.01423645,0,
00:08.5,0.004577637,0.000131607,0.014253616,0,
00:08.5,0.004589081,0.000160217,0.014270782,0,
00:08.5,0.004583359,0.000143051,0.014270782,0,
00:08.5,0.004577637,0.000131607,0.014242172,0,
00:08.5,0.004583359,0.000148773,0.014282227,0,
00:08.5,0.004583359,0.000137329,0.014287949,0,
00:08.5,0.004583359,0.000148773,0.014287949,0,
00:08.5,0.004571915,0.000148773,0.014316559,0,
00:08.5,0.004583359,0.000143051,0.014316559,0,
00:08.6,0.004577637,0.000165939,0.014305115,0,
00:08.6,0.004594803,0.000148773,0.014305115,0,
00:08.6,0.004577637,0.000125885,0.014328003,0,
00:08.6,0.004566193,0.000125885,0.014333725,0,
00:08.6,0.004600525,0.000137329,0.014333725,0,
00:08.6,0.004600525,0.000165939,0.014333725,0,
00:08.6,0.004571915,0.000148773,0.014362335,0,
00:08.6,0.004554749,0.000131607,0.014356613,0,
00:08.6,0.004611969,0.000120163,0.014379501,0,
00:08.6,0.004606247,0.000148773,0.014385223,0,
00:08.6,0.004589081,0.000148773,0.014379501,0,
00:08.6,0.004606247,0.000160217,0.014385223,0,
00:08.6,0.004594803,0.000154495,0.014373779,0,
00:08.6,0.004606247,0.000154495,0.014390945,0,
00:08.6,0.004589081,0.000154495,0.014408112,0,
00:08.6,0.004589081,0.000148773,0.01440239,0,
00:08.6,0.004583359,0.000131607,0.014419556,0,
00:08.6,0.004589081,0.000137329,0.014431,0,
00:08.6,0.004606247,0.000137329,0.014453888,0,
00:08.6,0.004594803,0.000125885,0.014436722,0,
00:08.6,0.004583359,0.000131607,0.014425278,0,
00:08.6,0.004583359,0.000125885,0.014442444,0,
00:08.6,0.004549026,0.000102997,0.014442444,0,
00:08.6,0.004600525,0.000108719,0.014499664,0,
00:08.6,0.004589081,0.000143051,0.014499664,0,
00:08.7,0.004623413,0.000154495,0.01448822,0,
00:08.7,0.004623413,0.000148773,0.014476776,0,
00:08.7,0.004606247,0.000131607,0.014482498,0,
00:08.7,0.004611969,0.000125885,0.014493942,0,
00:08.7,0.004611969,0.000143051,0.014522552,0,
00:08.7,0.004594803,0.000114441,0.014511108,0,
00:08.7,0.004600525,0.000114441,0.014511108,0,
00:08.7,0.004600525,0.000131607,0.014528275,0,
00:08.7,0.004606247,0.000137329,0.014528275,0,
00:08.7,0.004566193,0.000143051,0.014533997,0,
00:08.7,0.004600525,0.000143051,0.014562607,0,
00:08.7,0.004634857,0.000143051,0.014568329,0,
00:08.7,0.004617691,0.000131607,0.014533997,0,
00:08.7,0.004606247,0.000114441,0.014568329,0,
00:08.7,0.004617691,0.000125885,0.014596939,0,
00:08.7,0.004611969,0.000120163,0.014585495,0,
00:08.7,0.004611969,0.000125885,0.014591217,0,
00:08.7,0.004623413,0.000131607,0.014596939,0,
00:08.7,0.004600525,0.000120163,0.014602661,0,
00:08.7,0.004611969,0.000114441,0.014602661,0,
00:08.7,0.004611969,0.000120163,0.014614105,0,
00:08.7,0.004600525,0.000137329,0.014642715,0,
00:08.7,0.004589081,0.000131607,0.014648438,0,
00:08.7,0.004617691,0.000125885,0.014648438,0,
00:08.7,0.004606247,0.000102997,0.014636993,0,
00:08.8,0.004617691,0.000102997,0.014659882,0,
00:08.8,0.004611969,0.000125885,0.01465416,0,
00:08.8,0.004583359,0.000137329,0.014659882,0,
00:08.8,0.004629135,0.000114441,0.014671326,0,
00:08.8,0.004623413,0.000120163,0.014665604,0,
00:08.8,0.004623413,0.000137329,0.01468277,0,
00:08.8,0.004611969,0.000114441,0.014699936,0,
00:08.8,0.004583359,0.000120163,0.014705658,0,
00:08.8,0.004617691,0.000131607,0.014699936,0,
00:08.8,0.004634857,0.000131607,0.014688492,0,
00:08.8,0.004617691,0.000102997,0.014671326,0,
00:08.8,0.004629135,0.000108719,0.01471138,0,
00:08.8,0.004623413,0.000131607,0.014734268,0,
00:08.8,0.004629135,0.000125885,0.014717102,0,
00:08.8,0.004623413,0.000125885,0.014734268,0,
00:08.8,0.004629135,0.000125885,0.014751434,0,
00:08.8,0.004617691,0.000120163,0.014745712,0,
00:08.8,0.004611969,0.000108719,0.014751434,0,
00:08.8,0.004611969,0.000102997,0.014745712,0,
00:08.8,0.004606247,0.000102997,0.014762878,0,
00:08.8,0.004623413,0.000108719,0.0147686,0,
00:08.8,0.004640579,0.000120163,0.014762878,0,
00:08.8,0.004611969,0.000131607,0.014802933,0,
00:08.8,0.004606247,0.000120163,0.014791489,0,
00:08.8,0.004629135,0.000108719,0.014791489,0,
00:08.9,0.004611969,9.73E-05,0.014797211,0,
00:08.9,0.004623413,0.000108719,0.014802933,0,
00:08.9,0.004640579,0.000120163,0.014808655,0,
00:08.9,0.004646301,0.000125885,0.014802933,0,
00:08.9,0.004629135,0.000125885,0.014842987,0,
00:08.9,0.004617691,0.000120163,0.014825821,0,
00:08.9,0.004611969,0.000114441,0.014825821,0,
00:08.9,0.004617691,9.73E-05,0.014860153,0,
00:08.9,0.004623413,0.000131607,0.014860153,0,
00:08.9,0.004634857,0.000143051,0.014854431,0,
00:08.9,0.004623413,0.000120163,0.014871597,0,
00:08.9,0.004611969,9.16E-05,0.014865875,0,
00:08.9,0.004617691,8.58E-05,0.014900208,0,
00:08.9,0.004617691,0.000108719,0.014888763,0,
00:08.9,0.004629135,0.000114441,0.014894485,0,
00:08.9,0.004629135,0.000114441,0.014894485,0,
00:08.9,0.004623413,0.000120163,0.014900208,0,
00:08.9,0.004629135,0.000120163,0.014917374,0,
00:08.9,0.004600525,9.73E-05,0.014923096,0,
00:08.9,0.004623413,0.000108719,0.014917374,0,
00:08.9,0.004634857,0.000114441,0.014911652,0,
00:08.9,0.004606247,0.000102997,0.014894485,0,
00:08.9,0.004549026,0.000102997,0.014923096,0,
00:08.9,0.004629135,0.000108719,0.014940262,0,
00:08.9,0.004640579,0.000120163,0.014945984,0,
00:09.0,0.004646301,0.000125885,0.014923096,0,
00:09.0,0.004634857,0.000108719,0.014951706,0,
00:09.0,0.004623413,0.000102997,0.014980316,0,
00:09.0,0.004629135,0.000102997,0.014974594,0,
00:09.0,0.004611969,0.000102997,0.014968872,0,
00:09.0,0.004646301,0.000108719,0.01499176,0,
00:09.0,0.004646301,0.000131607,0.014986038,0,
00:09.0,0.004629135,0.000125885,0.015003204,0,
00:09.0,0.004623413,0.000102997,0.015003204,0,
00:09.0,0.004640579,9.73E-05,0.014997482,0,
00:09.0,0.004623413,0.000102997,0.015014648,0,
00:09.0,0.004634857,0.000108719,0.015008926,0,
00:00:09,0.004617691,0.000114441,0.015008926,0,
00:09.0,0.004640579,0.000114441,0.01499176,0,
00:09.0,0.004640579,0.000120163,0.015026093,0,
00:09.0,0.004623413,0.000125885,0.015043259,0,
00:09.0,0.004634857,0.000120163,0.015043259,0,
00:09.0,0.004611969,0.000108719,0.015043259,0,
00:09.0,0.004623413,0.000114441,0.015054703,0,
00:09.0,0.004634857,0.000120163,0.015048981,0,
00:09.0,0.004629135,0.000114441,0.015066147,0,
00:09.0,0.004617691,0.000102997,0.015089035,0,
00:09.0,0.004617691,0.000108719,0.015089035,0,
00:09.0,0.004617691,9.73E-05,0.015083313,0,
00:09.0,0.004589081,9.16E-05,0.015077591,0,
00:09.1,0.004634857,0.000120163,0.015089035,0,
00:09.1,0.004594803,0.000125885,0.015094757,0,
00:09.1,0.004629135,0.000120163,0.015094757,0,
00:09.1,0.004680634,0.000120163,0.015111923,0,
00:09.1,0.004640579,0.000114441,0.015123367,0,
00:09.1,0.004629135,9.16E-05,0.015111923,0,
00:09.1,0.004629135,9.16E-05,0.015106201,0,
00:09.1,0.004634857,0.000114441,0.015134811,0,
00:09.1,0.004646301,0.000120163,0.015129089,0,
00:09.1,0.004640579,0.000137329,0.015146255,0,
00:09.1,0.004634857,0.000120163,0.0151577,0,
00:09.1,0.004629135,0.000108719,0.015169144,0,
00:09.1,0.004634857,0.000120163,0.015174866,0,
00:09.1,0.004646301,0.000131607,0.015174866,0,
00:09.1,0.004634857,0.000114441,0.015169144,0,
00:09.1,0.004623413,0.000108719,0.01518631,0,
00:09.1,0.004629135,0.000120163,0.015163422,0,
00:09.1,0.004629135,0.000125885,0.01518631,0,
00:09.1,0.004623413,9.73E-05,0.015209198,0,
00:09.1,0.004600525,9.16E-05,0.015203476,0,
00:09.1,0.004606247,0.000108719,0.015203476,0,
00:09.1,0.004629135,0.000108719,0.015197754,0,
00:09.1,0.004640579,9.73E-05,0.01521492,0,
00:09.1,0.004634857,0.000120163,0.015220642,0,
00:09.1,0.004623413,0.000125885,0.015232086,0,
00:09.2,0.004652023,0.000131607,0.015249252,0,
00:09.2,0.004629135,0.000125885,0.015237808,0,
00:09.2,0.004594803,0.000114441,0.01524353,0,
00:09.2,0.004617691,0.000114441,0.015237808,0,
00:09.2,0.004652023,0.000120163,0.015266418,0,
00:09.2,0.004606247,0.000114441,0.015266418,0,
00:09.2,0.004623413,0.000102997,0.015260696,0,
00:09.2,0.004669189,0.000125885,0.015260696,0,
00:09.2,0.004652023,0.000125885,0.015272141,0,
00:09.2,0.004646301,0.000120163,0.015254974,0,
00:09.2,0.004640579,0.000120163,0.015283585,0,
00:09.2,0.004629135,0.000120163,0.015289307,0,
00:09.2,0.004623413,0.000108719,0.015289307,0,
00:09.2,0.004634857,0.000120163,0.015295029,0,
00:09.2,0.004646301,0.000143051,0.015306473,0,
00:09.2,0.004629135,0.000125885,0.015312195,0,
00:09.2,0.004623413,9.73E-05,0.015312195,0,
00:09.2,0.004611969,8.01E-05,0.015312195,0,
00:09.2,0.004623413,9.73E-05,0.015340805,0,
00:09.2,0.004634857,0.000154495,0.015340805,0,
00:09.2,0.004657745,0.000160217,0.015317917,0,
00:09.2,0.004629135,0.000137329,0.015323639,0,
00:09.2,0.004623413,0.000125885,0.015329361,0,
00:09.2,0.004623413,0.000120163,0.015317917,0,
00:09.2,0.004629135,0.000120163,0.015357971,0,
00:09.3,0.004646301,0.000125885,0.015375137,0,
00:09.3,0.004646301,0.000143051,0.015363693,0,
00:09.3,0.004594803,0.000131607,0.015346527,0,
00:09.3,0.004646301,0.000114441,0.015369415,0,
00:09.3,0.004646301,0.000125885,0.015380859,0,
00:09.3,0.004623413,0.000120163,0.015380859,0,
00:09.3,0.004594803,0.000108719,0.015392303,0,
00:09.3,0.004611969,0.000137329,0.015392303,0,
00:09.3,0.004640579,0.000131607,0.01540947,0,
00:09.3,0.004669189,0.000125885,0.015403748,0,
00:09.3,0.004646301,0.000125885,0.01540947,0,
00:09.3,0.004640579,0.000143051,0.015386581,0,
00:09.3,0.004629135,0.000120163,0.015403748,0,
00:09.3,0.004640579,0.000120163,0.015415192,0,
00:09.3,0.004629135,0.000125885,0.015420914,0,
00:09.3,0.004646301,0.000125885,0.015449524,0,
00:09.3,0.004634857,0.000125885,0.015426636,0,
00:09.3,0.004634857,0.000120163,0.015420914,0,
00:09.3,0.004640579,0.000120163,0.015426636,0,
00:09.3,0.004623413,0.000131607,0.01543808,0,
00:09.3,0.004617691,0.000137329,0.015449524,0,
00:09.3,0.004634857,0.000131607,0.015472412,0,
00:09.3,0.004629135,0.000143051,0.015460968,0,
00:09.3,0.004640579,0.000131607,0.015449524,0,
00:09.3,0.004634857,0.000120163,0.015489578,0,
00:09.4,0.004629135,0.000137329,0.015489578,0,
00:09.4,0.004611969,0.000131607,0.015483856,0,
00:09.4,0.004646301,0.000131607,0.015472412,0,
00:09.4,0.004640579,0.000125885,0.015489578,0,
00:09.4,0.004617691,0.000131607,0.015478134,0,
00:09.4,0.004594803,0.000143051,0.015501022,0,
00:09.4,0.004640579,0.000143051,0.015501022,0,
00:09.4,0.004623413,0.000131607,0.015512466,0,
00:09.4,0.004623413,0.000131607,0.015512466,0,
00:09.4,0.004629135,0.000125885,0.0154953,0,
00:09.4,0.004623413,0.000125885,0.015489578,0,
00:09.4,0.004669189,0.000143051,0.015512466,0,
00:09.4,0.004634857,0.000148773,0.015535355,0,
00:09.4,0.004623413,0.000125885,0.015541077,0,
00:09.4,0.004623413,0.000108719,0.015552521,0,
00:09.4,0.004629135,0.000154495,0.015535355,0,
00:09.4,0.004623413,0.000154495,0.015523911,0,
00:09.4,0.004617691,0.000143051,0.015552521,0,
00:09.4,0.004634857,0.000137329,0.015558243,0,
00:09.4,0.004629135,0.000137329,0.015558243,0,
00:09.4,0.004629135,0.000131607,0.015558243,0,
00:09.4,0.004634857,0.000148773,0.015552521,0,
00:09.4,0.004623413,0.000143051,0.015563965,0,
00:09.4,0.004623413,0.000137329,0.015575409,0,
00:09.4,0.004629135,0.000137329,0.015586853,0,
00:09.5,0.004629135,0.000137329,0.015569687,0,
00:09.5,0.004617691,0.000148773,0.015586853,0,
00:09.5,0.004611969,0.000154495,0.015598297,0,
00:09.5,0.004611969,0.000154495,0.015598297,0,
00:09.5,0.004640579,0.000148773,0.015604019,0,
00:09.5,0.004623413,0.000143051,0.015615463,0,
00:09.5,0.004629135,0.000143051,0.015621185,0,
00:09.5,0.004617691,0.000148773,0.015615463,0,
00:09.5,0.004594803,0.000137329,0.015615463,0,
00:09.5,0.004589081,0.000154495,0.015632629,0,
00:09.5,0.004640579,0.000160217,0.015638351,0,
00:09.5,0.004640579,0.000165939,0.015632629,0,
00:09.5,0.004629135,0.000154495,0.015632629,0,
00:09.5,0.004623413,0.000148773,0.015638351,0,
00:09.5,0.004623413,0.000160217,0.015626907,0,
00:09.5,0.004646301,0.000160217,0.015644073,0,
00:09.5,0.004629135,0.000154495,0.015666962,0,
00:09.5,0.004589081,0.000148773,0.015649796,0,
00:09.5,0.004566193,0.000143051,0.015655518,0,
00:09.5,0.004646301,0.000148773,0.015672684,0,
00:09.5,0.004652023,0.000154495,0.015684128,0,
00:09.5,0.004634857,0.000148773,0.015666962,0,
00:09.5,0.004629135,0.000154495,0.01566124,0,
00:09.5,0.004634857,0.000160217,0.015684128,0,
00:09.5,0.004629135,0.000143051,0.01568985,0,
00:09.6,0.004600525,0.000148773,0.015701294,0,
00:09.6,0.004634857,0.000143051,0.015707016,0,
00:09.6,0.004634857,0.000154495,0.015701294,0,
00:09.6,0.004629135,0.000137329,0.015701294,0,
00:09.6,0.004617691,0.000143051,0.015712738,0,
00:09.6,0.004606247,0.000160217,0.015712738,0,
00:09.6,0.004634857,0.000143051,0.01571846,0,
00:09.6,0.004629135,0.000160217,0.015707016,0,
00:09.6,0.004600525,0.000171661,0.015707016,0,
00:09.6,0.004634857,0.000160217,0.015729904,0,
00:09.6,0.004634857,0.000165939,0.015735626,0,
00:09.6,0.004617691,0.000165939,0.015724182,0,
00:09.6,0.004629135,0.000171661,0.015741348,0,
00:09.6,0.004634857,0.000165939,0.01574707,0,
00:09.6,0.004623413,0.000143051,0.015741348,0,
00:09.6,0.004617691,0.000154495,0.015752792,0,
00:09.6,0.004623413,0.000154495,0.01574707,0,
00:09.6,0.004623413,0.000154495,0.01574707,0,
00:09.6,0.004623413,0.000154495,0.015764236,0,
00:09.6,0.004617691,0.000143051,0.015787125,0,
00:09.6,0.004617691,0.000165939,0.015775681,0,
00:09.6,0.004640579,0.00019455,0.015769958,0,
00:09.6,0.004606247,0.000183105,0.015764236,0,
00:09.6,0.004617691,0.000165939,0.015764236,0,
00:09.6,0.004606247,0.000165939,0.015764236,0,
00:09.7,0.004629135,0.000160217,0.015781403,0,
00:09.7,0.004623413,0.000160217,0.015792847,0,
00:09.7,0.004617691,0.000148773,0.015798569,0,
00:09.7,0.004617691,0.000165939,0.015804291,0,
00:09.7,0.004629135,0.000177383,0.015815735,0,
00:09.7,0.004623413,0.000177383,0.015810013,0,
00:09.7,0.004606247,0.000165939,0.015804291,0,
00:09.7,0.004583359,0.000171661,0.015815735,0,
00:09.7,0.004617691,0.000154495,0.015815735,0,
00:09.7,0.004640579,0.000148773,0.015815735,0,
00:09.7,0.004634857,0.000177383,0.015804291,0,
00:09.7,0.004577637,0.000177383,0.015827179,0,
00:09.7,0.004589081,0.000171661,0.015844345,0,
00:09.7,0.004646301,0.000160217,0.015844345,0,
00:09.7,0.004611969,0.000160217,0.015838623,0,
00:09.7,0.004594803,0.000171661,0.015838623,0,
00:09.7,0.004634857,0.000183105,0.015850067,0,
00:09.7,0.004629135,0.000171661,0.015855789,0,
00:09.7,0.004617691,0.000165939,0.015838623,0,
00:09.7,0.004629135,0.000177383,0.015861511,0,
00:09.7,0.004617691,0.000171661,0.015867233,0,
00:09.7,0.004606247,0.000165939,0.015878677,0,
00:09.7,0.004634857,0.000171661,0.015867233,0,
00:09.7,0.004623413,0.000165939,0.015884399,0,
00:09.7,0.004617691,0.000171661,0.015890121,0,
00:09.8,0.004600525,0.000165939,0.015878677,0,
00:09.8,0.004623413,0.000160217,0.015884399,0,
00:09.8,0.004629135,0.000171661,0.015895844,0,
00:09.8,0.004617691,0.000177383,0.015901566,0,
00:09.8,0.004623413,0.000183105,0.015890121,0,
00:09.8,0.004623413,0.000183105,0.015907288,0,
00:09.8,0.004617691,0.000183105,0.015907288,0,
00:09.8,0.004611969,0.000177383,0.015907288,0,
00:09.8,0.004611969,0.000177383,0.015901566,0,
00:09.8,0.004611969,0.000183105,0.015890121,0,
00:09.8,0.004617691,0.000183105,0.015953064,0,
00:09.8,0.004606247,0.000177383,0.01594162,0,
00:09.8,0.004611969,0.000171661,0.015930176,0,
00:09.8,0.004611969,0.000177383,0.015930176,0,
00:09.8,0.004526138,0.000177383,0.015924454,0,
00:09.8,0.004617691,0.000177383,0.01594162,0,
00:09.8,0.004657745,0.000188828,0.015947342,0,
00:09.8,0.004629135,0.000188828,0.015935898,0,
00:09.8,0.004629135,0.000177383,0.01594162,0,
00:09.8,0.004589081,0.000177383,0.01594162,0,
00:09.8,0.004629135,0.000177383,0.015935898,0,
00:09.8,0.004611969,0.000177383,0.015918732,0,
00:09.8,0.004600525,0.000188828,0.015964508,0,
00:09.8,0.004617691,0.000171661,0.01597023,0,
00:09.8,0.004617691,0.000165939,0.01597023,0,
00:09.9,0.004617691,0.000183105,0.015958786,0,
00:09.9,0.004617691,0.00019455,0.015981674,0,
00:09.9,0.004617691,0.000188828,0.01597023,0,
00:09.9,0.004611969,0.000183105,0.01597023,0,
00:09.9,0.004583359,0.000183105,0.016004562,0,
00:09.9,0.004600525,0.000188828,0.016004562,0,
00:09.9,0.004629135,0.000188828,0.015993118,0,
00:09.9,0.004617691,0.000188828,0.015987396,0,
00:09.9,0.004629135,0.000188828,0.016004562,0,
00:09.9,0.004600525,0.000183105,0.016021729,0,
00:09.9,0.004606247,0.000188828,0.016016006,0,
00:09.9,0.004606247,0.000188828,0.01599884,0,
00:09.9,0.004606247,0.000171661,0.016004562,0,
00:09.9,0.004617691,0.000177383,0.016016006,0,
00:09.9,0.004606247,0.000183105,0.016016006,0,
00:09.9,0.004611969,0.000188828,0.016010284,0,
00:09.9,0.004611969,0.00019455,0.016027451,0,
00:09.9,0.004566193,0.00019455,0.016033173,0,
00:09.9,0.004617691,0.000183105,0.016021729,0,
00:09.9,0.004623413,0.000200272,0.016027451,0,
00:09.9,0.004617691,0.000205994,0.016038895,0,
00:09.9,0.004617691,0.00019455,0.016050339,0,
00:09.9,0.004583359,0.000188828,0.016061783,0,
00:09.9,0.004589081,0.000188828,0.016050339,0,
00:09.9,0.004606247,0.000183105,0.016033173,0,
00:10.0,0.004640579,0.000188828,0.016061783,0,
00:10.0,0.004634857,0.000211716,0.016067505,0,
00:10.0,0.004623413,0.000211716,0.016044617,0,
00:10.0,0.004611969,0.000200272,0.016067505,0,
00:10.0,0.004600525,0.000177383,0.016078949,0,
00:10.0,0.004606247,0.000183105,0.016073227,0,
00:10.0,0.004617691,0.000200272,0.016073227,0,
00:10.0,0.004617691,0.000200272,0.016073227,0,
00:10.0,0.004617691,0.00019455,0.016073227,0,
00:10.0,0.004611969,0.000200272,0.016090393,0,
00:10.0,0.004600525,0.00019455,0.016101837,0,
00:10.0,0.004594803,0.000200272,0.016090393,0,
00:00:10,0.004617691,0.000205994,0.016090393,0,
00:10.0,0.004611969,0.000188828,0.016090393,0,
00:10.0,0.004611969,0.000188828,0.016101837,0,
00:10.0,0.004606247,0.000200272,0.016101837,0,
00:10.0,0.004600525,0.000211716,0.016101837,0,
00:10.0,0.004594803,0.000217438,0.016101837,0,
00:10.0,0.004634857,0.00019455,0.016090393,0,
00:10.0,0.004623413,0.000200272,0.016107559,0,
00:10.0,0.004571915,0.000217438,0.016119003,0,
00:10.0,0.004577637,0.000211716,0.016124725,0,
00:10.0,0.004623413,0.000205994,0.016101837,0,
00:10.0,0.004583359,0.000200272,0.016107559,0,
00:10.0,0.004606247,0.000205994,0.016141891,0,
00:10.1,0.004629135,0.000205994,0.016130447,0,
00:10.1,0.004611969,0.000200272,0.016124725,0,
00:10.1,0.004606247,0.000200272,0.016141891,0,
00:10.1,0.004611969,0.000211716,0.016141891,0,
00:10.1,0.004617691,0.000234604,0.016136169,0,
00:10.1,0.004606247,0.00022316,0.016130447,0,
00:10.1,0.004606247,0.00022316,0.016141891,0,
00:10.1,0.004606247,0.00022316,0.016136169,0,
00:10.1,0.004606247,0.000211716,0.016130447,0,
00:10.1,0.004583359,0.000200272,0.016170502,0,
00:10.1,0.004606247,0.000217438,0.016170502,0,
00:10.1,0.004617691,0.00022316,0.01616478,0,
00:10.1,0.004606247,0.000211716,0.01616478,0,
00:10.1,0.004617691,0.000217438,0.016159058,0,
00:10.1,0.004611969,0.00022316,0.016153336,0,
00:10.1,0.004606247,0.000217438,0.016176224,0,
00:10.1,0.004594803,0.000217438,0.016176224,0,
00:10.1,0.004589081,0.000217438,0.016170502,0,
00:10.1,0.004566193,0.000211716,0.016176224,0,
00:10.1,0.004611969,0.000211716,0.016147614,0,
00:10.1,0.004623413,0.000217438,0.01619339,0,
00:10.1,0.004600525,0.000211716,0.016187668,0,
00:10.1,0.004606247,0.000205994,0.016170502,0,
00:10.1,0.004611969,0.000234604,0.016204834,0,
00:10.1,0.004611969,0.000234604,0.016204834,0,
00:10.2,0.004623413,0.000240326,0.016199112,0,
00:10.2,0.004583359,0.000228882,0.01619339,0,
00:10.2,0.004589081,0.000228882,0.016199112,0,
00:10.2,0.004594803,0.00022316,0.016210556,0,
00:10.2,0.004623413,0.000228882,0.016227722,0,
00:10.2,0.004600525,0.000217438,0.016227722,0,
00:10.2,0.004606247,0.000234604,0.016210556,0,
00:10.2,0.004611969,0.00022316,0.016222,0,
00:10.2,0.004611969,0.00022316,0.016199112,0,
00:10.2,0.004611969,0.000228882,0.016210556,0,
00:10.2,0.004617691,0.00022316,0.016244888,0,
00:10.2,0.004600525,0.000228882,0.016239166,0,
00:10.2,0.004589081,0.000234604,0.016244888,0,
00:10.2,0.004611969,0.000240326,0.016244888,0,
00:10.2,0.004611969,0.000228882,0.016233444,0,
00:10.2,0.004606247,0.000228882,0.016244888,0,
00:10.2,0.004600525,0.000228882,0.016262054,0,
00:10.2,0.004594803,0.000228882,0.01625061,0,
00:10.2,0.004589081,0.000228882,0.016244888,0,
00:10.2,0.004606247,0.000211716,0.016244888,0,
00:10.2,0.004606247,0.000234604,0.016256332,0,
00:10.2,0.004611969,0.000240326,0.016267776,0,
00:10.2,0.004606247,0.000234604,0.016267776,0,
00:10.2,0.004623413,0.000234604,0.016256332,0,
00:10.2,0.004617691,0.000246048,0.01625061,0,
00:10.3,0.004606247,0.000246048,0.016256332,0,
00:10.3,0.004600525,0.000234604,0.016279221,0,
00:10.3,0.004600525,0.000228882,0.016279221,0,
00:10.3,0.004600525,0.000217438,0.016279221,0,
00:10.3,0.004594803,0.000217438,0.016290665,0,
00:10.3,0.004611969,0.00022316,0.016290665,0,
00:10.3,0.004600525,0.00025177,0.016267776,0,
00:10.3,0.004611969,0.000246048,0.016262054,0,
00:10.3,0.004611969,0.000234604,0.016284943,0,
00:10.3,0.004617691,0.000240326,0.016307831,0,
