Elapsed_Time,EMG1,EMG2,EMG3,BioRadio Event,Unnamed: 5
00:00:00,0.003925323,0.000452042,0.013057709,0,
00:00.0,0.004011154,0.00047493,0.013114929,0,
00:00.0,0.004011154,0.000463486,0.013114929,0,
00:00.0,0.00399971,0.000457764,0.013097763,0,
00:00.0,0.003982544,0.000457764,0.013137817,0,
00:00.0,0.003988266,0.000463486,0.013114929,0,
00:00.0,0.003976822,0.000457764,0.013103485,0,
00:00.0,0.003976822,0.000463486,0.013132095,0,
00:00.0,0.003965378,0.000457764,0.013126373,0,
00:00.0,0.003965378,0.000463486,0.013114929,0,
00:00.0,0.003959656,0.000480652,0.013120651,0,
00:00.0,0.003959656,0.000463486,0.013109207,0,
00:00.0,0.003982544,0.00047493,0.013126373,0,
00:00.1,0.003988266,0.000452042,0.013154984,0,
00:00.1,0.003993988,0.000463486,0.013160706,0,
00:00.1,0.00399971,0.000457764,0.013132095,0,
00:00.1,0.004005432,0.000463486,0.013137817,0,
00:00.1,0.003931046,0.00044632,0.013149261,0,
00:00.1,0.003936768,0.000457764,0.013143539,0,
00:00.1,0.004005432,0.000469208,0.013149261,0,
00:00.1,0.003993988,0.000463486,0.013177872,0,
00:00.1,0.003976822,0.000457764,0.01317215,0,
00:00.1,0.003976822,0.000457764,0.013166428,0,
00:00.1,0.003982544,0.00047493,0.01317215,0,
00:00.1,0.003976822,0.00047493,0.013160706,0,
00:00.1,0.003976822,0.000469208,0.013166428,0,
00:00.1,0.003965378,0.000469208,0.013149261,0,
00:00.1,0.003931046,0.000452042,0.013166428,0,
00:00.1,0.0039711,0.000469208,0.01317215,0,
00:00.1,0.003965378,0.000452042,0.013189316,0,
00:00.1,0.003976822,0.000469208,0.013206482,0,
00:00.1,0.00399971,0.000469208,0.013212204,0,
00:00.1,0.003982544,0.000463486,0.013189316,0,
00:00.1,0.0039711,0.000457764,0.013183594,0,
00:00.1,0.004005432,0.00047493,0.01317215,0,
00:00.1,0.0039711,0.00047493,0.01317215,0,
00:00.1,0.003948212,0.000480652,0.013217926,0,
00:00.1,0.003953934,0.00044632,0.013223648,0,
00:00.2,0.004005432,0.000469208,0.01320076,0,
00:00.2,0.003982544,0.00044632,0.013206482,0,
00:00.2,0.0039711,0.000457764,0.01320076,0,
00:00.2,0.003976822,0.00047493,0.013223648,0,
00:00.2,0.0039711,0.000469208,0.013223648,0,
00:00.2,0.003959656,0.000469208,0.01322937,0,
00:00.2,0.003959656,0.000469208,0.01322937,0,
00:00.2,0.003931046,0.000463486,0.013217926,0,
00:00.2,0.0039711,0.000469208,0.013240814,0,
00:00.2,0.004005432,0.000469208,0.013235092,0,
00:00.2,0.00399971,0.000457764,0.013240814,0,
00:00.2,0.003976822,0.00044632,0.013240814,0,
00:00.2,0.003931046,0.000457764,0.013235092,0,
00:00.2,0.004005432,0.00047493,0.013240814,0,
00:00.2,0.00399971,0.000480652,0.013240814,0,
00:00.2,0.003982544,0.000492096,0.013223648,0,
00:00.2,0.003976822,0.000480652,0.013246536,0,
00:00.2,0.003982544,0.00044632,0.013269424,0,
00:00.2,0.003959656,0.000463486,0.013269424,0,
00:00.2,0.003976822,0.000480652,0.01325798,0,
00:00.2,0.003982544,0.000463486,0.013280869,0,
00:00.2,0.0039711,0.000457764,0.013292313,0,
00:00.2,0.003965378,0.000469208,0.013275146,0,
00:00.2,0.003965378,0.00047493,0.013269424,0,
00:00.2,0.003993988,0.000469208,0.013303757,0,
00:00.3,0.003988266,0.00047493,0.013292313,0,
00:00.3,0.003953934,0.00047493,0.013280869,0,
00:00.3,0.00394249,0.000463486,0.013292313,0,
00:00.3,0.003976822,0.000457764,0.013292313,0,
00:00.3,0.0039711,0.000469208,0.013298035,0,
00:00.3,0.003919601,0.00044632,0.013303757,0,
00:00.3,0.003908157,0.000440598,0.013309479,0,
00:00.3,0.004011154,0.000469208,0.013292313,0,
00:00.3,0.004016876,0.00047493,0.013280869,0,
00:00.3,0.003982544,0.000457764,0.013298035,0,
00:00.3,0.003988266,0.000463486,0.013315201,0,
00:00.3,0.003993988,0.00047493,0.013309479,0,
00:00.3,0.003993988,0.000480652,0.013315201,0,
00:00.3,0.003988266,0.000486374,0.013315201,0,
00:00.3,0.003988266,0.00047493,0.013309479,0,
00:00.3,0.0039711,0.00044632,0.013326645,0,
00:00.3,0.003965378,0.000469208,0.013343811,0,
00:00.3,0.003982544,0.000480652,0.013343811,0,
00:00.3,0.003993988,0.000486374,0.013349533,0,
00:00.3,0.003976822,0.000463486,0.013332367,0,
00:00.3,0.003982544,0.000469208,0.013343811,0,
00:00.3,0.003965378,0.000457764,0.013343811,0,
00:00.3,0.003976822,0.000486374,0.013349533,0,
00:00.3,0.003988266,0.000480652,0.013349533,0,
00:00.3,0.003982544,0.000480652,0.013349533,0,
00:00.4,0.003953934,0.000457764,0.013343811,0,
00:00.4,0.00394249,0.000463486,0.013349533,0,
00:00.4,0.00394249,0.000469208,0.013320923,0,
00:00.4,0.003936768,0.000457764,0.013378143,0,
00:00.4,0.003988266,0.000440598,0.013372421,0,
00:00.4,0.0039711,0.00044632,0.013372421,0,
00:00.4,0.003993988,0.000463486,0.013372421,0,
00:00.4,0.003982544,0.000492096,0.013366699,0,
00:00.4,0.003976822,0.000486374,0.013349533,0,
00:00.4,0.003982544,0.000486374,0.013366699,0,
00:00.4,0.004011154,0.000486374,0.013360977,0,
00:00.4,0.00399971,0.00047493,0.013349533,0,
00:00.4,0.0039711,0.000463486,0.013412476,0,
00:00.4,0.003982544,0.000480652,0.013406754,0,
00:00.4,0.003965378,0.000457764,0.013412476,0,
00:00.4,0.003959656,0.000463486,0.013401031,0,
00:00.4,0.00399971,0.000457764,0.013389587,0,
00:00.4,0.003982544,0.00047493,0.013429642,0,
00:00.4,0.003988266,0.000492096,0.013406754,0,
00:00.4,0.003959656,0.00047493,0.013406754,0,
00:00.4,0.003959656,0.00044632,0.013395309,0,
00:00.4,0.003976822,0.000457764,0.013406754,0,
00:00.4,0.003988266,0.00047493,0.013412476,0,
00:00.4,0.003948212,0.000480652,0.013418198,0,
00:00.4,0.004005432,0.00047493,0.01342392,0,
00:00.5,0.003988266,0.00047493,0.01342392,0,
00:00.5,0.003959656,0.000463486,0.013429642,0,
00:00.5,0.00399971,0.00047493,0.013435364,0,
00:00.5,0.003976822,0.000469208,0.01342392,0,
00:00.5,0.0039711,0.00047493,0.013418198,0,
00:00.5,0.0039711,0.000457764,0.013418198,0,
00:00.5,0.003993988,0.000463486,0.013446808,0,
00:00.5,0.003976822,0.00047493,0.013446808,0,
00:00.5,0.003988266,0.000486374,0.013441086,0,
00:00.5,0.00399971,0.000469208,0.013469696,0,
00:00.5,0.0039711,0.000463486,0.01345253,0,
00:00.5,0.003959656,0.000463486,0.013435364,0,
00:00.5,0.003982544,0.000463486,0.013463974,0,
00:00.5,0.0039711,0.000463486,0.013463974,0,
00:00.5,0.0039711,0.000492096,0.01345253,0,
00:00.5,0.003976822,0.000486374,0.013463974,0,
00:00.5,0.003993988,0.000463486,0.013458252,0,
00:00.5,0.003959656,0.00044632,0.01345253,0,
00:00.5,0.003959656,0.000463486,0.013475418,0,
00:00.5,0.003965378,0.000492096,0.01345253,0,
00:00.5,0.00399971,0.000497818,0.013492584,0,
00:00.5,0.003959656,0.000457764,0.013463974,0,
00:00.5,0.0039711,0.000434875,0.013492584,0,
00:00.5,0.003965378,0.000457764,0.013504028,0,
00:00.5,0.003982544,0.000480652,0.01348114,0,
00:00.6,0.003988266,0.000480652,0.013486862,0,
00:00.6,0.003965378,0.000469208,0.013498306,0,
00:00.6,0.003965378,0.000463486,0.013492584,0,
00:00.6,0.003925323,0.000463486,0.013498306,0,
00:00.6,0.003988266,0.000480652,0.013498306,0,
00:00.6,0.0039711,0.000486374,0.01348114,0,
00:00.6,0.003931046,0.00047493,0.01348114,0,
00:00.6,0.004005432,0.000480652,0.013475418,0,
00:00.6,0.003976822,0.000452042,0.013504028,0,
00:00.6,0.003931046,0.00047493,0.013492584,0,
00:00.6,0.0039711,0.000492096,0.013521194,0,
00:00.6,0.004005432,0.000492096,0.013526917,0,
00:00.6,0.003976822,0.000440598,0.013515472,0,
00:00.6,0.003982544,0.000457764,0.013521194,0,
00:00.6,0.0039711,0.000480652,0.013515472,0,
00:00.6,0.003965378,0.000492096,0.013532639,0,
00:00.6,0.003936768,0.000486374,0.013561249,0,
00:00.6,0.003948212,0.00044632,0.013532639,0,
00:00.6,0.003982544,0.000452042,0.013532639,0,
00:00.6,0.003988266,0.000492096,0.013538361,0,
00:00.6,0.003965378,0.00047493,0.013538361,0,
00:00.6,0.003965378,0.000469208,0.013532639,0,
00:00.6,0.003982544,0.000452042,0.013526917,0,
00:00.6,0.0039711,0.000457764,0.013549805,0,
00:00.6,0.003959656,0.000480652,0.013561249,0,
00:00.7,0.003948212,0.00047493,0.013544083,0,
00:00.7,0.003965378,0.000469208,0.013544083,0,
00:00.7,0.003948212,0.00047493,0.013532639,0,
00:00.7,0.00394249,0.000509262,0.013532639,0,
00:00.7,0.003965378,0.000492096,0.013538361,0,
00:00.7,0.0039711,0.000457764,0.013584137,0,
00:00.7,0.003953934,0.000457764,0.013595581,0,
00:00.7,0.003976822,0.00047493,0.013555527,0,
00:00.7,0.003982544,0.000469208,0.013578415,0,
00:00.7,0.004016876,0.000480652,0.013572693,0,
00:00.7,0.003988266,0.000492096,0.013526917,0,
00:00.7,0.003965378,0.000457764,0.013555527,0,
00:00.7,0.0039711,0.000452042,0.013612747,0,
00:00.7,0.0039711,0.000480652,0.013618469,0,
00:00.7,0.003953934,0.000469208,0.013618469,0,
00:00.7,0.003976822,0.00047493,0.013595581,0,
00:00.7,0.0039711,0.000469208,0.013584137,0,
00:00.7,0.0039711,0.000463486,0.013584137,0,
00:00.7,0.003993988,0.000492096,0.013589859,0,
00:00.7,0.003953934,0.000486374,0.013601303,0,
00:00.7,0.003925323,0.000463486,0.013589859,0,
00:00.7,0.003965378,0.000486374,0.013578415,0,
00:00.7,0.003976822,0.000469208,0.013618469,0,
00:00.7,0.003953934,0.00047493,0.013601303,0,
00:00.7,0.003948212,0.000486374,0.013566971,0,
00:00.8,0.003965378,0.000469208,0.013652802,0,
00:00.8,0.003965378,0.000452042,0.013635635,0,
00:00.8,0.003988266,0.000457764,0.013601303,0,
00:00.8,0.003993988,0.000486374,0.013612747,0,
00:00.8,0.003988266,0.000492096,0.013612747,0,
00:00.8,0.0039711,0.000452042,0.013641357,0,
00:00.8,0.003988266,0.000480652,0.013647079,0,
00:00.8,0.00399971,0.00050354,0.013629913,0,
00:00.8,0.003976822,0.000469208,0.013595581,0,
00:00.8,0.0039711,0.000457764,0.013624191,0,
00:00.8,0.003959656,0.000497818,0.013681412,0,
00:00.8,0.003959656,0.00047493,0.013669968,0,
00:00.8,0.003953934,0.000486374,0.013652802,0,
00:00.8,0.004034042,0.000480652,0.013641357,0,
00:00.8,0.003988266,0.000452042,0.013641357,0,
00:00.8,0.003959656,0.00047493,0.013669968,0,
00:00.8,0.003953934,0.000480652,0.01367569,0,
00:00.8,0.003965378,0.000469208,0.01367569,0,
00:00.8,0.003965378,0.000480652,0.013641357,0,
00:00.8,0.003976822,0.00047493,0.013652802,0,
00:00.8,0.003965378,0.000463486,0.013658524,0,
00:00.8,0.004005432,0.000480652,0.01367569,0,
00:00.8,0.003948212,0.000469208,0.013664246,0,
00:00.8,0.003936768,0.000469208,0.013698578,0,
00:00.8,0.00399971,0.000486374,0.01367569,0,
00:00.9,0.004005432,0.00047493,0.013681412,0,
00:00.9,0.003988266,0.00047493,0.013715744,0,
00:00.9,0.003965378,0.000463486,0.013698578,0,
00:00.9,0.003993988,0.00047493,0.01367569,0,
00:00.9,0.003993988,0.000469208,0.013692856,0,
00:00.9,0.003988266,0.00047493,0.013698578,0,
00:00.9,0.003982544,0.000480652,0.013721466,0,
00:00.9,0.003982544,0.000463486,0.013698578,0,
00:00.9,0.003982544,0.000463486,0.013692856,0,
00:00.9,0.003965378,0.00047493,0.013710022,0,
00:00.9,0.003993988,0.000486374,0.013710022,0,
00:00.9,0.003982544,0.000463486,0.013692856,0,
00:00.9,0.003982544,0.000469208,0.013710022,0,
00:00.9,0.003976822,0.00047493,0.013698578,0,
00:00.9,0.003976822,0.000469208,0.013715744,0,
00:00.9,0.003982544,0.000469208,0.013692856,0,
00:00.9,0.003988266,0.000486374,0.013721466,0,
00:00.9,0.00399971,0.000486374,0.01373291,0,
00:00.9,0.003982544,0.000492096,0.013738632,0,
00:00.9,0.003988266,0.000486374,0.01373291,0,
00:00.9,0.003948212,0.000457764,0.01373291,0,
00:00.9,0.003936768,0.00047493,0.013715744,0,
00:00.9,0.004016876,0.00047493,0.013738632,0,
00:00.9,0.003988266,0.000469208,0.013772964,0,
00:00.9,0.003959656,0.000480652,0.01376152,0,
00:01.0,0.004005432,0.000486374,0.013727188,0,
00:01.0,0.003993988,0.000457764,0.01373291,0,
00:01.0,0.004034042,0.000469208,0.013750076,0,
00:01.0,0.003982544,0.00047493,0.013738632,0,
00:01.0,0.003953934,0.000486374,0.013750076,0,
00:01.0,0.004016876,0.000492096,0.013744354,0,
00:01.0,0.004005432,0.00047493,0.013767242,0,
00:01.0,0.004011154,0.000469208,0.01376152,0,
00:01.0,0.00399971,0.000469208,0.013767242,0,
00:01.0,0.003982544,0.000497818,0.013767242,0,
00:01.0,0.004005432,0.00047493,0.013755798,0,
00:01.0,0.004005432,0.00047493,0.013784409,0,
00:00:01,0.003982544,0.000486374,0.013795853,0,
00:01.0,0.003993988,0.00047493,0.013772964,0,
00:01.0,0.003993988,0.000457764,0.013772964,0,
00:01.0,0.003982544,0.000463486,0.013772964,0,
00:01.0,0.004011154,0.000463486,0.013813019,0,
00:01.0,0.004005432,0.000480652,0.013784409,0,
00:01.0,0.004016876,0.000486374,0.013772964,0,
00:01.0,0.004011154,0.00047493,0.013790131,0,
00:01.0,0.004005432,0.00047493,0.013807297,0,
00:01.0,0.003953934,0.000480652,0.013790131,0,
00:01.0,0.004011154,0.000480652,0.013818741,0,
00:01.0,0.003988266,0.00047493,0.013835907,0,
00:01.0,0.004005432,0.000469208,0.013813019,0,
00:01.1,0.004022598,0.000492096,0.013801575,0,
00:01.1,0.00399971,0.000486374,0.013813019,0,
00:01.1,0.004034042,0.00047493,0.013801575,0,
00:01.1,0.004016876,0.00047493,0.013807297,0,
00:01.1,0.004016876,0.000469208,0.013813019,0,
00:01.1,0.00402832,0.00047493,0.013813019,0,
00:01.1,0.004011154,0.00047493,0.013824463,0,
00:01.1,0.003965378,0.000463486,0.013824463,0,
00:01.1,0.00399971,0.000457764,0.013858795,0,
00:01.1,0.004011154,0.000463486,0.013835907,0,
00:01.1,0.00394249,0.00047493,0.013830185,0,
00:01.1,0.003993988,0.000486374,0.013813019,0,
00:01.1,0.004056931,0.00047493,0.013818741,0,
00:01.1,0.004068375,0.000492096,0.013835907,0,
00:01.1,0.004039764,0.00050354,0.013841629,0,
00:01.1,0.00402832,0.00047493,0.013853073,0,
00:01.1,0.004016876,0.000486374,0.013858795,0,
00:01.1,0.004016876,0.00047493,0.013853073,0,
00:01.1,0.004022598,0.000463486,0.013858795,0,
00:01.1,0.004016876,0.000469208,0.013830185,0,
00:01.1,0.004011154,0.000463486,0.013841629,0,
00:01.1,0.004016876,0.000469208,0.013835907,0,
00:01.1,0.004039764,0.000480652,0.013858795,0,
00:01.1,0.00402832,0.00047493,0.013853073,0,
00:01.1,0.003993988,0.000480652,0.013870239,0,
00:01.2,0.003993988,0.00047493,0.013893127,0,
00:01.2,0.004005432,0.000492096,0.013864517,0,
00:01.2,0.004074097,0.000486374,0.013870239,0,
00:01.2,0.004039764,0.000480652,0.013864517,0,
00:01.2,0.004011154,0.00044632,0.013875961,0,
00:01.2,0.003993988,0.00047493,0.013875961,0,
00:01.2,0.004034042,0.00047493,0.013864517,0,
00:01.2,0.004022598,0.000486374,0.013875961,0,
00:01.2,0.004034042,0.000486374,0.013864517,0,
00:01.2,0.004051208,0.000480652,0.013870239,0,
00:01.2,0.004016876,0.000469208,0.013870239,0,
00:01.2,0.004045486,0.000463486,0.013870239,0,
00:01.2,0.004039764,0.000497818,0.013858795,0,
00:01.2,0.004034042,0.000486374,0.013898849,0,
00:01.2,0.004056931,0.00047493,0.013904572,0,
00:01.2,0.004051208,0.000469208,0.013893127,0,
00:01.2,0.00402832,0.000497818,0.013881683,0,
00:01.2,0.004022598,0.000492096,0.013887405,0,
00:01.2,0.004039764,0.00047493,0.013881683,0,
00:01.2,0.004034042,0.000469208,0.013916016,0,
00:01.2,0.004056931,0.00047493,0.013904572,0,
00:01.2,0.004045486,0.000457764,0.013893127,0,
00:01.2,0.004039764,0.00047493,0.013904572,0,
00:01.2,0.004056931,0.000492096,0.013875961,0,
00:01.2,0.004068375,0.000452042,0.013881683,0,
00:01.3,0.004051208,0.000480652,0.013904572,0,
00:01.3,0.003988266,0.000480652,0.013916016,0,
00:01.3,0.004039764,0.00047493,0.013944626,0,
00:01.3,0.004051208,0.000497818,0.013893127,0,
00:01.3,0.004068375,0.000486374,0.013881683,0,
00:01.3,0.004034042,0.000469208,0.013933182,0,
00:01.3,0.004068375,0.000492096,0.013910294,0,
00:01.3,0.004096985,0.000497818,0.013887405,0,
00:01.3,0.004074097,0.000486374,0.013898849,0,
00:01.3,0.004068375,0.000480652,0.013910294,0,
00:01.3,0.004062653,0.000457764,0.013921738,0,
00:01.3,0.004062653,0.000463486,0.013904572,0,
00:01.3,0.004056931,0.000492096,0.013898849,0,
00:01.3,0.004068375,0.000497818,0.013904572,0,
00:01.3,0.004068375,0.000480652,0.013904572,0,
00:01.3,0.004079819,0.000492096,0.013893127,0,
00:01.3,0.004074097,0.000486374,0.013904572,0,
00:01.3,0.004062653,0.000457764,0.013910294,0,
00:01.3,0.004068375,0.00047493,0.013904572,0,
00:01.3,0.004062653,0.000480652,0.013916016,0,
00:01.3,0.004056931,0.000486374,0.01392746,0,
00:01.3,0.004056931,0.000480652,0.013893127,0,
00:01.3,0.004068375,0.000497818,0.013881683,0,
00:01.3,0.004051208,0.000480652,0.01392746,0,
00:01.3,0.004068375,0.000480652,0.013921738,0,
00:01.4,0.004085541,0.00047493,0.013904572,0,
00:01.4,0.004091263,0.000469208,0.013898849,0,
00:01.4,0.004096985,0.000480652,0.013910294,0,
00:01.4,0.004096985,0.000486374,0.013898849,0,
00:01.4,0.004096985,0.000497818,0.013904572,0,
00:01.4,0.004051208,0.00047493,0.013944626,0,
00:01.4,0.004108429,0.000486374,0.013904572,0,
00:01.4,0.004102707,0.000469208,0.013910294,0,
00:01.4,0.004079819,0.000469208,0.013916016,0,
00:01.4,0.004062653,0.000492096,0.013910294,0,
00:01.4,0.004039764,0.000497818,0.013921738,0,
00:01.4,0.004085541,0.000480652,0.013904572,0,
00:01.4,0.004142761,0.000469208,0.013887405,0,
00:01.4,0.004102707,0.000492096,0.013910294,0,
00:01.4,0.004102707,0.000469208,0.013887405,0,
00:01.4,0.004102707,0.000469208,0.013921738,0,
00:01.4,0.004096985,0.000463486,0.013921738,0,
00:01.4,0.004108429,0.00047493,0.013898849,0,
00:01.4,0.004108429,0.000497818,0.013898849,0,
00:01.4,0.004085541,0.000492096,0.013921738,0,
00:01.4,0.004096985,0.000492096,0.013904572,0,
00:01.4,0.004119873,0.000497818,0.013881683,0,
00:01.4,0.004108429,0.00047493,0.013887405,0,
00:01.4,0.004114151,0.000480652,0.013916016,0,
00:01.4,0.004091263,0.000486374,0.013893127,0,
00:01.5,0.004108429,0.00047493,0.013893127,0,
00:01.5,0.004074097,0.000469208,0.013898849,0,
00:01.5,0.004051208,0.000457764,0.013916016,0,
00:01.5,0.004108429,0.000469208,0.013893127,0,
00:01.5,0.004114151,0.000492096,0.013881683,0,
00:01.5,0.004108429,0.000492096,0.013904572,0,
00:01.5,0.004091263,0.000492096,0.013893127,0,
00:01.5,0.00419426,0.000497818,0.013864517,0,
00:01.5,0.004165649,0.000486374,0.013864517,0,
00:01.5,0.004137039,0.000463486,0.013898849,0,
00:01.5,0.004137039,0.000486374,0.013916016,0,
00:01.5,0.004131317,0.000486374,0.013904572,0,
00:01.5,0.004137039,0.000480652,0.013881683,0,
00:01.5,0.004137039,0.00047493,0.013881683,0,
00:01.5,0.004131317,0.000486374,0.013875961,0,
00:01.5,0.004131317,0.000492096,0.013875961,0,
00:01.5,0.004148483,0.000492096,0.013881683,0,
00:01.5,0.004142761,0.000492096,0.013875961,0,
00:01.5,0.004085541,0.000486374,0.013887405,0,
00:01.5,0.004085541,0.00047493,0.013881683,0,
00:01.5,0.004131317,0.00047493,0.013893127,0,
00:01.5,0.004142761,0.000486374,0.013870239,0,
00:01.5,0.004074097,0.000469208,0.013875961,0,
00:01.5,0.004119873,0.000469208,0.013875961,0,
00:01.5,0.004171371,0.000497818,0.013853073,0,
00:01.6,0.004199982,0.000497818,0.013835907,0,
00:01.6,0.004177094,0.000497818,0.013881683,0,
00:01.6,0.004171371,0.000486374,0.013893127,0,
00:01.6,0.004159927,0.000469208,0.013881683,0,
00:01.6,0.004148483,0.000463486,0.013870239,0,
00:01.6,0.004137039,0.000486374,0.013847351,0,
00:01.6,0.004137039,0.00050354,0.013864517,0,
00:01.6,0.004177094,0.000492096,0.013847351,0,
00:01.6,0.004177094,0.000480652,0.013853073,0,
00:01.6,0.004165649,0.000480652,0.013870239,0,
00:01.6,0.004182816,0.000480652,0.013858795,0,
00:01.6,0.004171371,0.000486374,0.013875961,0,
00:01.6,0.004177094,0.00050354,0.013841629,0,
00:01.6,0.004165649,0.000463486,0.013858795,0,
00:01.6,0.004159927,0.000469208,0.013875961,0,
00:01.6,0.004154205,0.000486374,0.013864517,0,
00:01.6,0.004177094,0.000497818,0.013864517,0,
00:01.6,0.004182816,0.000509262,0.013830185,0,
00:01.6,0.004142761,0.000480652,0.013824463,0,
00:01.6,0.004165649,0.000497818,0.013835907,0,
00:01.6,0.004177094,0.000480652,0.013795853,0,
00:01.6,0.004177094,0.000480652,0.013818741,0,
00:01.6,0.004240036,0.000492096,0.013807297,0,
00:01.6,0.004188538,0.000486374,0.013853073,0,
00:01.6,0.004171371,0.000480652,0.013835907,0,
00:01.7,0.004205704,0.000480652,0.013813019,0,
00:01.7,0.00419426,0.000480652,0.013807297,0,
00:01.7,0.004182816,0.000492096,0.013813019,0,
00:01.7,0.004211426,0.000480652,0.013784409,0,
00:01.7,0.004199982,0.000480652,0.013790131,0,
00:01.7,0.004228592,0.00050354,0.013784409,0,
00:01.7,0.004217148,0.000497818,0.013772964,0,
00:01.7,0.004205704,0.00047493,0.013801575,0,
00:01.7,0.004182816,0.00047493,0.013807297,0,
00:01.7,0.004199982,0.000457764,0.013795853,0,
00:01.7,0.004205704,0.000480652,0.013790131,0,
00:01.7,0.004205704,0.00047493,0.013784409,0,
00:01.7,0.004234314,0.000492096,0.013755798,0,
00:01.7,0.00425148,0.00050354,0.013738632,0,
00:01.7,0.004245758,0.000509262,0.013755798,0,
00:01.7,0.004240036,0.000492096,0.013784409,0,
00:01.7,0.004234314,0.000486374,0.013778687,0,
00:01.7,0.004234314,0.000486374,0.013750076,0,
00:01.7,0.004245758,0.000509262,0.013767242,0,
00:01.7,0.00422287,0.000480652,0.01373291,0,
00:01.7,0.004234314,0.00050354,0.013750076,0,
00:01.7,0.004257202,0.000486374,0.013727188,0,
00:01.7,0.004199982,0.000457764,0.013744354,0,
00:01.7,0.004217148,0.000457764,0.013755798,0,
00:01.7,0.004262924,0.000486374,0.013727188,0,
00:01.8,0.004234314,0.000497818,0.013721466,0,
00:01.8,0.004262924,0.000509262,0.013669968,0,
00:01.8,0.004234314,0.000486374,0.013692856,0,
00:01.8,0.00422287,0.000486374,0.013710022,0,
00:01.8,0.004274368,0.000492096,0.013687134,0,
00:01.8,0.00422287,0.000480652,0.013698578,0,
00:01.8,0.00425148,0.00050354,0.013692856,0,
00:01.8,0.00425148,0.00047493,0.013687134,0,
00:01.8,0.004268646,0.000486374,0.01367569,0,
00:01.8,0.004308701,0.000492096,0.013669968,0,
00:01.8,0.004285812,0.000497818,0.013669968,0,
00:01.8,0.00428009,0.000492096,0.013681412,0,
00:01.8,0.004262924,0.000469208,0.013669968,0,
00:01.8,0.004262924,0.000486374,0.013664246,0,
00:01.8,0.004291534,0.00050354,0.01367569,0,
00:01.8,0.00425148,0.000492096,0.013647079,0,
00:01.8,0.004262924,0.000480652,0.013624191,0,
00:01.8,0.004297256,0.000486374,0.013669968,0,
00:01.8,0.004285812,0.000497818,0.013647079,0,
00:01.8,0.004274368,0.000480652,0.013612747,0,
00:01.8,0.00428009,0.000492096,0.013629913,0,
00:01.8,0.004302979,0.000486374,0.013629913,0,
00:01.8,0.004268646,0.00047493,0.013618469,0,
00:01.8,0.004228592,0.000492096,0.013618469,0,
00:01.8,0.004302979,0.000509262,0.013601303,0,
00:01.9,0.004302979,0.00050354,0.013607025,0,
00:01.9,0.004302979,0.000486374,0.013624191,0,
00:01.9,0.004308701,0.000480652,0.013595581,0,
00:01.9,0.004291534,0.000486374,0.013595581,0,
00:01.9,0.004308701,0.000497818,0.013589859,0,
00:01.9,0.004297256,0.000492096,0.013589859,0,
00:01.9,0.004314423,0.000492096,0.013538361,0,
00:01.9,0.004320145,0.000509262,0.013549805,0,
00:01.9,0.004314423,0.000492096,0.013561249,0,
00:01.9,0.004302979,0.00047493,0.013566971,0,
00:01.9,0.004308701,0.000492096,0.013538361,0,
00:01.9,0.004314423,0.000486374,0.013515472,0,
00:01.9,0.004291534,0.000480652,0.013561249,0,
00:01.9,0.004302979,0.00050354,0.013572693,0,
00:01.9,0.004325867,0.000497818,0.013526917,0,
00:01.9,0.004337311,0.000526428,0.013521194,0,
00:01.9,0.004320145,0.000514984,0.013549805,0,
00:01.9,0.004291534,0.00047493,0.013538361,0,
00:01.9,0.004314423,0.000469208,0.013521194,0,
00:01.9,0.004331589,0.000497818,0.013526917,0,
00:01.9,0.004343033,0.00050354,0.01350975,0,
00:01.9,0.004320145,0.00050354,0.013475418,0,
00:01.9,0.004262924,0.00047493,0.013498306,0,
00:01.9,0.004348755,0.000486374,0.013486862,0,
00:01.9,0.004348755,0.000509262,0.01348114,0,
00:02.0,0.004337311,0.00050354,0.013486862,0,
00:02.0,0.004337311,0.000486374,0.013475418,0,
00:02.0,0.004337311,0.000486374,0.013446808,0,
00:02.0,0.004274368,0.000497818,0.013469696,0,
00:02.0,0.004337311,0.000509262,0.013469696,0,
00:02.0,0.004394531,0.000509262,0.01345253,0,
00:02.0,0.004354477,0.000514984,0.013435364,0,
00:02.0,0.004314423,0.000509262,0.013435364,0,
00:02.0,0.004360199,0.000497818,0.013429642,0,
00:02.0,0.004354477,0.000514984,0.013446808,0,
00:02.0,0.004348755,0.000497818,0.013446808,0,
00:02.0,0.004360199,0.000509262,0.013418198,0,
00:00:02,0.004365921,0.000520706,0.013401031,0,
00:02.0,0.004325867,0.00050354,0.013412476,0,
00:02.0,0.004325867,0.000492096,0.013435364,0,
00:02.0,0.004371643,0.000509262,0.013401031,0,
00:02.0,0.004337311,0.000514984,0.013383865,0,
00:02.0,0.004331589,0.00050354,0.013406754,0,
00:02.0,0.004365921,0.000509262,0.013389587,0,
00:02.0,0.004320145,0.000514984,0.013366699,0,
00:02.0,0.004360199,0.000497818,0.013372421,0,
00:02.0,0.004371643,0.00050354,0.013355255,0,
00:02.0,0.004371643,0.00053215,0.013372421,0,
00:02.0,0.004360199,0.00050354,0.013372421,0,
00:02.0,0.004343033,0.000492096,0.013378143,0,
00:02.1,0.004348755,0.000497818,0.013355255,0,
00:02.1,0.004365921,0.000497818,0.013343811,0,
00:02.1,0.004331589,0.000520706,0.013332367,0,
00:02.1,0.004297256,0.000509262,0.013326645,0,
00:02.1,0.004371643,0.00050354,0.013315201,0,
00:02.1,0.004388809,0.00050354,0.013292313,0,
00:02.1,0.004360199,0.000514984,0.013309479,0,
00:02.1,0.004354477,0.000549316,0.013286591,0,
00:02.1,0.004383087,0.000514984,0.013263702,0,
00:02.1,0.004411697,0.000514984,0.013286591,0,
00:02.1,0.004365921,0.000509262,0.013280869,0,
00:02.1,0.004320145,0.000520706,0.013298035,0,
00:02.1,0.004371643,0.000520706,0.013298035,0,
00:02.1,0.004383087,0.00053215,0.01325798,0,
00:02.1,0.004371643,0.000514984,0.013246536,0,
00:02.1,0.004383087,0.000514984,0.013240814,0,
00:02.1,0.004365921,0.00050354,0.013235092,0,
00:02.1,0.004348755,0.000514984,0.013240814,0,
00:02.1,0.004365921,0.000526428,0.013212204,0,
00:02.1,0.004365921,0.000520706,0.013223648,0,
00:02.1,0.004365921,0.000509262,0.013223648,0,
00:02.1,0.004354477,0.000520706,0.013217926,0,
00:02.1,0.004325867,0.000520706,0.013195038,0,
00:02.1,0.004383087,0.00050354,0.013189316,0,
00:02.1,0.004388809,0.000509262,0.01320076,0,
00:02.2,0.004377365,0.00050354,0.01317215,0,
00:02.2,0.004383087,0.000514984,0.01317215,0,
00:02.2,0.004383087,0.000537872,0.013149261,0,
00:02.2,0.004394531,0.000543594,0.013149261,0,
00:02.2,0.004377365,0.000526428,0.013132095,0,
00:02.2,0.004371643,0.00050354,0.013137817,0,
00:02.2,0.004343033,0.000520706,0.013137817,0,
00:02.2,0.004314423,0.000526428,0.013120651,0,
00:02.2,0.004337311,0.00053215,0.013109207,0,
00:02.2,0.004354477,0.000526428,0.013097763,0,
00:02.2,0.004337311,0.000509262,0.013109207,0,
00:02.2,0.004400253,0.00053215,0.013149261,0,
00:02.2,0.004400253,0.000537872,0.013120651,0,
00:02.2,0.004383087,0.000526428,0.013097763,0,
00:02.2,0.004331589,0.000526428,0.013103485,0,
00:02.2,0.004354477,0.000509262,0.013074875,0,
00:02.2,0.004383087,0.000526428,0.013074875,0,
00:02.2,0.004377365,0.00053215,0.013057709,0,
00:02.2,0.004371643,0.000514984,0.013063431,0,
00:02.2,0.004371643,0.000520706,0.013080597,0,
00:02.2,0.004371643,0.00053215,0.013063431,0,
00:02.2,0.004360199,0.000543594,0.013040543,0,
00:02.2,0.004337311,0.000514984,0.013046265,0,
00:02.2,0.004325867,0.00050354,0.013034821,0,
00:02.2,0.004354477,0.000514984,0.013023376,0,
00:02.3,0.004383087,0.00056076,0.013017654,0,
00:02.3,0.004371643,0.000537872,0.013011932,0,
00:02.3,0.004360199,0.00053215,0.012994766,0,
00:02.3,0.004325867,0.00053215,0.012994766,0,
00:02.3,0.004348755,0.00050354,0.012989044,0,
00:02.3,0.004377365,0.000537872,0.01300621,0,
00:02.3,0.004360199,0.00053215,0.012971878,0,
00:02.3,0.004314423,0.000526428,0.012966156,0,
00:02.3,0.004348755,0.00053215,0.012971878,0,
00:02.3,0.004377365,0.000537872,0.012960434,0,
00:02.3,0.004360199,0.000520706,0.012960434,0,
00:02.3,0.004388809,0.000572205,0.012954712,0,
00:02.3,0.004360199,0.000537872,0.012943268,0,
00:02.3,0.004343033,0.000514984,0.01292038,0,
00:02.3,0.004331589,0.000514984,0.012954712,0,
00:02.3,0.004360199,0.000526428,0.012966156,0,
00:02.3,0.004365921,0.000526428,0.012926102,0,
00:02.3,0.004360199,0.000520706,0.01292038,0,
00:02.3,0.004343033,0.000526428,0.012926102,0,
00:02.3,0.004343033,0.000520706,0.012903214,0,
00:02.3,0.004302979,0.000537872,0.012886047,0,
00:02.3,0.004354477,0.000555038,0.012897491,0,
00:02.3,0.004383087,0.000566483,0.012886047,0,
00:02.3,0.004331589,0.000543594,0.012874603,0,
00:02.3,0.004343033,0.000543594,0.012891769,0,
00:02.4,0.004371643,0.00056076,0.012880325,0,
00:02.4,0.004354477,0.000520706,0.012874603,0,
00:02.4,0.004314423,0.000520706,0.012874603,0,
00:02.4,0.004268646,0.00053215,0.012851715,0,
00:02.4,0.004365921,0.000549316,0.012851715,0,
00:02.4,0.004377365,0.00056076,0.012834549,0,
00:02.4,0.004400253,0.00056076,0.012834549,0,
00:02.4,0.004371643,0.000566483,0.012845993,0,
00:02.4,0.004337311,0.000555038,0.012834549,0,
00:02.4,0.004331589,0.000537872,0.012828827,0,
00:02.4,0.004325867,0.000543594,0.012811661,0,
00:02.4,0.004337311,0.000549316,0.012811661,0,
00:02.4,0.004365921,0.000555038,0.012823105,0,
00:02.4,0.004343033,0.000543594,0.012805939,0,
00:02.4,0.004337311,0.000549316,0.012800217,0,
00:02.4,0.004320145,0.000537872,0.012811661,0,
00:02.4,0.004348755,0.000537872,0.012800217,0,
00:02.4,0.004348755,0.000566483,0.012777328,0,
00:02.4,0.004348755,0.000566483,0.012760162,0,
00:02.4,0.004331589,0.000566483,0.012800217,0,
00:02.4,0.004360199,0.000566483,0.012800217,0,
00:02.4,0.004360199,0.000537872,0.012783051,0,
00:02.4,0.004343033,0.000537872,0.012771606,0,
00:02.4,0.004348755,0.000543594,0.012765884,0,
00:02.4,0.004354477,0.000566483,0.012771606,0,
00:02.5,0.004371643,0.000566483,0.012765884,0,
00:02.5,0.004360199,0.000577927,0.01275444,0,
00:02.5,0.004343033,0.000577927,0.01275444,0,
00:02.5,0.004331589,0.000549316,0.012742996,0,
00:02.5,0.004337311,0.000526428,0.012737274,0,
00:02.5,0.004354477,0.00056076,0.01275444,0,
00:02.5,0.004348755,0.00056076,0.012731552,0,
00:02.5,0.004325867,0.000572205,0.012714386,0,
00:02.5,0.00422287,0.00056076,0.012737274,0,
00:02.5,0.004337311,0.00056076,0.012742996,0,
00:02.5,0.004314423,0.000543594,0.012737274,0,
00:02.5,0.004365921,0.000566483,0.012720108,0,
00:02.5,0.004400253,0.00056076,0.012708664,0,
00:02.5,0.004360199,0.00056076,0.012731552,0,
00:02.5,0.004365921,0.000566483,0.012714386,0,
00:02.5,0.004343033,0.000572205,0.012708664,0,
00:02.5,0.004348755,0.00056076,0.01269722,0,
00:02.5,0.004348755,0.000572205,0.012680054,0,
00:02.5,0.004337311,0.00056076,0.012691498,0,
00:02.5,0.004325867,0.000543594,0.012685776,0,
00:02.5,0.004331589,0.000549316,0.012680054,0,
00:02.5,0.004325867,0.00056076,0.01266861,0,
00:02.5,0.004337311,0.00056076,0.012674332,0,
00:02.5,0.004331589,0.000555038,0.012685776,0,
00:02.5,0.004343033,0.000555038,0.012657166,0,
00:02.6,0.004343033,0.000583649,0.012651443,0,
00:02.6,0.004325867,0.00056076,0.012674332,0,
00:02.6,0.004314423,0.000572205,0.01266861,0,
00:02.6,0.004291534,0.00056076,0.01266861,0,
00:02.6,0.004314423,0.000555038,0.012657166,0,
00:02.6,0.004240036,0.000549316,0.012662888,0,
00:02.6,0.004314423,0.000577927,0.012651443,0,
00:02.6,0.004388809,0.000583649,0.012599945,0,
00:02.6,0.004343033,0.000549316,0.012611389,0,
00:02.6,0.004297256,0.000549316,0.012594223,0,
00:02.6,0.004291534,0.000555038,0.012628555,0,
00:02.6,0.004343033,0.000566483,0.012639999,0,
00:02.6,0.004360199,0.000566483,0.012651443,0,
00:02.6,0.004360199,0.000583649,0.012639999,0,
00:02.6,0.004314423,0.000572205,0.012611389,0,
00:02.6,0.004302979,0.00056076,0.012622833,0,
00:02.6,0.00428009,0.000549316,0.012628555,0,
00:02.6,0.004291534,0.00056076,0.012617111,0,
00:02.6,0.004308701,0.000577927,0.012611389,0,
00:02.6,0.004314423,0.00056076,0.012594223,0,
00:02.6,0.004343033,0.00056076,0.012611389,0,
00:02.6,0.004337311,0.000572205,0.012599945,0,
00:02.6,0.004343033,0.000583649,0.012599945,0,
00:02.6,0.004308701,0.000555038,0.012611389,0,
00:02.6,0.004308701,0.000566483,0.012611389,0,
00:02.7,0.004314423,0.00056076,0.012571335,0,
00:02.7,0.004325867,0.000589371,0.012565613,0,
00:02.7,0.004325867,0.000577927,0.012565613,0,
00:02.7,0.004302979,0.000555038,0.012577057,0,
00:02.7,0.004308701,0.00056076,0.012611389,0,
00:02.7,0.004314423,0.000583649,0.012594223,0,
00:02.7,0.004314423,0.000566483,0.012582779,0,
00:02.7,0.004320145,0.000577927,0.012588501,0,
00:02.7,0.004274368,0.000566483,0.012599945,0,
00:02.7,0.004285812,0.00056076,0.012588501,0,
00:02.7,0.004274368,0.000572205,0.012571335,0,
00:02.7,0.004308701,0.000572205,0.012554169,0,
00:02.7,0.004320145,0.00056076,0.012577057,0,
00:02.7,0.004337311,0.000572205,0.012554169,0,
00:02.7,0.004320145,0.000577927,0.012554169,0,
00:02.7,0.004302979,0.000566483,0.012582779,0,
00:02.7,0.004297256,0.000572205,0.012565613,0,
00:02.7,0.004297256,0.000572205,0.012571335,0,
00:02.7,0.004302979,0.000566483,0.012571335,0,
00:02.7,0.004331589,0.000566483,0.012565613,0,
00:02.7,0.004325867,0.000572205,0.012542725,0,
00:02.7,0.004320145,0.000589371,0.012531281,0,
00:02.7,0.004320145,0.000583649,0.012542725,0,
00:02.7,0.004308701,0.000583649,0.012548447,0,
00:02.7,0.004308701,0.000566483,0.012559891,0,
00:02.8,0.004291534,0.000566483,0.012548447,0,
00:02.8,0.004291534,0.000555038,0.012548447,0,
00:02.8,0.004302979,0.000566483,0.012548447,0,
00:02.8,0.00428009,0.000566483,0.012537003,0,
00:02.8,0.004268646,0.00056076,0.012548447,0,
00:02.8,0.004308701,0.00056076,0.012548447,0,
00:02.8,0.004308701,0.000572205,0.012514114,0,
00:02.8,0.004314423,0.000589371,0.012514114,0,
00:02.8,0.00425148,0.000566483,0.012548447,0,
00:02.8,0.004274368,0.000555038,0.012548447,0,
00:02.8,0.004285812,0.000572205,0.012537003,0,
00:02.8,0.004325867,0.000589371,0.012525558,0,
00:02.8,0.00428009,0.000566483,0.012514114,0,
00:02.8,0.004297256,0.000549316,0.012514114,0,
00:02.8,0.004320145,0.000555038,0.01250267,0,
00:02.8,0.004320145,0.000566483,0.012508392,0,
00:02.8,0.004314423,0.000566483,0.012508392,0,
00:02.8,0.004291534,0.000589371,0.012508392,0,
00:02.8,0.004308701,0.000572205,0.012508392,0,
00:02.8,0.004297256,0.000566483,0.012514114,0,
00:02.8,0.00428009,0.000555038,0.012519836,0,
00:02.8,0.004314423,0.000583649,0.012491226,0,
00:02.8,0.004331589,0.000583649,0.012519836,0,
00:02.8,0.004291534,0.000577927,0.012525558,0,
00:02.8,0.004285812,0.000555038,0.012496948,0,
00:02.9,0.00428009,0.00056076,0.012491226,0,
00:02.9,0.004268646,0.000555038,0.012525558,0,
00:02.9,0.004245758,0.000555038,0.012491226,0,
00:02.9,0.004325867,0.000583649,0.01250267,0,
00:02.9,0.004320145,0.000572205,0.012508392,0,
00:02.9,0.004302979,0.000577927,0.01250267,0,
00:02.9,0.004302979,0.000566483,0.01250267,0,
00:02.9,0.004297256,0.000549316,0.012496948,0,
00:02.9,0.004308701,0.000555038,0.012508392,0,
00:02.9,0.004302979,0.000572205,0.012508392,0,
00:02.9,0.004297256,0.000572205,0.012496948,0,
00:02.9,0.004274368,0.000555038,0.012519836,0,
00:02.9,0.004257202,0.000543594,0.012508392,0,
00:02.9,0.004302979,0.00056076,0.012468338,0,
00:02.9,0.004291534,0.000566483,0.012479782,0,
00:02.9,0.004257202,0.000549316,0.012508392,0,
00:02.9,0.00425148,0.00056076,0.012514114,0,
00:02.9,0.004337311,0.000572205,0.012485504,0,
00:02.9,0.004337311,0.000555038,0.01250267,0,
00:02.9,0.004297256,0.000572205,0.012508392,0,
00:02.9,0.004297256,0.000566483,0.012496948,0,
00:02.9,0.004302979,0.000555038,0.01250267,0,
00:02.9,0.004291534,0.000577927,0.012485504,0,
00:02.9,0.004302979,0.00056076,0.012491226,0,
00:02.9,0.004291534,0.000549316,0.012485504,0,
00:03.0,0.004291534,0.000549316,0.012485504,0,
00:03.0,0.004291534,0.000549316,0.012519836,0,
00:03.0,0.004297256,0.000566483,0.012491226,0,
00:03.0,0.004308701,0.000572205,0.012508392,0,
00:03.0,0.004291534,0.000549316,0.01250267,0,
00:03.0,0.004297256,0.000566483,0.012508392,0,
00:03.0,0.004297256,0.000595093,0.012491226,0,
00:03.0,0.00428009,0.00056076,0.012496948,0,
00:03.0,0.004262924,0.00053215,0.01250267,0,
00:03.0,0.004274368,0.000543594,0.012496948,0,
00:03.0,0.004302979,0.000577927,0.012508392,0,
00:03.0,0.004297256,0.000566483,0.012485504,0,
00:00:03,0.004245758,0.000549316,0.012508392,0,
00:03.0,0.004268646,0.000555038,0.012491226,0,
00:03.0,0.004285812,0.000537872,0.012508392,0,
00:03.0,0.004297256,0.000555038,0.012531281,0,
00:03.0,0.004285812,0.000572205,0.012491226,0,
00:03.0,0.004297256,0.000566483,0.012496948,0,
00:03.0,0.004297256,0.000566483,0.012525558,0,
00:03.0,0.004297256,0.000566483,0.012525558,0,
00:03.0,0.004297256,0.000543594,0.012519836,0,
00:03.0,0.004285812,0.000520706,0.012508392,0,
00:03.0,0.004268646,0.000549316,0.012525558,0,
00:03.0,0.004274368,0.000549316,0.012514114,0,
00:03.0,0.004297256,0.000549316,0.012519836,0,
00:03.1,0.004308701,0.000572205,0.012508392,0,
00:03.1,0.004274368,0.000549316,0.012525558,0,
00:03.1,0.004274368,0.000549316,0.012508392,0,
00:03.1,0.004314423,0.000555038,0.012519836,0,
00:03.1,0.004285812,0.000577927,0.01250267,0,
00:03.1,0.004262924,0.000549316,0.012514114,0,
00:03.1,0.004262924,0.00050354,0.012548447,0,
00:03.1,0.004331589,0.000537872,0.012542725,0,
00:03.1,0.004285812,0.000555038,0.012525558,0,
00:03.1,0.004228592,0.000537872,0.012531281,0,
00:03.1,0.00425148,0.000549316,0.012508392,0,
00:03.1,0.004302979,0.00056076,0.01250267,0,
00:03.1,0.004320145,0.000555038,0.012519836,0,
00:03.1,0.004308701,0.00056076,0.012525558,0,
00:03.1,0.00428009,0.000549316,0.012531281,0,
00:03.1,0.004274368,0.000549316,0.012537003,0,
00:03.1,0.004268646,0.000543594,0.012542725,0,
00:03.1,0.004314423,0.000537872,0.012525558,0,
00:03.1,0.004314423,0.00056076,0.012525558,0,
00:03.1,0.004302979,0.000549316,0.012525558,0,
00:03.1,0.004291534,0.000543594,0.012519836,0,
00:03.1,0.004285812,0.000537872,0.012565613,0,
00:03.1,0.004308701,0.000549316,0.012542725,0,
00:03.1,0.004297256,0.000566483,0.012531281,0,
00:03.1,0.004262924,0.000543594,0.012531281,0,
00:03.2,0.004291534,0.00053215,0.012548447,0,
00:03.2,0.004297256,0.000555038,0.012548447,0,
00:03.2,0.004291534,0.000555038,0.012571335,0,
00:03.2,0.00425148,0.000543594,0.012559891,0,
00:03.2,0.004228592,0.000526428,0.012542725,0,
00:03.2,0.004325867,0.00056076,0.012582779,0,
00:03.2,0.004331589,0.00056076,0.012554169,0,
00:03.2,0.004268646,0.000537872,0.012548447,0,
00:03.2,0.004240036,0.000549316,0.012565613,0,
00:03.2,0.004302979,0.000555038,0.012582779,0,
00:03.2,0.004331589,0.000537872,0.012554169,0,
00:03.2,0.004291534,0.000526428,0.012565613,0,
00:03.2,0.004268646,0.000537872,0.012554169,0,
00:03.2,0.004314423,0.000577927,0.012548447,0,
00:03.2,0.004320145,0.000543594,0.012559891,0,
00:03.2,0.004302979,0.000514984,0.012577057,0,
00:03.2,0.004302979,0.000537872,0.012565613,0,
00:03.2,0.004297256,0.000537872,0.012559891,0,
00:03.2,0.00428009,0.00053215,0.012559891,0,
00:03.2,0.004274368,0.000543594,0.012565613,0,
00:03.2,0.004274368,0.000543594,0.012559891,0,
00:03.2,0.004302979,0.000543594,0.012588501,0,
00:03.2,0.004297256,0.00053215,0.012577057,0,
00:03.2,0.00428009,0.000543594,0.012588501,0,
00:03.2,0.004314423,0.000537872,0.012594223,0,
00:03.3,0.004268646,0.000526428,0.012605667,0,
00:03.3,0.004262924,0.000543594,0.012588501,0,
00:03.3,0.004320145,0.000549316,0.012571335,0,
00:03.3,0.004302979,0.00053215,0.012577057,0,
00:03.3,0.004308701,0.000526428,0.012588501,0,
00:03.3,0.004302979,0.000526428,0.012594223,0,
00:03.3,0.004302979,0.00053215,0.012588501,0,
00:03.3,0.004308701,0.000543594,0.012588501,0,
00:03.3,0.004302979,0.00053215,0.012582779,0,
00:03.3,0.004297256,0.00053215,0.012582779,0,
00:03.3,0.004291534,0.00050354,0.012617111,0,
00:03.3,0.004297256,0.00053215,0.012582779,0,
00:03.3,0.004291534,0.000566483,0.012599945,0,
00:03.3,0.004297256,0.000549316,0.012628555,0,
00:03.3,0.004274368,0.00050354,0.012599945,0,
00:03.3,0.004211426,0.000492096,0.012611389,0,
00:03.3,0.004199982,0.00050354,0.012628555,0,
00:03.3,0.004360199,0.00053215,0.012617111,0,
00:03.3,0.004325867,0.000549316,0.012617111,0,
00:03.3,0.004291534,0.000526428,0.012605667,0,
00:03.3,0.004302979,0.000520706,0.012605667,0,
00:03.3,0.004291534,0.000520706,0.012639999,0,
00:03.3,0.004302979,0.000526428,0.012634277,0,
00:03.3,0.004291534,0.000509262,0.012628555,0,
00:03.3,0.00428009,0.000509262,0.012634277,0,
00:03.4,0.004285812,0.000509262,0.012639999,0,
00:03.4,0.004285812,0.000509262,0.012639999,0,
00:03.4,0.004285812,0.000514984,0.012617111,0,
00:03.4,0.00428009,0.000509262,0.012639999,0,
00:03.4,0.004297256,0.00050354,0.012639999,0,
00:03.4,0.004262924,0.000497818,0.012651443,0,
00:03.4,0.004297256,0.00053215,0.012634277,0,
00:03.4,0.004297256,0.000514984,0.012651443,0,
00:03.4,0.004274368,0.000497818,0.012645721,0,
00:03.4,0.004308701,0.00050354,0.012657166,0,
00:03.4,0.004308701,0.00053215,0.01266861,0,
00:03.4,0.004274368,0.000480652,0.012651443,0,
00:03.4,0.004285812,0.00050354,0.012674332,0,
00:03.4,0.004291534,0.000514984,0.012662888,0,
00:03.4,0.004274368,0.000509262,0.012662888,0,
00:03.4,0.004297256,0.000514984,0.012657166,0,
00:03.4,0.004291534,0.000497818,0.012674332,0,
00:03.4,0.004285812,0.000497818,0.01266861,0,
00:03.4,0.004285812,0.000492096,0.012674332,0,
00:03.4,0.004285812,0.00050354,0.012662888,0,
00:03.4,0.004268646,0.000480652,0.012662888,0,
00:03.4,0.004268646,0.000486374,0.01269722,0,
00:03.4,0.004268646,0.00050354,0.012674332,0,
00:03.4,0.004262924,0.000509262,0.012691498,0,
00:03.4,0.004274368,0.000497818,0.012685776,0,
00:03.5,0.004245758,0.000497818,0.012691498,0,
00:03.5,0.004274368,0.00050354,0.01269722,0,
00:03.5,0.004308701,0.000497818,0.012702942,0,
00:03.5,0.004314423,0.00050354,0.012680054,0,
00:03.5,0.004297256,0.000486374,0.012708664,0,
00:03.5,0.004302979,0.000497818,0.012714386,0,
00:03.5,0.004285812,0.000492096,0.01272583,0,
00:03.5,0.004291534,0.000492096,0.01272583,0,
00:03.5,0.00428009,0.000492096,0.01272583,0,
00:03.5,0.004268646,0.000480652,0.012731552,0,
00:03.5,0.004302979,0.000509262,0.012737274,0,
00:03.5,0.004291534,0.000492096,0.012731552,0,
00:03.5,0.004285812,0.000486374,0.012714386,0,
00:03.5,0.004274368,0.000497818,0.012714386,0,
00:03.5,0.004262924,0.000480652,0.012760162,0,
00:03.5,0.00428009,0.000497818,0.01275444,0,
00:03.5,0.004297256,0.000509262,0.012742996,0,
00:03.5,0.004274368,0.000486374,0.012748718,0,
00:03.5,0.00425148,0.000469208,0.012748718,0,
00:03.5,0.004262924,0.000497818,0.012748718,0,
00:03.5,0.00425148,0.000497818,0.012771606,0,
00:03.5,0.00422287,0.00047493,0.012760162,0,
00:03.5,0.004245758,0.000492096,0.012765884,0,
00:03.5,0.00428009,0.000497818,0.012777328,0,
00:03.5,0.004268646,0.000480652,0.012765884,0,
00:03.6,0.00428009,0.000480652,0.012794495,0,
00:03.6,0.004297256,0.000492096,0.012788773,0,
00:03.6,0.004274368,0.000486374,0.012794495,0,
00:03.6,0.004234314,0.00047493,0.012788773,0,
00:03.6,0.00428009,0.000480652,0.012777328,0,
00:03.6,0.004291534,0.000486374,0.012771606,0,
00:03.6,0.004291534,0.000492096,0.012794495,0,
00:03.6,0.004268646,0.000509262,0.012794495,0,
00:03.6,0.004274368,0.000492096,0.012800217,0,
00:03.6,0.004268646,0.000492096,0.012811661,0,
00:03.6,0.004291534,0.000497818,0.012805939,0,
00:03.6,0.004262924,0.000469208,0.012805939,0,
00:03.6,0.004245758,0.000492096,0.012817383,0,
00:03.6,0.00428009,0.000486374,0.012811661,0,
00:03.6,0.00428009,0.000492096,0.012834549,0,
00:03.6,0.004274368,0.000492096,0.012823105,0,
00:03.6,0.004268646,0.000492096,0.012811661,0,
00:03.6,0.004274368,0.000509262,0.012823105,0,
00:03.6,0.004262924,0.000480652,0.012828827,0,
00:03.6,0.004245758,0.000469208,0.012828827,0,
00:03.6,0.004257202,0.000480652,0.012823105,0,
00:03.6,0.00425148,0.000497818,0.012845993,0,
00:03.6,0.00425148,0.000492096,0.012857437,0,
00:03.6,0.004262924,0.000469208,0.012845993,0,
00:03.6,0.00425148,0.000486374,0.012840271,0,
00:03.7,0.00425148,0.000486374,0.012828827,0,
00:03.7,0.004188538,0.000492096,0.012834549,0,
00:03.7,0.004257202,0.000480652,0.012851715,0,
00:03.7,0.004308701,0.000486374,0.012840271,0,
00:03.7,0.004274368,0.000486374,0.012834549,0,
00:03.7,0.00428009,0.000497818,0.012851715,0,
00:03.7,0.00428009,0.000497818,0.012874603,0,
00:03.7,0.004245758,0.000480652,0.012886047,0,
00:03.7,0.004268646,0.000480652,0.012880325,0,
00:03.7,0.004285812,0.00047493,0.012863159,0,
00:03.7,0.004268646,0.000480652,0.012857437,0,
00:03.7,0.004257202,0.00050354,0.012891769,0,
00:03.7,0.004262924,0.000492096,0.012874603,0,
00:03.7,0.004268646,0.000509262,0.012874603,0,
00:03.7,0.00425148,0.000480652,0.012886047,0,
00:03.7,0.004262924,0.000463486,0.012880325,0,
00:03.7,0.004262924,0.000480652,0.012897491,0,
00:03.7,0.004268646,0.000492096,0.012868881,0,
00:03.7,0.004274368,0.00050354,0.012886047,0,
00:03.7,0.004257202,0.000486374,0.012891769,0,
00:03.7,0.004245758,0.000486374,0.012908936,0,
00:03.7,0.004262924,0.000480652,0.012908936,0,
00:03.7,0.004188538,0.000469208,0.012886047,0,
00:03.7,0.004177094,0.000469208,0.012903214,0,
00:03.7,0.004302979,0.00047493,0.012886047,0,
00:03.8,0.004297256,0.000492096,0.012903214,0,
00:03.8,0.004274368,0.000492096,0.012908936,0,
00:03.8,0.004240036,0.000486374,0.01292038,0,
00:03.8,0.004274368,0.000480652,0.012908936,0,
00:03.8,0.004234314,0.000469208,0.012903214,0,
00:03.8,0.004262924,0.000469208,0.01292038,0,
00:03.8,0.004268646,0.000492096,0.012926102,0,
00:03.8,0.004257202,0.000492096,0.012926102,0,
00:03.8,0.00425148,0.000486374,0.012931824,0,
00:03.8,0.004285812,0.000497818,0.012931824,0,
00:03.8,0.004274368,0.000486374,0.012937546,0,
00:03.8,0.004257202,0.000480652,0.012931824,0,
00:03.8,0.004257202,0.000486374,0.012960434,0,
00:03.8,0.00425148,0.000457764,0.012954712,0,
00:03.8,0.004240036,0.000492096,0.01294899,0,
00:03.8,0.004245758,0.000492096,0.012943268,0,
00:03.8,0.00425148,0.00047493,0.012943268,0,
00:03.8,0.004245758,0.000469208,0.012954712,0,
00:03.8,0.004274368,0.000497818,0.012954712,0,
00:03.8,0.004274368,0.000486374,0.012966156,0,
00:03.8,0.00425148,0.00047493,0.012966156,0,
00:03.8,0.00425148,0.000469208,0.0129776,0,
00:03.8,0.00425148,0.00047493,0.012966156,0,
00:03.8,0.004291534,0.000509262,0.012960434,0,
00:03.8,0.004268646,0.000514984,0.012937546,0,
00:03.9,0.00419426,0.00047493,0.012966156,0,
00:03.9,0.00425148,0.000457764,0.013023376,0,
00:03.9,0.00428009,0.000469208,0.012994766,0,
00:03.9,0.004285812,0.00047493,0.012994766,0,
00:03.9,0.004234314,0.000480652,0.012983322,0,
00:03.9,0.004205704,0.00047493,0.012994766,0,
00:03.9,0.00428009,0.000463486,0.012994766,0,
00:03.9,0.004274368,0.000486374,0.012994766,0,
00:03.9,0.004257202,0.000497818,0.012989044,0,
00:03.9,0.004274368,0.000497818,0.012994766,0,
00:03.9,0.004274368,0.000469208,0.012994766,0,
00:03.9,0.004274368,0.000480652,0.01300621,0,
00:03.9,0.004274368,0.000480652,0.013011932,0,
00:03.9,0.00428009,0.000497818,0.01300621,0,
00:03.9,0.004268646,0.000486374,0.013023376,0,
00:03.9,0.004262924,0.000463486,0.013017654,0,
00:03.9,0.00425148,0.000463486,0.013023376,0,
00:03.9,0.004234314,0.000463486,0.013034821,0,
00:03.9,0.00425148,0.00047493,0.013029099,0,
00:03.9,0.004234314,0.000514984,0.013029099,0,
00:03.9,0.004297256,0.000497818,0.013034821,0,
00:03.9,0.004285812,0.000480652,0.013034821,0,
00:03.9,0.004257202,0.000469208,0.013034821,0,
00:03.9,0.00425148,0.000463486,0.013063431,0,
00:03.9,0.004217148,0.00047493,0.013051987,0,
00:04.0,0.004228592,0.000492096,0.013051987,0,
00:04.0,0.004262924,0.000469208,0.013046265,0,
00:04.0,0.00428009,0.000463486,0.013057709,0,
00:04.0,0.004257202,0.000480652,0.013040543,0,
00:04.0,0.004291534,0.000486374,0.013051987,0,
00:04.0,0.004285812,0.00047493,0.013074875,0,
00:04.0,0.004262924,0.000480652,0.013051987,0,
00:04.0,0.00428009,0.000480652,0.013040543,0,
00:04.0,0.004274368,0.000480652,0.013040543,0,
00:04.0,0.00422287,0.000457764,0.013057709,0,
00:04.0,0.004228592,0.000469208,0.013074875,0,
00:04.0,0.004245758,0.00047493,0.013092041,0,
00:00:04,0.004268646,0.000486374,0.013074875,0,
00:04.0,0.004268646,0.00047493,0.013080597,0,
00:04.0,0.004257202,0.000463486,0.013069153,0,
00:04.0,0.004234314,0.000492096,0.013080597,0,
00:04.0,0.004217148,0.000486374,0.013086319,0,
00:04.0,0.004308701,0.000509262,0.013074875,0,
00:04.0,0.004274368,0.00047493,0.013097763,0,
00:04.0,0.004234314,0.00044632,0.013103485,0,
00:04.0,0.004245758,0.000457764,0.013086319,0,
00:04.0,0.004262924,0.000463486,0.013074875,0,
00:04.0,0.00428009,0.000486374,0.013069153,0,
00:04.0,0.004274368,0.000480652,0.013074875,0,
00:04.0,0.004262924,0.00047493,0.013097763,0,
00:04.1,0.004262924,0.000480652,0.013086319,0,
00:04.1,0.004262924,0.000492096,0.013103485,0,
00:04.1,0.004257202,0.000480652,0.013103485,0,
00:04.1,0.004228592,0.000463486,0.013097763,0,
00:04.1,0.004245758,0.000486374,0.013109207,0,
00:04.1,0.00428009,0.000486374,0.013103485,0,
00:04.1,0.004245758,0.000469208,0.013103485,0,
00:04.1,0.004245758,0.000463486,0.013092041,0,
00:04.1,0.004262924,0.000463486,0.013074875,0,
00:04.1,0.00425148,0.00047493,0.013097763,0,
00:04.1,0.004217148,0.000497818,0.013092041,0,
00:04.1,0.004211426,0.000497818,0.013097763,0,
00:04.1,0.00425148,0.00047493,0.013103485,0,
00:04.1,0.004291534,0.000463486,0.013114929,0,
00:04.1,0.004297256,0.000469208,0.013120651,0,
00:04.1,0.004262924,0.000480652,0.013132095,0,
00:04.1,0.00425148,0.00047493,0.013132095,0,
00:04.1,0.004257202,0.00047493,0.013126373,0,
00:04.1,0.004240036,0.000469208,0.013120651,0,
00:04.1,0.004245758,0.000463486,0.013120651,0,
00:04.1,0.004240036,0.00047493,0.013109207,0,
00:04.1,0.004262924,0.000480652,0.013103485,0,
00:04.1,0.004262924,0.000497818,0.013109207,0,
00:04.1,0.004291534,0.000509262,0.013114929,0,
00:04.1,0.004262924,0.00047493,0.013132095,0,
00:04.2,0.004257202,0.000469208,0.013120651,0,
00:04.2,0.004245758,0.000452042,0.013114929,0,
00:04.2,0.004234314,0.000463486,0.013149261,0,
00:04.2,0.004257202,0.000509262,0.013114929,0,
00:04.2,0.004274368,0.000480652,0.013120651,0,
00:04.2,0.00425148,0.000457764,0.013149261,0,
00:04.2,0.004262924,0.000480652,0.013149261,0,
00:04.2,0.004268646,0.000480652,0.013132095,0,
00:04.2,0.004257202,0.000486374,0.013120651,0,
00:04.2,0.00425148,0.00047493,0.013132095,0,
00:04.2,0.00422287,0.000452042,0.013120651,0,
00:04.2,0.004245758,0.000452042,0.013160706,0,
00:04.2,0.004188538,0.000457764,0.013132095,0,
00:04.2,0.004234314,0.000492096,0.013120651,0,
00:04.2,0.004228592,0.000480652,0.013137817,0,
00:04.2,0.004268646,0.000463486,0.013149261,0,
00:04.2,0.004308701,0.000480652,0.013137817,0,
00:04.2,0.004274368,0.000480652,0.013132095,0,
00:04.2,0.004268646,0.00047493,0.013126373,0,
00:04.2,0.00428009,0.000492096,0.013126373,0,
00:04.2,0.004262924,0.000480652,0.013126373,0,
00:04.2,0.004262924,0.00047493,0.013120651,0,
00:04.2,0.00425148,0.000486374,0.013149261,0,
00:04.2,0.004245758,0.000463486,0.013149261,0,
00:04.2,0.004257202,0.000480652,0.013143539,0,
00:04.3,0.004245758,0.000469208,0.013160706,0,
00:04.3,0.004228592,0.000457764,0.013160706,0,
00:04.3,0.00425148,0.000469208,0.013143539,0,
00:04.3,0.004262924,0.000492096,0.013120651,0,
00:04.3,0.004262924,0.00050354,0.013137817,0,
00:04.3,0.004262924,0.000492096,0.013154984,0,
00:04.3,0.00425148,0.000457764,0.013143539,0,
00:04.3,0.004177094,0.000463486,0.013160706,0,
00:04.3,0.004205704,0.000486374,0.013154984,0,
00:04.3,0.004234314,0.000469208,0.013143539,0,
00:04.3,0.004291534,0.000469208,0.013154984,0,
00:04.3,0.004268646,0.00047493,0.013160706,0,
00:04.3,0.004257202,0.000492096,0.013120651,0,
00:04.3,0.004234314,0.000480652,0.01317215,0,
00:04.3,0.00425148,0.000480652,0.01317215,0,
00:04.3,0.004234314,0.000469208,0.013160706,0,
00:04.3,0.004257202,0.00044632,0.013143539,0,
00:04.3,0.004268646,0.000463486,0.013143539,0,
00:04.3,0.004268646,0.000486374,0.013160706,0,
00:04.3,0.004228592,0.000469208,0.013149261,0,
00:04.3,0.004257202,0.000480652,0.01317215,0,
00:04.3,0.004262924,0.00047493,0.01317215,0,
00:04.3,0.004257202,0.000486374,0.013177872,0,
00:04.3,0.00425148,0.000492096,0.013160706,0,
00:04.3,0.004262924,0.000463486,0.013154984,0,
00:04.4,0.004228592,0.000457764,0.013166428,0,
00:04.4,0.004205704,0.000452042,0.013183594,0,
00:04.4,0.004177094,0.000469208,0.013160706,0,
00:04.4,0.004274368,0.000480652,0.013149261,0,
00:04.4,0.004257202,0.00047493,0.013149261,0,
00:04.4,0.004285812,0.000497818,0.013154984,0,
00:04.4,0.004245758,0.000492096,0.013183594,0,
00:04.4,0.00422287,0.000463486,0.01317215,0,
00:04.4,0.004285812,0.000486374,0.013154984,0,
00:04.4,0.004257202,0.00047493,0.013189316,0,
00:04.4,0.004228592,0.000469208,0.013160706,0,
00:04.4,0.004257202,0.000497818,0.013149261,0,
00:04.4,0.004245758,0.000452042,0.013177872,0,
00:04.4,0.004234314,0.000457764,0.013183594,0,
00:04.4,0.004262924,0.000480652,0.013183594,0,
00:04.4,0.004262924,0.000469208,0.01317215,0,
00:04.4,0.00419426,0.000463486,0.013160706,0,
00:04.4,0.004177094,0.000469208,0.013189316,0,
00:04.4,0.004268646,0.00047493,0.01317215,0,
00:04.4,0.004274368,0.000480652,0.013166428,0,
00:04.4,0.004274368,0.00047493,0.01317215,0,
00:04.4,0.004257202,0.000480652,0.013160706,0,
00:04.4,0.004257202,0.000492096,0.01317215,0,
00:04.4,0.004257202,0.000469208,0.013177872,0,
00:04.4,0.004240036,0.000469208,0.013177872,0,
00:04.5,0.004245758,0.000480652,0.013189316,0,
00:04.5,0.004228592,0.00047493,0.013206482,0,
00:04.5,0.004240036,0.000463486,0.013183594,0,
00:04.5,0.004262924,0.00047493,0.013183594,0,
00:04.5,0.004240036,0.000480652,0.013195038,0,
00:04.5,0.004188538,0.000480652,0.013160706,0,
00:04.5,0.004228592,0.00047493,0.013183594,0,
00:04.5,0.004262924,0.000486374,0.013183594,0,
00:04.5,0.004205704,0.00047493,0.013212204,0,
00:04.5,0.00422287,0.000463486,0.013177872,0,
00:04.5,0.004257202,0.000480652,0.01317215,0,
00:04.5,0.004228592,0.000486374,0.013195038,0,
00:04.5,0.004257202,0.00047493,0.013212204,0,
00:04.5,0.004268646,0.000480652,0.01320076,0,
00:04.5,0.004228592,0.00047493,0.013183594,0,
00:04.5,0.004217148,0.00047493,0.01317215,0,
00:04.5,0.004262924,0.000463486,0.013206482,0,
00:04.5,0.004240036,0.000480652,0.013206482,0,
00:04.5,0.004234314,0.000486374,0.01320076,0,
00:04.5,0.00422287,0.00047493,0.013195038,0,
00:04.5,0.004171371,0.000452042,0.013212204,0,
00:04.5,0.004182816,0.000457764,0.013212204,0,
00:04.5,0.00428009,0.000469208,0.013206482,0,
00:04.5,0.004285812,0.000486374,0.013183594,0,
00:04.5,0.004268646,0.000497818,0.013183594,0,
00:04.6,0.00422287,0.000497818,0.013212204,0,
00:04.6,0.004228592,0.000457764,0.013212204,0,
00:04.6,0.00425148,0.000469208,0.013212204,0,
00:04.6,0.004262924,0.000492096,0.013206482,0,
00:04.6,0.004240036,0.000497818,0.01320076,0,
00:04.6,0.004228592,0.000463486,0.013212204,0,
00:04.6,0.00422287,0.000440598,0.013217926,0,
00:04.6,0.004234314,0.00047493,0.013206482,0,
00:04.6,0.004234314,0.000480652,0.013223648,0,
00:04.6,0.004228592,0.000480652,0.013235092,0,
00:04.6,0.004217148,0.00047493,0.013217926,0,
00:04.6,0.004199982,0.000480652,0.013212204,0,
00:04.6,0.004182816,0.00047493,0.013206482,0,
00:04.6,0.004199982,0.000463486,0.013217926,0,
00:04.6,0.004234314,0.000463486,0.013223648,0,
00:04.6,0.004228592,0.000469208,0.013235092,0,
00:04.6,0.00425148,0.000497818,0.013206482,0,
00:04.6,0.004217148,0.000486374,0.01322937,0,
00:04.6,0.004245758,0.000480652,0.01322937,0,
00:04.6,0.004268646,0.000469208,0.01322937,0,
00:04.6,0.004245758,0.000469208,0.013246536,0,
00:04.6,0.004211426,0.000469208,0.013246536,0,
00:04.6,0.004217148,0.000480652,0.013246536,0,
00:04.6,0.004228592,0.000469208,0.013235092,0,
00:04.6,0.00422287,0.000469208,0.013223648,0,
00:04.7,0.004228592,0.00047493,0.013252258,0,
00:04.7,0.004228592,0.00047493,0.013263702,0,
00:04.7,0.004228592,0.00047493,0.013246536,0,
00:04.7,0.00422287,0.000469208,0.013252258,0,
00:04.7,0.004217148,0.000480652,0.013246536,0,
00:04.7,0.004211426,0.000469208,0.013246536,0,
00:04.7,0.004228592,0.000492096,0.01325798,0,
00:04.7,0.00419426,0.000463486,0.013217926,0,
00:04.7,0.004199982,0.000463486,0.013246536,0,
00:04.7,0.004228592,0.000492096,0.013246536,0,
00:04.7,0.004211426,0.00047493,0.013252258,0,
00:04.7,0.00419426,0.000463486,0.013252258,0,
00:04.7,0.004211426,0.000457764,0.013275146,0,
00:04.7,0.004228592,0.00047493,0.013269424,0,
00:04.7,0.004240036,0.000486374,0.013246536,0,
00:04.7,0.004217148,0.00047493,0.013240814,0,
00:04.7,0.004205704,0.000463486,0.013252258,0,
00:04.7,0.004188538,0.000469208,0.013263702,0,
00:04.7,0.004234314,0.00047493,0.01325798,0,
00:04.7,0.004240036,0.000486374,0.013252258,0,
00:04.7,0.004234314,0.000486374,0.013252258,0,
00:04.7,0.004234314,0.000486374,0.013280869,0,
00:04.7,0.00422287,0.000492096,0.013263702,0,
00:04.7,0.004228592,0.000463486,0.013240814,0,
00:04.7,0.00422287,0.000457764,0.013263702,0,
00:04.8,0.004182816,0.00047493,0.013286591,0,
00:04.8,0.004154205,0.000457764,0.013292313,0,
00:04.8,0.004262924,0.000486374,0.013275146,0,
00:04.8,0.004245758,0.00047493,0.013263702,0,
00:04.8,0.00422287,0.00047493,0.013275146,0,
00:04.8,0.00419426,0.00050354,0.013280869,0,
00:04.8,0.004234314,0.000480652,0.013269424,0,
00:04.8,0.004240036,0.000469208,0.013252258,0,
00:04.8,0.004245758,0.000480652,0.013263702,0,
00:04.8,0.004217148,0.000469208,0.013280869,0,
00:04.8,0.004199982,0.00047493,0.013286591,0,
00:04.8,0.004154205,0.00047493,0.013298035,0,
00:04.8,0.004188538,0.000469208,0.013286591,0,
00:04.8,0.004205704,0.000469208,0.013298035,0,
00:04.8,0.004148483,0.000452042,0.013286591,0,
00:04.8,0.004228592,0.000463486,0.013292313,0,
00:04.8,0.004240036,0.000486374,0.013286591,0,
00:04.8,0.004240036,0.000486374,0.013292313,0,
00:04.8,0.004240036,0.000480652,0.013303757,0,
00:04.8,0.00422287,0.000469208,0.013303757,0,
00:04.8,0.004217148,0.00047493,0.013303757,0,
00:04.8,0.004234314,0.00047493,0.013303757,0,
00:04.8,0.004240036,0.00047493,0.013315201,0,
00:04.8,0.004228592,0.000469208,0.013298035,0,
00:04.8,0.004211426,0.000463486,0.013309479,0,
00:04.9,0.00422287,0.000480652,0.013320923,0,
00:04.9,0.00422287,0.000492096,0.013315201,0,
00:04.9,0.004234314,0.000492096,0.013292313,0,
00:04.9,0.004228592,0.00050354,0.013315201,0,
00:04.9,0.004199982,0.000463486,0.013315201,0,
00:04.9,0.004205704,0.00047493,0.013315201,0,
00:04.9,0.004211426,0.000480652,0.013286591,0,
00:04.9,0.004182816,0.000457764,0.013349533,0,
00:04.9,0.00419426,0.000463486,0.013326645,0,
00:04.9,0.00422287,0.000486374,0.013320923,0,
00:04.9,0.004177094,0.000486374,0.013332367,0,
00:04.9,0.00419426,0.00047493,0.013332367,0,
00:04.9,0.00425148,0.000469208,0.013326645,0,
00:04.9,0.004240036,0.000469208,0.013349533,0,
00:04.9,0.004217148,0.000469208,0.013355255,0,
00:04.9,0.00422287,0.000492096,0.013320923,0,
00:04.9,0.004205704,0.00047493,0.013315201,0,
00:04.9,0.004211426,0.000469208,0.013360977,0,
00:04.9,0.004217148,0.000469208,0.013343811,0,
00:04.9,0.004211426,0.00047493,0.013343811,0,
00:04.9,0.00419426,0.00047493,0.013343811,0,
00:04.9,0.004199982,0.00047493,0.013343811,0,
00:04.9,0.004257202,0.000492096,0.013332367,0,
00:04.9,0.004245758,0.000480652,0.013338089,0,
00:04.9,0.004211426,0.000469208,0.013366699,0,
00:05.0,0.004211426,0.00047493,0.013372421,0,
00:05.0,0.00419426,0.000463486,0.013360977,0,
00:05.0,0.00419426,0.000469208,0.013355255,0,
00:05.0,0.004234314,0.000486374,0.013355255,0,
00:05.0,0.004234314,0.000480652,0.013338089,0,
00:05.0,0.004228592,0.000497818,0.013355255,0,
00:05.0,0.004217148,0.000497818,0.013372421,0,
00:05.0,0.00422287,0.000480652,0.013378143,0,
00:05.0,0.004159927,0.000457764,0.013349533,0,
00:05.0,0.004199982,0.00047493,0.013332367,0,
00:05.0,0.00422287,0.000497818,0.013366699,0,
00:05.0,0.004228592,0.00047493,0.013378143,0,
00:00:05,0.00422287,0.000492096,0.013366699,0,
00:05.0,0.004217148,0.000486374,0.013372421,0,
00:05.0,0.004159927,0.000452042,0.013406754,0,
00:05.0,0.004199982,0.00047493,0.013383865,0,
00:05.0,0.00422287,0.000480652,0.013378143,0,
00:05.0,0.004217148,0.000469208,0.013401031,0,
00:05.0,0.004217148,0.00047493,0.013383865,0,
00:05.0,0.004205704,0.00047493,0.013383865,0,
00:05.0,0.00419426,0.00047493,0.013383865,0,
00:05.0,0.00422287,0.000486374,0.013378143,0,
00:05.0,0.004217148,0.000497818,0.013383865,0,
00:05.0,0.004211426,0.000469208,0.013389587,0,
00:05.0,0.004228592,0.000469208,0.013401031,0,
00:05.1,0.004217148,0.000480652,0.013395309,0,
00:05.1,0.004211426,0.000486374,0.013395309,0,
00:05.1,0.004205704,0.000452042,0.013412476,0,
00:05.1,0.00422287,0.000469208,0.013406754,0,
00:05.1,0.004228592,0.000509262,0.013389587,0,
00:05.1,0.004188538,0.000486374,0.013383865,0,
00:05.1,0.00419426,0.000492096,0.013395309,0,
00:05.1,0.004171371,0.000514984,0.013383865,0,
00:05.1,0.004199982,0.000492096,0.013429642,0,
00:05.1,0.004228592,0.000463486,0.013406754,0,
00:05.1,0.004205704,0.00044632,0.013418198,0,
00:05.1,0.004211426,0.000480652,0.013435364,0,
00:05.1,0.004234314,0.000492096,0.01342392,0,
00:05.1,0.004159927,0.000486374,0.013429642,0,
00:05.1,0.004217148,0.000480652,0.013435364,0,
00:05.1,0.004245758,0.000480652,0.013429642,0,
00:05.1,0.00422287,0.000480652,0.01345253,0,
00:05.1,0.004205704,0.000469208,0.01345253,0,
00:05.1,0.004217148,0.000480652,0.013435364,0,
00:05.1,0.00419426,0.000480652,0.013429642,0,
00:05.1,0.00419426,0.000469208,0.013429642,0,
00:05.1,0.004217148,0.00047493,0.013441086,0,
00:05.1,0.004188538,0.000492096,0.013429642,0,
00:05.1,0.00419426,0.000486374,0.013435364,0,
00:05.1,0.004205704,0.000486374,0.013429642,0,
00:05.2,0.004177094,0.000469208,0.013458252,0,
00:05.2,0.00419426,0.000469208,0.013469696,0,
00:05.2,0.00425148,0.000469208,0.01345253,0,
00:05.2,0.004228592,0.000486374,0.013463974,0,
00:05.2,0.004217148,0.00047493,0.01345253,0,
00:05.2,0.004205704,0.000463486,0.013463974,0,
00:05.2,0.004217148,0.000492096,0.01348114,0,
00:05.2,0.004205704,0.000486374,0.013469696,0,
00:05.2,0.004205704,0.000492096,0.013463974,0,
00:05.2,0.004205704,0.000497818,0.013463974,0,
00:05.2,0.004177094,0.000492096,0.013446808,0,
00:05.2,0.004159927,0.000469208,0.013492584,0,
00:05.2,0.004211426,0.000469208,0.013504028,0,
00:05.2,0.00422287,0.000480652,0.013486862,0,
00:05.2,0.004188538,0.00047493,0.013486862,0,
00:05.2,0.004154205,0.000480652,0.013492584,0,
00:05.2,0.004211426,0.00047493,0.013492584,0,
00:05.2,0.004182816,0.000469208,0.01348114,0,
00:05.2,0.004217148,0.000480652,0.013486862,0,
00:05.2,0.004182816,0.000480652,0.013504028,0,
00:05.2,0.004211426,0.000463486,0.013498306,0,
00:05.2,0.00419426,0.00047493,0.013492584,0,
00:05.2,0.00422287,0.000492096,0.01348114,0,
00:05.2,0.004228592,0.000486374,0.013469696,0,
00:05.2,0.004217148,0.000497818,0.013498306,0,
00:05.3,0.00422287,0.00050354,0.013504028,0,
00:05.3,0.004199982,0.00047493,0.013526917,0,
00:05.3,0.004199982,0.00047493,0.013515472,0,
00:05.3,0.004205704,0.000486374,0.013532639,0,
00:05.3,0.004217148,0.00050354,0.013515472,0,
00:05.3,0.004205704,0.000480652,0.013526917,0,
00:05.3,0.00419426,0.000452042,0.013544083,0,
00:05.3,0.004211426,0.000492096,0.013521194,0,
00:05.3,0.004188538,0.000497818,0.013526917,0,
00:05.3,0.004188538,0.000469208,0.013532639,0,
00:05.3,0.004182816,0.000463486,0.013538361,0,
00:05.3,0.004154205,0.000469208,0.013544083,0,
00:05.3,0.004199982,0.000480652,0.013544083,0,
00:05.3,0.004228592,0.000514984,0.013521194,0,
00:05.3,0.00422287,0.00047493,0.013521194,0,
00:05.3,0.004188538,0.000469208,0.013549805,0,
00:05.3,0.004142761,0.00047493,0.013555527,0,
00:05.3,0.004154205,0.000457764,0.013561249,0,
00:05.3,0.00422287,0.000492096,0.013555527,0,
00:05.3,0.004217148,0.000492096,0.013549805,0,
00:05.3,0.004171371,0.000480652,0.013549805,0,
00:05.3,0.004211426,0.000492096,0.013555527,0,
00:05.3,0.004217148,0.000497818,0.013561249,0,
00:05.3,0.00419426,0.000497818,0.013515472,0,
00:05.3,0.00419426,0.000480652,0.013566971,0,
00:05.4,0.004205704,0.000486374,0.013578415,0,
00:05.4,0.004188538,0.000480652,0.013584137,0,
00:05.4,0.004188538,0.000480652,0.013589859,0,
00:05.4,0.00422287,0.000486374,0.013584137,0,
00:05.4,0.00422287,0.000486374,0.013566971,0,
00:05.4,0.004171371,0.000480652,0.013572693,0,
00:05.4,0.004205704,0.000480652,0.013612747,0,
00:05.4,0.004199982,0.000469208,0.013601303,0,
00:05.4,0.004188538,0.00047493,0.013612747,0,
00:05.4,0.00419426,0.000486374,0.013595581,0,
00:05.4,0.004188538,0.000486374,0.013589859,0,
00:05.4,0.00419426,0.000480652,0.013607025,0,
00:05.4,0.004188538,0.00047493,0.013607025,0,
00:05.4,0.004171371,0.000486374,0.013584137,0,
00:05.4,0.004188538,0.000497818,0.013595581,0,
00:05.4,0.00419426,0.000492096,0.013601303,0,
00:05.4,0.004182816,0.000469208,0.013612747,0,
00:05.4,0.004159927,0.000480652,0.013624191,0,
00:05.4,0.004217148,0.00050354,0.013607025,0,
00:05.4,0.004205704,0.000492096,0.013601303,0,
00:05.4,0.004217148,0.00047493,0.013641357,0,
00:05.4,0.004211426,0.000486374,0.013612747,0,
00:05.4,0.004205704,0.000486374,0.013624191,0,
00:05.4,0.004205704,0.000480652,0.013641357,0,
00:05.4,0.004188538,0.000463486,0.013647079,0,
00:05.5,0.004205704,0.00047493,0.013647079,0,
00:05.5,0.004205704,0.00050354,0.013635635,0,
00:05.5,0.004188538,0.00050354,0.013635635,0,
00:05.5,0.004177094,0.000486374,0.013629913,0,
00:05.5,0.00419426,0.00047493,0.013652802,0,
00:05.5,0.004211426,0.000486374,0.013629913,0,
00:05.5,0.00419426,0.000480652,0.013641357,0,
00:05.5,0.004177094,0.000497818,0.013669968,0,
00:05.5,0.004171371,0.000486374,0.013652802,0,
00:05.5,0.004165649,0.000463486,0.013664246,0,
00:05.5,0.004182816,0.000492096,0.013681412,0,
00:05.5,0.004182816,0.000486374,0.01367569,0,
00:05.5,0.004217148,0.000480652,0.013658524,0,
00:05.5,0.004199982,0.000480652,0.013652802,0,
00:05.5,0.004205704,0.000497818,0.013658524,0,
00:05.5,0.004205704,0.00047493,0.013687134,0,
00:05.5,0.004199982,0.000457764,0.01367569,0,
00:05.5,0.004199982,0.000480652,0.013669968,0,
00:05.5,0.004188538,0.000492096,0.013664246,0,
00:05.5,0.004177094,0.000480652,0.013687134,0,
00:05.5,0.004188538,0.000492096,0.013669968,0,
00:05.5,0.00419426,0.000486374,0.013687134,0,
00:05.5,0.004205704,0.000497818,0.013692856,0,
00:05.5,0.004188538,0.000492096,0.013681412,0,
00:05.5,0.004188538,0.000497818,0.013698578,0,
00:05.6,0.004177094,0.000480652,0.013698578,0,
00:05.6,0.00419426,0.000497818,0.013698578,0,
00:05.6,0.004205704,0.000480652,0.013698578,0,
00:05.6,0.004205704,0.000480652,0.0137043,0,
00:05.6,0.004188538,0.00050354,0.013692856,0,
00:05.6,0.004188538,0.000497818,0.013727188,0,
00:05.6,0.004182816,0.000463486,0.013715744,0,
00:05.6,0.004182816,0.00047493,0.013721466,0,
00:05.6,0.004188538,0.000497818,0.013715744,0,
00:05.6,0.004171371,0.00050354,0.013692856,0,
00:05.6,0.004142761,0.00047493,0.013721466,0,
00:05.6,0.00419426,0.000480652,0.013738632,0,
00:05.6,0.004182816,0.000480652,0.013727188,0,
00:05.6,0.004114151,0.000497818,0.0137043,0,
00:05.6,0.004148483,0.000486374,0.013738632,0,
00:05.6,0.004188538,0.000486374,0.013738632,0,
00:05.6,0.004228592,0.000492096,0.01373291,0,
00:05.6,0.004199982,0.00047493,0.01373291,0,
00:05.6,0.004199982,0.000480652,0.013744354,0,
00:05.6,0.004205704,0.000492096,0.013750076,0,
00:05.6,0.004182816,0.000486374,0.013744354,0,
00:05.6,0.004165649,0.00047493,0.013738632,0,
00:05.6,0.004182816,0.000492096,0.013738632,0,
00:05.6,0.004159927,0.000509262,0.013750076,0,
00:05.6,0.004165649,0.000492096,0.01376152,0,
00:05.7,0.004177094,0.000480652,0.013755798,0,
00:05.7,0.00419426,0.000486374,0.013755798,0,
00:05.7,0.00419426,0.000486374,0.013744354,0,
00:05.7,0.00419426,0.000492096,0.013738632,0,
00:05.7,0.004159927,0.000497818,0.013772964,0,
00:05.7,0.004154205,0.000486374,0.013790131,0,
00:05.7,0.004188538,0.000486374,0.013772964,0,
00:05.7,0.004165649,0.00047493,0.013784409,0,
00:05.7,0.004102707,0.000480652,0.01376152,0,
00:05.7,0.004159927,0.00050354,0.01376152,0,
00:05.7,0.004205704,0.000497818,0.013784409,0,
00:05.7,0.004205704,0.000492096,0.013795853,0,
00:05.7,0.004182816,0.000480652,0.013807297,0,
00:05.7,0.00419426,0.000486374,0.013795853,0,
00:05.7,0.00419426,0.000492096,0.013767242,0,
00:05.7,0.004177094,0.000497818,0.013801575,0,
00:05.7,0.004154205,0.000486374,0.013813019,0,
00:05.7,0.004131317,0.000480652,0.013807297,0,
00:05.7,0.004154205,0.000492096,0.013801575,0,
00:05.7,0.004188538,0.000486374,0.013795853,0,
00:05.7,0.004171371,0.000480652,0.013824463,0,
00:05.7,0.004165649,0.000486374,0.013818741,0,
00:05.7,0.004154205,0.000486374,0.013807297,0,
00:05.7,0.004177094,0.000492096,0.013795853,0,
00:05.7,0.00419426,0.000486374,0.013801575,0,
00:05.8,0.004131317,0.000469208,0.013830185,0,
00:05.8,0.004165649,0.000486374,0.013824463,0,
00:05.8,0.004182816,0.000509262,0.013807297,0,
00:05.8,0.004211426,0.000497818,0.013830185,0,
00:05.8,0.00419426,0.000492096,0.013830185,0,
00:05.8,0.00419426,0.000526428,0.013847351,0,
00:05.8,0.004171371,0.000497818,0.013830185,0,
00:05.8,0.004165649,0.000469208,0.013830185,0,
00:05.8,0.004159927,0.000463486,0.013835907,0,
00:05.8,0.004171371,0.000480652,0.013830185,0,
00:05.8,0.004171371,0.000492096,0.013824463,0,
00:05.8,0.004148483,0.000480652,0.013830185,0,
00:05.8,0.004159927,0.000514984,0.013853073,0,
00:05.8,0.004165649,0.000486374,0.013847351,0,
00:05.8,0.004114151,0.00047493,0.013864517,0,
00:05.8,0.004131317,0.000480652,0.013858795,0,
00:05.8,0.004154205,0.000486374,0.013853073,0,
00:05.8,0.004159927,0.000492096,0.013858795,0,
00:05.8,0.004159927,0.000492096,0.013841629,0,
00:05.8,0.004171371,0.000497818,0.013853073,0,
00:05.8,0.004199982,0.00050354,0.013870239,0,
00:05.8,0.00419426,0.00050354,0.013870239,0,
00:05.8,0.00419426,0.000492096,0.013864517,0,
00:05.8,0.004182816,0.000486374,0.013853073,0,
00:05.8,0.004159927,0.000486374,0.013870239,0,
00:05.9,0.004159927,0.000492096,0.013881683,0,
00:05.9,0.004171371,0.000486374,0.013893127,0,
00:05.9,0.004165649,0.000497818,0.013893127,0,
00:05.9,0.004171371,0.000497818,0.013898849,0,
00:05.9,0.004165649,0.000492096,0.013887405,0,
00:05.9,0.004165649,0.000492096,0.013875961,0,
00:05.9,0.004177094,0.00050354,0.013898849,0,
00:05.9,0.004137039,0.000480652,0.013904572,0,
00:05.9,0.004119873,0.000480652,0.013910294,0,
00:05.9,0.004125595,0.000492096,0.013887405,0,
00:05.9,0.00419426,0.000497818,0.013898849,0,
00:05.9,0.004171371,0.000509262,0.013887405,0,
00:05.9,0.004148483,0.00047493,0.013916016,0,
00:05.9,0.004148483,0.000509262,0.013910294,0,
00:05.9,0.004114151,0.000497818,0.013921738,0,
00:05.9,0.004102707,0.00047493,0.01392746,0,
00:05.9,0.004182816,0.000480652,0.013921738,0,
00:05.9,0.004131317,0.000486374,0.01392746,0,
00:05.9,0.004199982,0.000509262,0.013910294,0,
00:05.9,0.004177094,0.000509262,0.013904572,0,
00:05.9,0.004171371,0.000486374,0.013916016,0,
00:05.9,0.004165649,0.000492096,0.01392746,0,
00:05.9,0.004154205,0.000480652,0.013938904,0,
00:05.9,0.004159927,0.000492096,0.01392746,0,
00:05.9,0.004159927,0.000497818,0.013938904,0,
00:06.0,0.004131317,0.00050354,0.01395607,0,
00:06.0,0.004131317,0.000509262,0.013961792,0,
00:06.0,0.004165649,0.000480652,0.013933182,0,
00:06.0,0.004159927,0.000486374,0.013921738,0,
00:06.0,0.004182816,0.000509262,0.013950348,0,
00:06.0,0.004154205,0.000497818,0.013938904,0,
00:06.0,0.004142761,0.000486374,0.013950348,0,
00:06.0,0.004148483,0.00047493,0.013938904,0,
00:06.0,0.004142761,0.000480652,0.013938904,0,
00:06.0,0.004125595,0.00050354,0.013933182,0,
00:06.0,0.004171371,0.000509262,0.013950348,0,
00:06.0,0.004148483,0.000480652,0.013978958,0,
00:00:06,0.004119873,0.000492096,0.01395607,0,
00:06.0,0.004142761,0.000497818,0.01398468,0,
00:06.0,0.004131317,0.000492096,0.013978958,0,
00:06.0,0.004125595,0.000492096,0.013978958,0,
00:06.0,0.004171371,0.000497818,0.013973236,0,
00:06.0,0.004114151,0.000492096,0.013961792,0,
00:06.0,0.004108429,0.000486374,0.013961792,0,
00:06.0,0.004165649,0.00050354,0.013973236,0,
00:06.0,0.004159927,0.000497818,0.013978958,0,
00:06.0,0.004148483,0.00047493,0.013978958,0,
00:06.0,0.004159927,0.000492096,0.013967514,0,
00:06.0,0.004137039,0.000509262,0.013978958,0,
00:06.0,0.004154205,0.000492096,0.013973236,0,
00:06.1,0.004137039,0.000492096,0.013978958,0,
00:06.1,0.004154205,0.000497818,0.013996124,0,
00:06.1,0.004159927,0.000509262,0.014001846,0,
00:06.1,0.004159927,0.000509262,0.01401329,0,
00:06.1,0.004137039,0.000486374,0.014001846,0,
00:06.1,0.004125595,0.000486374,0.013990402,0,
00:06.1,0.004148483,0.000492096,0.013990402,0,
00:06.1,0.004131317,0.000492096,0.013996124,0,
00:06.1,0.004119873,0.000497818,0.013996124,0,
00:06.1,0.004119873,0.000492096,0.01398468,0,
00:06.1,0.004154205,0.00050354,0.014007568,0,
00:06.1,0.004159927,0.00050354,0.013990402,0,
00:06.1,0.004142761,0.000492096,0.013990402,0,
00:06.1,0.004137039,0.000514984,0.014024734,0,
00:06.1,0.004142761,0.000480652,0.014019012,0,
00:06.1,0.004114151,0.000497818,0.014036179,0,
00:06.1,0.004062653,0.000492096,0.014030457,0,
00:06.1,0.004142761,0.000486374,0.01401329,0,
00:06.1,0.004165649,0.00050354,0.014001846,0,
00:06.1,0.004137039,0.000497818,0.014019012,0,
00:06.1,0.004159927,0.000497818,0.014019012,0,
00:06.1,0.004142761,0.000492096,0.014036179,0,
00:06.1,0.004159927,0.000492096,0.014047623,0,
00:06.1,0.004159927,0.00050354,0.01401329,0,
00:06.1,0.004119873,0.00050354,0.014024734,0,
00:06.2,0.004137039,0.000492096,0.014036179,0,
00:06.2,0.004148483,0.000497818,0.014036179,0,
00:06.2,0.004148483,0.000497818,0.014041901,0,
00:06.2,0.004137039,0.000514984,0.014036179,0,
00:06.2,0.004125595,0.00050354,0.014036179,0,
00:06.2,0.004096985,0.000486374,0.014047623,0,
00:06.2,0.004148483,0.000492096,0.014041901,0,
00:06.2,0.004142761,0.000492096,0.014059067,0,
00:06.2,0.004154205,0.000520706,0.014047623,0,
00:06.2,0.004148483,0.000509262,0.014053345,0,
00:06.2,0.004096985,0.00047493,0.014064789,0,
00:06.2,0.004148483,0.000497818,0.014053345,0,
00:06.2,0.004148483,0.000514984,0.014036179,0,
00:06.2,0.004131317,0.00050354,0.014053345,0,
00:06.2,0.004137039,0.000492096,0.014064789,0,
00:06.2,0.004125595,0.000486374,0.014064789,0,
00:06.2,0.004137039,0.000509262,0.014087677,0,
00:06.2,0.004137039,0.000497818,0.014064789,0,
00:06.2,0.004102707,0.000497818,0.014064789,0,
00:06.2,0.004114151,0.000486374,0.014064789,0,
00:06.2,0.004142761,0.000497818,0.014076233,0,
00:06.2,0.004137039,0.000486374,0.014081955,0,
00:06.2,0.004137039,0.00047493,0.014081955,0,
00:06.2,0.004131317,0.000492096,0.014070511,0,
00:06.2,0.004114151,0.000514984,0.014059067,0,
00:06.3,0.004125595,0.000514984,0.014070511,0,
00:06.3,0.004165649,0.000514984,0.014081955,0,
00:06.3,0.004131317,0.00050354,0.014093399,0,
00:06.3,0.004137039,0.000492096,0.014110565,0,
00:06.3,0.004131317,0.000486374,0.014099121,0,
00:06.3,0.004142761,0.000497818,0.014087677,0,
00:06.3,0.004142761,0.000497818,0.014087677,0,
00:06.3,0.004148483,0.000509262,0.014093399,0,
00:06.3,0.004148483,0.000497818,0.014099121,0,
00:06.3,0.004114151,0.000480652,0.014081955,0,
00:06.3,0.004096985,0.000492096,0.014104843,0,
00:06.3,0.004131317,0.000497818,0.014093399,0,
00:06.3,0.004148483,0.000514984,0.014116287,0,
00:06.3,0.004125595,0.000509262,0.014099121,0,
00:06.3,0.004131317,0.000492096,0.014099121,0,
00:06.3,0.004108429,0.000492096,0.014093399,0,
00:06.3,0.004096985,0.000492096,0.014104843,0,
00:06.3,0.004131317,0.00050354,0.014133453,0,
00:06.3,0.004137039,0.00050354,0.014110565,0,
00:06.3,0.004085541,0.000492096,0.014122009,0,
00:06.3,0.004096985,0.000486374,0.014127731,0,
00:06.3,0.004114151,0.000509262,0.014116287,0,
00:06.3,0.004148483,0.000492096,0.014110565,0,
00:06.3,0.004154205,0.000486374,0.014122009,0,
00:06.3,0.004165649,0.000497818,0.014127731,0,
00:06.4,0.004142761,0.000514984,0.014127731,0,
00:06.4,0.004142761,0.000509262,0.014099121,0,
00:06.4,0.004137039,0.00050354,0.014110565,0,
00:06.4,0.004131317,0.000486374,0.014133453,0,
00:06.4,0.004131317,0.000480652,0.014127731,0,
00:06.4,0.004119873,0.000509262,0.014144897,0,
00:06.4,0.004114151,0.000509262,0.014144897,0,
00:06.4,0.004102707,0.000480652,0.014139175,0,
00:06.4,0.004125595,0.000480652,0.014133453,0,
00:06.4,0.004119873,0.000509262,0.014139175,0,
00:06.4,0.004142761,0.000520706,0.014139175,0,
00:06.4,0.004131317,0.000520706,0.014127731,0,
00:06.4,0.004114151,0.000497818,0.014133453,0,
00:06.4,0.004142761,0.000520706,0.014156342,0,
00:06.4,0.004131317,0.000492096,0.014156342,0,
00:06.4,0.004079819,0.000486374,0.01415062,0,
00:06.4,0.004102707,0.000497818,0.014173508,0,
00:06.4,0.004102707,0.000497818,0.014167786,0,
00:06.4,0.004119873,0.000514984,0.014116287,0,
00:06.4,0.004148483,0.00050354,0.014162064,0,
00:06.4,0.004125595,0.00050354,0.014167786,0,
00:06.4,0.004119873,0.000497818,0.014167786,0,
00:06.4,0.004108429,0.000486374,0.01417923,0,
00:06.4,0.004096985,0.000509262,0.01417923,0,
00:06.4,0.004137039,0.000497818,0.014173508,0,
00:06.5,0.004137039,0.00050354,0.014167786,0,
00:06.5,0.004142761,0.00050354,0.014167786,0,
00:06.5,0.004114151,0.000509262,0.01417923,0,
00:06.5,0.004125595,0.000486374,0.014173508,0,
00:06.5,0.004114151,0.000497818,0.014196396,0,
00:06.5,0.004131317,0.00050354,0.014202118,0,
00:06.5,0.004131317,0.000492096,0.014196396,0,
00:06.5,0.004108429,0.00050354,0.014213562,0,
00:06.5,0.004102707,0.000509262,0.014213562,0,
00:06.5,0.004148483,0.000514984,0.014202118,0,
00:06.5,0.004131317,0.000514984,0.014196396,0,
00:06.5,0.004119873,0.00053215,0.014190674,0,
00:06.5,0.004102707,0.000486374,0.01420784,0,
00:06.5,0.004114151,0.000497818,0.014213562,0,
00:06.5,0.004125595,0.00050354,0.014213562,0,
00:06.5,0.004102707,0.000480652,0.014219284,0,
00:06.5,0.004102707,0.00050354,0.01420784,0,
00:06.5,0.004131317,0.000509262,0.01420784,0,
00:06.5,0.004056931,0.00050354,0.014202118,0,
00:06.5,0.004096985,0.00050354,0.014196396,0,
00:06.5,0.004102707,0.000492096,0.014213562,0,
00:06.5,0.004114151,0.000497818,0.014219284,0,
00:06.5,0.004085541,0.000492096,0.014213562,0,
00:06.5,0.004131317,0.000509262,0.01420784,0,
00:06.5,0.004154205,0.000520706,0.014213562,0,
00:06.6,0.004142761,0.000509262,0.014242172,0,
00:06.6,0.004119873,0.000492096,0.014253616,0,
00:06.6,0.004096985,0.000497818,0.014230728,0,
00:06.6,0.004142761,0.000509262,0.014225006,0,
00:06.6,0.004131317,0.000526428,0.014202118,0,
00:06.6,0.004114151,0.000520706,0.014242172,0,
00:06.6,0.004114151,0.000497818,0.014242172,0,
00:06.6,0.004102707,0.000492096,0.014242172,0,
00:06.6,0.004108429,0.000492096,0.014247894,0,
00:06.6,0.004096985,0.00050354,0.014247894,0,
00:06.6,0.004114151,0.000509262,0.014196396,0,
00:06.6,0.004125595,0.00050354,0.014259338,0,
00:06.6,0.004108429,0.000497818,0.014270782,0,
00:06.6,0.004108429,0.000497818,0.014259338,0,
00:06.6,0.004114151,0.000514984,0.014242172,0,
00:06.6,0.004108429,0.000514984,0.014242172,0,
00:06.6,0.004062653,0.000526428,0.014253616,0,
00:06.6,0.004108429,0.000514984,0.014230728,0,
00:06.6,0.004085541,0.000486374,0.014259338,0,
00:06.6,0.004085541,0.000486374,0.014259338,0,
00:06.6,0.004131317,0.000514984,0.014247894,0,
00:06.6,0.004125595,0.00050354,0.014247894,0,
00:06.6,0.004096985,0.00050354,0.014259338,0,
00:06.6,0.004125595,0.000520706,0.014259338,0,
00:06.6,0.004108429,0.000509262,0.01423645,0,
00:06.7,0.004125595,0.000509262,0.014259338,0,
00:06.7,0.004114151,0.000497818,0.014253616,0,
00:06.7,0.004108429,0.000492096,0.014287949,0,
00:06.7,0.004114151,0.000509262,0.014299393,0,
00:06.7,0.004108429,0.000497818,0.014282227,0,
00:06.7,0.004085541,0.000497818,0.014287949,0,
00:06.7,0.004079819,0.000514984,0.01426506,0,
00:06.7,0.004171371,0.00053215,0.014247894,0,
00:06.7,0.004125595,0.000497818,0.014270782,0,
00:06.7,0.004108429,0.00047493,0.014333725,0,
00:06.7,0.004114151,0.00050354,0.014328003,0,
00:06.7,0.004114151,0.000514984,0.014322281,0,
00:06.7,0.004102707,0.000514984,0.014322281,0,
00:06.7,0.004096985,0.000492096,0.014305115,0,
00:06.7,0.004102707,0.00050354,0.014316559,0,
00:06.7,0.004079819,0.000520706,0.014310837,0,
00:06.7,0.004102707,0.000497818,0.014305115,0,
00:06.7,0.004091263,0.000497818,0.014328003,0,
00:06.7,0.004079819,0.00050354,0.014316559,0,
00:06.7,0.004131317,0.000514984,0.014305115,0,
00:06.7,0.004091263,0.000497818,0.014310837,0,
00:06.7,0.004102707,0.000492096,0.014333725,0,
00:06.7,0.004119873,0.000486374,0.014310837,0,
00:06.7,0.004096985,0.000497818,0.014316559,0,
00:06.7,0.004085541,0.00050354,0.014322281,0,
00:06.8,0.004085541,0.000520706,0.014322281,0,
00:06.8,0.004137039,0.000514984,0.014333725,0,
00:06.8,0.004125595,0.000497818,0.014339447,0,
00:06.8,0.004108429,0.000497818,0.014339447,0,
00:06.8,0.004114151,0.000509262,0.014328003,0,
00:06.8,0.004125595,0.000520706,0.014305115,0,
00:06.8,0.004096985,0.000486374,0.014316559,0,
00:06.8,0.004102707,0.00050354,0.014350891,0,
00:06.8,0.004125595,0.000526428,0.014356613,0,
00:06.8,0.004114151,0.000514984,0.014362335,0,
00:06.8,0.004062653,0.00050354,0.014333725,0,
00:06.8,0.004102707,0.000492096,0.014339447,0,
00:06.8,0.004114151,0.00050354,0.014339447,0,
00:06.8,0.004108429,0.000497818,0.014345169,0,
00:06.8,0.004131317,0.000509262,0.014368057,0,
00:06.8,0.004119873,0.000520706,0.014350891,0,
00:06.8,0.004108429,0.000514984,0.014373779,0,
00:06.8,0.004085541,0.000497818,0.014368057,0,
00:06.8,0.004074097,0.000486374,0.014373779,0,
00:06.8,0.004085541,0.000492096,0.014373779,0,
00:06.8,0.004056931,0.000509262,0.014350891,0,
00:06.8,0.004091263,0.000509262,0.014350891,0,
00:06.8,0.004114151,0.000497818,0.014350891,0,
00:06.8,0.004085541,0.00050354,0.014350891,0,
00:06.8,0.004102707,0.00050354,0.014362335,0,
00:06.9,0.004091263,0.000497818,0.014368057,0,
00:06.9,0.004079819,0.000497818,0.014373779,0,
00:06.9,0.004114151,0.000509262,0.014362335,0,
00:06.9,0.004108429,0.000509262,0.014362335,0,
00:06.9,0.004125595,0.000509262,0.014362335,0,
00:06.9,0.004108429,0.000509262,0.014368057,0,
00:06.9,0.004108429,0.000497818,0.014385223,0,
00:06.9,0.004102707,0.000514984,0.014356613,0,
00:06.9,0.004108429,0.000509262,0.014362335,0,
00:06.9,0.004102707,0.000486374,0.014390945,0,
00:06.9,0.004096985,0.00050354,0.014373779,0,
00:06.9,0.004114151,0.000526428,0.014368057,0,
00:06.9,0.004096985,0.000497818,0.014373779,0,
00:06.9,0.004096985,0.00050354,0.014379501,0,
00:06.9,0.004085541,0.000509262,0.014362335,0,
00:06.9,0.004056931,0.000492096,0.01440239,0,
00:06.9,0.004091263,0.00050354,0.014396667,0,
00:06.9,0.004114151,0.000509262,0.014373779,0,
00:06.9,0.004114151,0.00050354,0.014379501,0,
00:06.9,0.004096985,0.000509262,0.014408112,0,
00:06.9,0.004085541,0.00050354,0.014373779,0,
00:06.9,0.004068375,0.000492096,0.014379501,0,
00:06.9,0.004085541,0.000497818,0.014379501,0,
00:06.9,0.004102707,0.000509262,0.014379501,0,
00:06.9,0.004074097,0.000509262,0.014379501,0,
00:07.0,0.004074097,0.00050354,0.014385223,0,
00:07.0,0.004091263,0.000497818,0.014390945,0,
00:07.0,0.004137039,0.000497818,0.014385223,0,
00:07.0,0.004108429,0.00050354,0.014396667,0,
00:07.0,0.004108429,0.000509262,0.014390945,0,
00:07.0,0.004096985,0.00050354,0.014379501,0,
00:07.0,0.004102707,0.000509262,0.014385223,0,
00:07.0,0.004102707,0.000509262,0.014396667,0,
00:07.0,0.004085541,0.000497818,0.01440239,0,
00:07.0,0.004079819,0.000497818,0.014396667,0,
00:07.0,0.004102707,0.000492096,0.014390945,0,
00:07.0,0.004085541,0.000497818,0.014408112,0,
00:00:07,0.004074097,0.000514984,0.014390945,0,
00:07.0,0.004108429,0.000520706,0.014379501,0,
00:07.0,0.004102707,0.000492096,0.014413834,0,
00:07.0,0.004051208,0.000492096,0.01440239,0,
00:07.0,0.00402832,0.000497818,0.014408112,0,
00:07.0,0.004142761,0.000514984,0.014408112,0,
00:07.0,0.004125595,0.000526428,0.014390945,0,
00:07.0,0.004102707,0.000509262,0.014396667,0,
00:07.0,0.004096985,0.000480652,0.01440239,0,
00:07.0,0.004085541,0.000509262,0.01440239,0,
00:07.0,0.004074097,0.000497818,0.01440239,0,
00:07.0,0.004091263,0.00050354,0.014408112,0,
00:07.0,0.004062653,0.000480652,0.014419556,0,
00:07.1,0.004091263,0.000497818,0.014413834,0,
00:07.1,0.004114151,0.00050354,0.014413834,0,
00:07.1,0.004079819,0.000492096,0.014413834,0,
00:07.1,0.004062653,0.000509262,0.014413834,0,
00:07.1,0.004074097,0.000514984,0.014425278,0,
00:07.1,0.004091263,0.00050354,0.014425278,0,
00:07.1,0.004108429,0.00050354,0.01440239,0,
00:07.1,0.004096985,0.00050354,0.014408112,0,
00:07.1,0.004096985,0.000514984,0.014419556,0,
00:07.1,0.004079819,0.000492096,0.014413834,0,
00:07.1,0.004108429,0.000509262,0.014413834,0,
00:07.1,0.004091263,0.000514984,0.014413834,0,
00:07.1,0.004074097,0.000514984,0.014425278,0,
00:07.1,0.004085541,0.000509262,0.014413834,0,
00:07.1,0.004062653,0.000492096,0.014442444,0,
00:07.1,0.004085541,0.000492096,0.014442444,0,
00:07.1,0.004079819,0.00050354,0.014431,0,
00:07.1,0.004062653,0.000526428,0.014425278,0,
00:07.1,0.004102707,0.000520706,0.014453888,0,
00:07.1,0.004096985,0.000509262,0.014425278,0,
00:07.1,0.004056931,0.000497818,0.014413834,0,
00:07.1,0.004079819,0.00050354,0.014408112,0,
00:07.1,0.004074097,0.000486374,0.014448166,0,
00:07.1,0.004074097,0.000492096,0.014436722,0,
00:07.1,0.004096985,0.00050354,0.014448166,0,
00:07.2,0.004085541,0.000509262,0.014448166,0,
00:07.2,0.004085541,0.000509262,0.014431,0,
00:07.2,0.004085541,0.000497818,0.014419556,0,
00:07.2,0.004091263,0.00050354,0.014436722,0,
00:07.2,0.004074097,0.00050354,0.014419556,0,
00:07.2,0.004074097,0.000514984,0.014431,0,
00:07.2,0.004091263,0.000520706,0.014431,0,
00:07.2,0.004091263,0.000497818,0.014419556,0,
00:07.2,0.004102707,0.000514984,0.014436722,0,
00:07.2,0.004085541,0.00050354,0.014442444,0,
00:07.2,0.004079819,0.000497818,0.014476776,0,
00:07.2,0.004091263,0.000520706,0.01445961,0,
00:07.2,0.004085541,0.00053215,0.014448166,0,
00:07.2,0.004085541,0.000480652,0.014448166,0,
00:07.2,0.004085541,0.000492096,0.014436722,0,
00:07.2,0.004085541,0.000520706,0.014442444,0,
00:07.2,0.004079819,0.000509262,0.014465332,0,
00:07.2,0.004062653,0.000480652,0.01445961,0,
00:07.2,0.004045486,0.000497818,0.01445961,0,
00:07.2,0.004096985,0.000526428,0.014453888,0,
00:07.2,0.004085541,0.000514984,0.014436722,0,
00:07.2,0.004068375,0.000514984,0.014425278,0,
00:07.2,0.004011154,0.000492096,0.014453888,0,
00:07.2,0.00402832,0.000486374,0.014465332,0,
00:07.2,0.004079819,0.000497818,0.014436722,0,
00:07.3,0.004091263,0.00050354,0.014465332,0,
00:07.3,0.004119873,0.000526428,0.014471054,0,
00:07.3,0.004062653,0.00050354,0.01445961,0,
00:07.3,0.004079819,0.00050354,0.014453888,0,
00:07.3,0.004108429,0.00050354,0.014448166,0,
00:07.3,0.004074097,0.000497818,0.014448166,0,
00:07.3,0.004096985,0.000514984,0.014453888,0,
00:07.3,0.004091263,0.000497818,0.014453888,0,
00:07.3,0.004085541,0.00050354,0.014453888,0,
00:07.3,0.004085541,0.000520706,0.014453888,0,
00:07.3,0.004062653,0.00050354,0.014471054,0,
00:07.3,0.004056931,0.000520706,0.01445961,0,
00:07.3,0.004056931,0.000514984,0.014448166,0,
00:07.3,0.004074097,0.000497818,0.014471054,0,
00:07.3,0.004085541,0.000509262,0.014476776,0,
00:07.3,0.004085541,0.000509262,0.014471054,0,
00:07.3,0.004091263,0.000514984,0.014453888,0,
00:07.3,0.004079819,0.000520706,0.01445961,0,
00:07.3,0.00402832,0.000497818,0.014471054,0,
00:07.3,0.004056931,0.000537872,0.014453888,0,
00:07.3,0.004108429,0.000526428,0.014471054,0,
00:07.3,0.004056931,0.000492096,0.01445961,0,
00:07.3,0.004045486,0.000486374,0.014442444,0,
00:07.3,0.004062653,0.000492096,0.01448822,0,
00:07.3,0.004074097,0.00050354,0.014511108,0,
00:07.4,0.004022598,0.00050354,0.014493942,0,
00:07.4,0.00402832,0.00050354,0.014471054,0,
00:07.4,0.004085541,0.000497818,0.014482498,0,
00:07.4,0.004051208,0.00050354,0.014471054,0,
00:07.4,0.004085541,0.000514984,0.014465332,0,
00:07.4,0.004085541,0.000514984,0.014476776,0,
00:07.4,0.004079819,0.000514984,0.014493942,0,
00:07.4,0.004056931,0.000509262,0.014482498,0,
00:07.4,0.004062653,0.000520706,0.014482498,0,
00:07.4,0.004074097,0.000526428,0.014493942,0,
00:07.4,0.004085541,0.000509262,0.014511108,0,
00:07.4,0.004079819,0.000486374,0.014476776,0,
00:07.4,0.004068375,0.000497818,0.01448822,0,
00:07.4,0.004079819,0.000497818,0.014499664,0,
00:07.4,0.004056931,0.00050354,0.014505386,0,
00:07.4,0.004085541,0.000526428,0.01448822,0,
00:07.4,0.004079819,0.000514984,0.014493942,0,
00:07.4,0.004068375,0.00050354,0.014493942,0,
00:07.4,0.004074097,0.000509262,0.014505386,0,
00:07.4,0.004062653,0.000520706,0.014499664,0,
00:07.4,0.004051208,0.00050354,0.014493942,0,
00:07.4,0.004068375,0.000514984,0.014482498,0,
00:07.4,0.004056931,0.000497818,0.014476776,0,
00:07.4,0.004034042,0.000492096,0.014522552,0,
00:07.4,0.004045486,0.000514984,0.014505386,0,
00:07.5,0.004079819,0.000514984,0.014482498,0,
00:07.5,0.004074097,0.00050354,0.014482498,0,
00:07.5,0.004074097,0.000497818,0.01448822,0,
00:07.5,0.004051208,0.000497818,0.01451683,0,
00:07.5,0.004068375,0.000514984,0.014528275,0,
00:07.5,0.00399971,0.00050354,0.01451683,0,
00:07.5,0.004045486,0.00050354,0.014511108,0,
00:07.5,0.004045486,0.000520706,0.014493942,0,
00:07.5,0.004091263,0.000509262,0.014482498,0,
00:07.5,0.004096985,0.000514984,0.014493942,0,
00:07.5,0.004074097,0.000497818,0.014511108,0,
00:07.5,0.004045486,0.000497818,0.01451683,0,
00:07.5,0.004079819,0.000514984,0.01451683,0,
00:07.5,0.004068375,0.000526428,0.01451683,0,
00:07.5,0.004079819,0.000520706,0.014505386,0,
00:07.5,0.004039764,0.000492096,0.01451683,0,
00:07.5,0.004034042,0.000497818,0.014528275,0,
00:07.5,0.004051208,0.00050354,0.014522552,0,
00:07.5,0.004062653,0.000497818,0.014528275,0,
00:07.5,0.004062653,0.000509262,0.01451683,0,
00:07.5,0.004085541,0.000520706,0.014511108,0,
00:07.5,0.004062653,0.000509262,0.014522552,0,
00:07.5,0.004051208,0.000509262,0.014522552,0,
00:07.5,0.00402832,0.000514984,0.014499664,0,
00:07.5,0.004039764,0.00050354,0.014505386,0,
00:07.6,0.004079819,0.00050354,0.014522552,0,
00:07.6,0.004074097,0.00050354,0.014528275,0,
00:07.6,0.004051208,0.000497818,0.014522552,0,
00:07.6,0.004062653,0.000509262,0.014533997,0,
00:07.6,0.004062653,0.00050354,0.014533997,0,
00:07.6,0.004045486,0.000492096,0.014539719,0,
00:07.6,0.004056931,0.00050354,0.014545441,0,
00:07.6,0.004056931,0.000514984,0.014539719,0,
00:07.6,0.004034042,0.000526428,0.014528275,0,
00:07.6,0.004051208,0.00050354,0.014539719,0,
00:07.6,0.004068375,0.000509262,0.014522552,0,
00:07.6,0.004051208,0.000509262,0.014533997,0,
00:07.6,0.004062653,0.00050354,0.014562607,0,
00:07.6,0.004056931,0.00050354,0.014556885,0,
00:07.6,0.004045486,0.000509262,0.014556885,0,
00:07.6,0.004051208,0.000497818,0.014562607,0,
00:07.6,0.004045486,0.000514984,0.014551163,0,
00:07.6,0.004022598,0.000509262,0.014556885,0,
00:07.6,0.004062653,0.00050354,0.014551163,0,
00:07.6,0.004079819,0.000509262,0.014539719,0,
00:07.6,0.004056931,0.000514984,0.014545441,0,
00:07.6,0.004062653,0.00053215,0.014545441,0,
00:07.6,0.004056931,0.000514984,0.014568329,0,
00:07.6,0.004051208,0.000486374,0.014545441,0,
00:07.6,0.004051208,0.00050354,0.014551163,0,
00:07.7,0.004051208,0.00050354,0.014556885,0,
00:07.7,0.004039764,0.000509262,0.014551163,0,
00:07.7,0.004034042,0.00050354,0.014574051,0,
00:07.7,0.004056931,0.000492096,0.014568329,0,
00:07.7,0.004022598,0.000497818,0.014545441,0,
00:07.7,0.004039764,0.000509262,0.014545441,0,
00:07.7,0.003988266,0.000497818,0.014545441,0,
00:07.7,0.004074097,0.000509262,0.014574051,0,
00:07.7,0.004045486,0.000520706,0.014568329,0,
00:07.7,0.004074097,0.000526428,0.014551163,0,
00:07.7,0.004045486,0.000514984,0.014568329,0,
00:07.7,0.004016876,0.000509262,0.014551163,0,
00:07.7,0.004074097,0.00050354,0.014551163,0,
00:07.7,0.004051208,0.000509262,0.014562607,0,
00:07.7,0.004034042,0.000492096,0.014574051,0,
00:07.7,0.004074097,0.00050354,0.014562607,0,
00:07.7,0.004068375,0.00050354,0.014579773,0,
00:07.7,0.004062653,0.000520706,0.014556885,0,
00:07.7,0.004062653,0.000520706,0.014556885,0,
00:07.7,0.004056931,0.000520706,0.014591217,0,
00:07.7,0.004045486,0.000520706,0.014568329,0,
00:07.7,0.004034042,0.000497818,0.014562607,0,
00:07.7,0.004051208,0.00050354,0.014574051,0,
00:07.7,0.004051208,0.000486374,0.014591217,0,
00:07.7,0.004051208,0.00050354,0.014579773,0,
00:07.8,0.004039764,0.000520706,0.014568329,0,
00:07.8,0.004056931,0.000509262,0.014562607,0,
00:07.8,0.004011154,0.000486374,0.014562607,0,
00:07.8,0.004011154,0.000497818,0.014574051,0,
00:07.8,0.004039764,0.000509262,0.014579773,0,
00:07.8,0.003982544,0.000497818,0.014585495,0,
00:07.8,0.004085541,0.000514984,0.014551163,0,
00:07.8,0.004079819,0.000520706,0.014574051,0,
00:07.8,0.004045486,0.000514984,0.014574051,0,
00:07.8,0.004051208,0.00050354,0.014551163,0,
00:07.8,0.004039764,0.000492096,0.014579773,0,
00:07.8,0.004039764,0.00050354,0.014579773,0,
00:07.8,0.004051208,0.000520706,0.014585495,0,
00:07.8,0.004045486,0.000526428,0.014579773,0,
00:07.8,0.004079819,0.000514984,0.014574051,0,
00:07.8,0.004039764,0.00050354,0.014574051,0,
00:07.8,0.004051208,0.000526428,0.014574051,0,
00:07.8,0.004051208,0.000514984,0.014562607,0,
00:07.8,0.004045486,0.000497818,0.014574051,0,
00:07.8,0.004056931,0.00050354,0.014596939,0,
00:07.8,0.004056931,0.000492096,0.014579773,0,
00:07.8,0.004034042,0.000514984,0.014539719,0,
00:07.8,0.004011154,0.000514984,0.014596939,0,
00:07.8,0.00402832,0.000497818,0.014608383,0,
00:07.8,0.004011154,0.00050354,0.014591217,0,
00:07.9,0.003982544,0.000520706,0.014568329,0,
00:07.9,0.004056931,0.000509262,0.014574051,0,
00:07.9,0.004091263,0.00050354,0.014574051,0,
00:07.9,0.004068375,0.000492096,0.014585495,0,
00:07.9,0.00402832,0.000509262,0.014574051,0,
00:07.9,0.004051208,0.000514984,0.014556885,0,
00:07.9,0.004062653,0.000509262,0.014579773,0,
00:07.9,0.004056931,0.000520706,0.014568329,0,
00:07.9,0.004051208,0.000509262,0.014556885,0,
00:07.9,0.00402832,0.00050354,0.014585495,0,
00:07.9,0.004039764,0.000509262,0.014608383,0,
00:07.9,0.004034042,0.00050354,0.014596939,0,
00:07.9,0.004056931,0.000509262,0.014591217,0,
00:07.9,0.004056931,0.00050354,0.014574051,0,
00:07.9,0.004051208,0.000509262,0.014591217,0,
00:07.9,0.004045486,0.000537872,0.014579773,0,
00:07.9,0.004039764,0.000509262,0.014585495,0,
00:07.9,0.004034042,0.00050354,0.014591217,0,
00:07.9,0.004039764,0.00050354,0.014602661,0,
00:07.9,0.004022598,0.000497818,0.014596939,0,
00:07.9,0.004011154,0.000497818,0.014568329,0,
00:07.9,0.004016876,0.000509262,0.014608383,0,
00:07.9,0.00402832,0.000509262,0.014596939,0,
00:07.9,0.004022598,0.000514984,0.014574051,0,
00:07.9,0.003988266,0.00050354,0.014591217,0,
00:08.0,0.004074097,0.000509262,0.014562607,0,
00:08.0,0.004056931,0.00050354,0.014614105,0,
00:08.0,0.004074097,0.000514984,0.014614105,0,
00:08.0,0.004056931,0.00050354,0.014608383,0,
00:08.0,0.004051208,0.000509262,0.014591217,0,
00:08.0,0.004045486,0.000514984,0.014591217,0,
00:08.0,0.004034042,0.00050354,0.014585495,0,
00:08.0,0.00402832,0.00050354,0.014562607,0,
00:08.0,0.004039764,0.000526428,0.014596939,0,
00:08.0,0.004039764,0.000520706,0.014608383,0,
00:08.0,0.004045486,0.00050354,0.014614105,0,
00:08.0,0.004045486,0.000514984,0.014602661,0,
00:00:08,0.00399971,0.000486374,0.014596939,0,
00:08.0,0.00402832,0.000497818,0.014596939,0,
00:08.0,0.003953934,0.000537872,0.014602661,0,
00:08.0,0.004011154,0.00050354,0.014614105,0,
00:08.0,0.004102707,0.00050354,0.014619827,0,
00:08.0,0.004062653,0.000486374,0.014596939,0,
00:08.0,0.004051208,0.00050354,0.014608383,0,
00:08.0,0.004016876,0.000492096,0.014602661,0,
00:08.0,0.003988266,0.00050354,0.014608383,0,
00:08.0,0.00402832,0.000509262,0.014614105,0,
00:08.0,0.004045486,0.000509262,0.014614105,0,
00:08.0,0.004039764,0.00050354,0.014591217,0,
00:08.0,0.00402832,0.00050354,0.014608383,0,
00:08.1,0.004016876,0.000514984,0.014608383,0,
00:08.1,0.004062653,0.000520706,0.014602661,0,
00:08.1,0.00402832,0.000520706,0.014596939,0,
00:08.1,0.004051208,0.00050354,0.014608383,0,
00:08.1,0.004056931,0.000526428,0.014602661,0,
00:08.1,0.004062653,0.000509262,0.014631271,0,
00:08.1,0.003988266,0.00050354,0.014631271,0,
00:08.1,0.004005432,0.000514984,0.014602661,0,
00:08.1,0.004051208,0.00050354,0.014614105,0,
00:08.1,0.004045486,0.00050354,0.014591217,0,
00:08.1,0.00402832,0.000497818,0.014585495,0,
00:08.1,0.00402832,0.000480652,0.014608383,0,
00:08.1,0.004034042,0.000509262,0.014608383,0,
00:08.1,0.004034042,0.000514984,0.014608383,0,
00:08.1,0.003988266,0.000514984,0.014619827,0,
00:08.1,0.003965378,0.000509262,0.014625549,0,
00:08.1,0.004011154,0.00050354,0.014619827,0,
00:08.1,0.004045486,0.000509262,0.014608383,0,
00:08.1,0.004068375,0.000514984,0.014596939,0,
00:08.1,0.004039764,0.000497818,0.014596939,0,
00:08.1,0.00402832,0.000514984,0.014619827,0,
00:08.1,0.004039764,0.000514984,0.014614105,0,
00:08.1,0.004051208,0.00050354,0.014619827,0,
00:08.1,0.004022598,0.000486374,0.014625549,0,
00:08.1,0.004005432,0.00050354,0.014602661,0,
00:08.2,0.004034042,0.000509262,0.014596939,0,
00:08.2,0.004051208,0.000509262,0.014619827,0,
00:08.2,0.004039764,0.000514984,0.014619827,0,
00:08.2,0.004016876,0.00050354,0.014608383,0,
00:08.2,0.004022598,0.000509262,0.014636993,0,
00:08.2,0.004011154,0.000509262,0.014602661,0,
00:08.2,0.004034042,0.000520706,0.014636993,0,
00:08.2,0.004039764,0.000543594,0.014625549,0,
00:08.2,0.004011154,0.000486374,0.014619827,0,
00:08.2,0.004022598,0.000486374,0.014608383,0,
00:08.2,0.004011154,0.00050354,0.014608383,0,
00:08.2,0.003993988,0.00050354,0.014631271,0,
00:08.2,0.004051208,0.000520706,0.014619827,0,
00:08.2,0.004039764,0.000509262,0.014614105,0,
00:08.2,0.00399971,0.00050354,0.014625549,0,
00:08.2,0.003988266,0.000514984,0.014636993,0,
00:08.2,0.003959656,0.000492096,0.014631271,0,
00:08.2,0.00402832,0.000509262,0.014625549,0,
00:08.2,0.00402832,0.00050354,0.014631271,0,
00:08.2,0.004051208,0.000509262,0.014614105,0,
00:08.2,0.004034042,0.000520706,0.014614105,0,
00:08.2,0.004022598,0.000509262,0.014608383,0,
00:08.2,0.00402832,0.00050354,0.014614105,0,
00:08.2,0.004034042,0.000514984,0.014619827,0,
00:08.2,0.004016876,0.000509262,0.014614105,0,
00:08.3,0.003976822,0.000514984,0.014614105,0,
00:08.3,0.004022598,0.000520706,0.014596939,0,
00:08.3,0.00402832,0.000514984,0.014619827,0,
00:08.3,0.003982544,0.000486374,0.014608383,0,
00:08.3,0.00399971,0.000497818,0.014608383,0,
00:08.3,0.004022598,0.000497818,0.01465416,0,
00:08.3,0.00402832,0.000509262,0.014642715,0,
00:08.3,0.004011154,0.00050354,0.014636993,0,
00:08.3,0.004011154,0.00050354,0.014608383,0,
00:08.3,0.00402832,0.000514984,0.014602661,0,
00:08.3,0.004022598,0.000520706,0.014625549,0,
00:08.3,0.00399971,0.000520706,0.014625549,0,
00:08.3,0.003993988,0.00050354,0.014631271,0,
00:08.3,0.004016876,0.000509262,0.014625549,0,
00:08.3,0.00399971,0.000514984,0.014619827,0,
00:08.3,0.004016876,0.000509262,0.014619827,0,
00:08.3,0.004011154,0.00050354,0.014625549,0,
00:08.3,0.004016876,0.000509262,0.014631271,0,
00:08.3,0.004016876,0.00050354,0.014619827,0,
00:08.3,0.00399971,0.000509262,0.014608383,0,
00:08.3,0.004011154,0.000514984,0.014631271,0,
00:08.3,0.004005432,0.00050354,0.014614105,0,
00:08.3,0.004005432,0.000497818,0.014636993,0,
00:08.3,0.003959656,0.000497818,0.01465416,0,
00:08.3,0.003925323,0.000492096,0.01465416,0,
00:08.4,0.003988266,0.000520706,0.014625549,0,
00:08.4,0.004062653,0.00053215,0.014602661,0,
00:08.4,0.004005432,0.000509262,0.014619827,0,
00:08.4,0.003993988,0.00050354,0.014648438,0,
00:08.4,0.003993988,0.00050354,0.014614105,0,
00:08.4,0.004034042,0.000520706,0.014619827,0,
00:08.4,0.00402832,0.000520706,0.014636993,0,
00:08.4,0.004005432,0.00050354,0.014625549,0,
00:08.4,0.003993988,0.000492096,0.014631271,0,
00:08.4,0.00399971,0.00050354,0.014642715,0,
00:08.4,0.00399971,0.000497818,0.014636993,0,
00:08.4,0.00399971,0.000509262,0.014648438,0,
00:08.4,0.003982544,0.000497818,0.014642715,0,
00:08.4,0.003993988,0.000492096,0.014642715,0,
00:08.4,0.004011154,0.00050354,0.014631271,0,
00:08.4,0.003993988,0.000514984,0.014642715,0,
00:08.4,0.004005432,0.00053215,0.014636993,0,
00:08.4,0.003988266,0.000520706,0.014636993,0,
00:08.4,0.0039711,0.00050354,0.014642715,0,
00:08.4,0.003993988,0.000509262,0.014636993,0,
00:08.4,0.00399971,0.000492096,0.014619827,0,
00:08.4,0.003976822,0.000497818,0.014642715,0,
00:08.4,0.004016876,0.000514984,0.014614105,0,
00:08.4,0.004005432,0.000514984,0.014636993,0,
00:08.4,0.00399971,0.000497818,0.014648438,0,
00:08.5,0.004011154,0.000497818,0.01465416,0,
00:08.5,0.004016876,0.000520706,0.014625549,0,
00:08.5,0.004011154,0.000514984,0.014642715,0,
00:08.5,0.004011154,0.000509262,0.014648438,0,
00:08.5,0.003976822,0.000497818,0.014665604,0,
00:08.5,0.003965378,0.00050354,0.014648438,0,
00:08.5,0.004005432,0.00050354,0.014636993,0,
00:08.5,0.0039711,0.000497818,0.014631271,0,
00:08.5,0.003965378,0.000509262,0.01465416,0,
00:08.5,0.004011154,0.000497818,0.01465416,0,
00:08.5,0.004005432,0.00050354,0.014642715,0,
00:08.5,0.004005432,0.00050354,0.014648438,0,
00:08.5,0.004022598,0.000514984,0.014636993,0,
00:08.5,0.003948212,0.000509262,0.014631271,0,
00:08.5,0.003982544,0.000509262,0.014636993,0,
00:08.5,0.004022598,0.000509262,0.014636993,0,
00:08.5,0.00399971,0.000509262,0.014619827,0,
00:08.5,0.003993988,0.000520706,0.014631271,0,
00:08.5,0.004005432,0.000492096,0.014642715,0,
00:08.5,0.003993988,0.000497818,0.01465416,0,
00:08.5,0.00399971,0.000514984,0.014659882,0,
00:08.5,0.00399971,0.00050354,0.014636993,0,
00:08.5,0.00399971,0.00050354,0.014625549,0,
00:08.5,0.003993988,0.000514984,0.014614105,0,
00:08.5,0.003982544,0.000526428,0.014636993,0,
00:08.6,0.003965378,0.000492096,0.01465416,0,
00:08.6,0.004005432,0.000509262,0.01465416,0,
00:08.6,0.00399971,0.000514984,0.014642715,0,
00:08.6,0.003965378,0.000492096,0.014642715,0,
00:08.6,0.003953934,0.000492096,0.01465416,0,
00:08.6,0.004005432,0.000520706,0.014648438,0,
00:08.6,0.004034042,0.000514984,0.014636993,0,
00:08.6,0.003988266,0.000514984,0.014642715,0,
00:08.6,0.003936768,0.000497818,0.014642715,0,
00:08.6,0.0039711,0.000492096,0.014648438,0,
00:08.6,0.004034042,0.000497818,0.014642715,0,
00:08.6,0.00399971,0.000497818,0.014648438,0,
00:08.6,0.0039711,0.000509262,0.014648438,0,
00:08.6,0.00399971,0.000509262,0.014648438,0,
00:08.6,0.004005432,0.000520706,0.014636993,0,
00:08.6,0.004005432,0.000492096,0.014642715,0,
00:08.6,0.003993988,0.00050354,0.014631271,0,
00:08.6,0.00399971,0.000526428,0.014602661,0,
00:08.6,0.003976822,0.000509262,0.014642715,0,
00:08.6,0.003965378,0.000492096,0.014665604,0,
00:08.6,0.003982544,0.000492096,0.014659882,0,
00:08.6,0.003982544,0.000514984,0.01465416,0,
00:08.6,0.003965378,0.00053215,0.014631271,0,
00:08.6,0.00399971,0.000509262,0.014648438,0,
00:08.6,0.004011154,0.000497818,0.014659882,0,
00:08.7,0.004005432,0.000486374,0.014636993,0,
00:08.7,0.003976822,0.000492096,0.014614105,0,
00:08.7,0.003965378,0.00050354,0.014636993,0,
00:08.7,0.0039711,0.00050354,0.014659882,0,
00:08.7,0.003988266,0.00050354,0.014665604,0,
00:08.7,0.003988266,0.00050354,0.014659882,0,
00:08.7,0.004005432,0.000509262,0.014648438,0,
00:08.7,0.003965378,0.000509262,0.014648438,0,
00:08.7,0.003988266,0.00050354,0.014648438,0,
00:08.7,0.003988266,0.000492096,0.014642715,0,
00:08.7,0.003988266,0.000509262,0.014636993,0,
00:08.7,0.003993988,0.000514984,0.014659882,0,
00:08.7,0.003982544,0.000492096,0.014648438,0,
00:08.7,0.003988266,0.000492096,0.014648438,0,
00:08.7,0.0039711,0.000480652,0.014648438,0,
00:08.7,0.003988266,0.000497818,0.014648438,0,
00:08.7,0.003993988,0.000520706,0.014636993,0,
00:08.7,0.003988266,0.000509262,0.014631271,0,
00:08.7,0.003993988,0.00050354,0.014631271,0,
00:08.7,0.003993988,0.000509262,0.014614105,0,
00:08.7,0.003959656,0.000509262,0.014619827,0,
00:08.7,0.00399971,0.000509262,0.014659882,0,
00:08.7,0.003959656,0.000480652,0.014665604,0,
00:08.7,0.003976822,0.000497818,0.014642715,0,
00:08.7,0.004005432,0.000497818,0.014659882,0,
00:08.8,0.003988266,0.000514984,0.014659882,0,
00:08.8,0.003988266,0.00050354,0.014648438,0,
00:08.8,0.003965378,0.000497818,0.014642715,0,
00:08.8,0.003925323,0.000486374,0.014636993,0,
00:08.8,0.003953934,0.000486374,0.01465416,0,
00:08.8,0.003988266,0.000520706,0.014648438,0,
00:08.8,0.003965378,0.000520706,0.014648438,0,
00:08.8,0.004011154,0.000497818,0.014648438,0,
00:08.8,0.004016876,0.000509262,0.014659882,0,
00:08.8,0.003988266,0.000492096,0.014648438,0,
00:08.8,0.0039711,0.000497818,0.014648438,0,
00:08.8,0.003976822,0.000497818,0.01465416,0,
00:08.8,0.00399971,0.00050354,0.014642715,0,
00:08.8,0.003982544,0.000492096,0.014619827,0,
00:08.8,0.0039711,0.000486374,0.014642715,0,
00:08.8,0.003965378,0.000509262,0.014648438,0,
00:08.8,0.003993988,0.000497818,0.014636993,0,
00:08.8,0.003988266,0.000497818,0.014642715,0,
00:08.8,0.003988266,0.00050354,0.014648438,0,
00:08.8,0.003953934,0.000509262,0.014648438,0,
00:08.8,0.003988266,0.000509262,0.014648438,0,
00:08.8,0.00399971,0.000514984,0.014631271,0,
00:08.8,0.003988266,0.000514984,0.014648438,0,
00:08.8,0.003965378,0.000520706,0.014659882,0,
00:08.8,0.003925323,0.000497818,0.014665604,0,
00:08.9,0.003988266,0.000492096,0.014625549,0,
00:08.9,0.00402832,0.00050354,0.014614105,0,
00:08.9,0.003982544,0.000492096,0.014642715,0,
00:08.9,0.0039711,0.000497818,0.01465416,0,
00:08.9,0.00399971,0.00050354,0.014659882,0,
00:08.9,0.003965378,0.000486374,0.01465416,0,
00:08.9,0.003976822,0.000509262,0.01465416,0,
00:08.9,0.003982544,0.000509262,0.01465416,0,
00:08.9,0.003965378,0.000497818,0.014648438,0,
00:08.9,0.00394249,0.00050354,0.014659882,0,
00:08.9,0.003965378,0.000509262,0.01465416,0,
00:08.9,0.003982544,0.00050354,0.014659882,0,
00:08.9,0.003976822,0.000480652,0.01465416,0,
00:08.9,0.003982544,0.000486374,0.014642715,0,
00:08.9,0.003988266,0.00050354,0.014631271,0,
00:08.9,0.003976822,0.000497818,0.014671326,0,
00:08.9,0.003965378,0.000497818,0.014665604,0,
00:08.9,0.0039711,0.000509262,0.01465416,0,
00:08.9,0.0039711,0.00050354,0.014648438,0,
00:08.9,0.003993988,0.00050354,0.014636993,0,
00:08.9,0.003993988,0.000514984,0.014642715,0,
00:08.9,0.003993988,0.000514984,0.014648438,0,
00:08.9,0.003982544,0.000514984,0.014636993,0,
00:08.9,0.0039711,0.000509262,0.014642715,0,
00:08.9,0.003976822,0.000492096,0.014659882,0,
00:09.0,0.003988266,0.00050354,0.014665604,0,
00:09.0,0.003982544,0.000497818,0.014677048,0,
00:09.0,0.003982544,0.000480652,0.014665604,0,
00:09.0,0.00394249,0.000486374,0.014648438,0,
00:09.0,0.00394249,0.00050354,0.014642715,0,
00:09.0,0.0039711,0.000509262,0.01465416,0,
00:09.0,0.003993988,0.000509262,0.014665604,0,
00:09.0,0.00399971,0.000509262,0.014648438,0,
00:09.0,0.003982544,0.00050354,0.01465416,0,
00:09.0,0.003982544,0.000492096,0.014659882,0,
00:09.0,0.003988266,0.000514984,0.014642715,0,
00:09.0,0.003953934,0.00050354,0.01465416,0,
00:00:09,0.003953934,0.000480652,0.014659882,0,
00:09.0,0.0039711,0.000486374,0.01465416,0,
00:09.0,0.0039711,0.000509262,0.014665604,0,
00:09.0,0.0039711,0.00050354,0.014665604,0,
00:09.0,0.003982544,0.000497818,0.01465416,0,
00:09.0,0.003959656,0.000492096,0.014659882,0,
00:09.0,0.0039711,0.000497818,0.014671326,0,
00:09.0,0.0039711,0.00050354,0.014642715,0,
00:09.0,0.003965378,0.000520706,0.014648438,0,
00:09.0,0.003988266,0.00050354,0.014659882,0,
00:09.0,0.003959656,0.000492096,0.014659882,0,
00:09.0,0.003959656,0.000509262,0.014659882,0,
00:09.0,0.004005432,0.000514984,0.014642715,0,
00:09.1,0.003988266,0.000497818,0.014665604,0,
00:09.1,0.003988266,0.000497818,0.01465416,0,
00:09.1,0.003988266,0.000492096,0.01465416,0,
00:09.1,0.003988266,0.00050354,0.01465416,0,
00:09.1,0.003993988,0.000520706,0.014642715,0,
00:09.1,0.003965378,0.000486374,0.014671326,0,
00:09.1,0.003976822,0.000492096,0.014665604,0,
00:09.1,0.003976822,0.00050354,0.014665604,0,
00:09.1,0.003953934,0.00050354,0.014648438,0,
00:09.1,0.004016876,0.000492096,0.014671326,0,
00:09.1,0.0039711,0.000492096,0.01465416,0,
00:09.1,0.003965378,0.000497818,0.014659882,0,
00:09.1,0.00394249,0.000497818,0.014677048,0,
00:09.1,0.0039711,0.000497818,0.014665604,0,
00:09.1,0.003988266,0.000486374,0.014665604,0,
00:09.1,0.003976822,0.000509262,0.014659882,0,
00:09.1,0.0039711,0.000509262,0.01465416,0,
00:09.1,0.003953934,0.000497818,0.014648438,0,
00:09.1,0.004011154,0.000497818,0.014648438,0,
00:09.1,0.003988266,0.000509262,0.014665604,0,
00:09.1,0.003976822,0.000492096,0.014671326,0,
00:09.1,0.003988266,0.000497818,0.01465416,0,
00:09.1,0.003982544,0.000492096,0.01465416,0,
00:09.1,0.003959656,0.000497818,0.014671326,0,
00:09.1,0.003982544,0.000492096,0.014648438,0,
00:09.2,0.003982544,0.00050354,0.01465416,0,
00:09.2,0.003976822,0.00050354,0.014642715,0,
00:09.2,0.003982544,0.000497818,0.014665604,0,
00:09.2,0.003982544,0.000492096,0.01468277,0,
00:09.2,0.003931046,0.000486374,0.01468277,0,
00:09.2,0.00394249,0.000480652,0.01465416,0,
00:09.2,0.003948212,0.00047493,0.014659882,0,
00:09.2,0.003993988,0.000497818,0.01465416,0,
00:09.2,0.004005432,0.000514984,0.014671326,0,
00:09.2,0.003925323,0.000486374,0.014677048,0,
00:09.2,0.003965378,0.000492096,0.014677048,0,
00:09.2,0.004011154,0.000520706,0.01465416,0,
00:09.2,0.004016876,0.00050354,0.014671326,0,
00:09.2,0.003982544,0.000492096,0.014665604,0,
00:09.2,0.003959656,0.000486374,0.014665604,0,
00:09.2,0.003982544,0.000497818,0.014665604,0,
00:09.2,0.003965378,0.000497818,0.014671326,0,
00:09.2,0.003976822,0.000486374,0.014671326,0,
00:09.2,0.003982544,0.000497818,0.014671326,0,
00:09.2,0.003982544,0.000486374,0.014665604,0,
00:09.2,0.003982544,0.000492096,0.014659882,0,
00:09.2,0.003965378,0.00050354,0.014677048,0,
00:09.2,0.003982544,0.00050354,0.014659882,0,
00:09.2,0.003988266,0.00050354,0.014671326,0,
00:09.2,0.003965378,0.000486374,0.014665604,0,
00:09.3,0.003988266,0.000492096,0.014659882,0,
00:09.3,0.003959656,0.00050354,0.014665604,0,
00:09.3,0.003965378,0.000486374,0.01468277,0,
00:09.3,0.003976822,0.000492096,0.014677048,0,
00:09.3,0.003953934,0.00050354,0.014659882,0,
00:09.3,0.00399971,0.000509262,0.01465416,0,
00:09.3,0.003988266,0.00050354,0.014631271,0,
00:09.3,0.003976822,0.000486374,0.014648438,0,
00:09.3,0.003976822,0.000492096,0.01465416,0,
00:09.3,0.0039711,0.000492096,0.014671326,0,
00:09.3,0.0039711,0.000509262,0.014677048,0,
00:09.3,0.003925323,0.00050354,0.014677048,0,
00:09.3,0.004016876,0.00050354,0.01468277,0,
00:09.3,0.004011154,0.000497818,0.014665604,0,
00:09.3,0.003982544,0.000497818,0.014659882,0,
00:09.3,0.0039711,0.000509262,0.014665604,0,
00:09.3,0.003988266,0.000509262,0.014671326,0,
00:09.3,0.003982544,0.000497818,0.014665604,0,
00:09.3,0.003993988,0.000486374,0.014677048,0,
00:09.3,0.003982544,0.000492096,0.01465416,0,
00:09.3,0.003959656,0.00050354,0.014671326,0,
00:09.3,0.00394249,0.00050354,0.014677048,0,
00:09.3,0.003982544,0.000492096,0.014659882,0,
00:09.3,0.003959656,0.000492096,0.014671326,0,
00:09.3,0.003988266,0.000520706,0.014671326,0,
00:09.4,0.00399971,0.000492096,0.014659882,0,
00:09.4,0.003982544,0.000486374,0.014677048,0,
00:09.4,0.003959656,0.000492096,0.014665604,0,
00:09.4,0.00399971,0.000497818,0.014659882,0,
00:09.4,0.003993988,0.00050354,0.014665604,0,
00:09.4,0.003965378,0.000509262,0.014659882,0,
00:09.4,0.003931046,0.000492096,0.014671326,0,
00:09.4,0.003959656,0.000480652,0.014677048,0,
00:09.4,0.003976822,0.000497818,0.014665604,0,
00:09.4,0.003988266,0.000486374,0.014648438,0,
00:09.4,0.003976822,0.000486374,0.014648438,0,
00:09.4,0.003993988,0.000509262,0.014665604,0,
00:09.4,0.003982544,0.000514984,0.014665604,0,
00:09.4,0.003953934,0.000492096,0.014677048,0,
00:09.4,0.003959656,0.000497818,0.014688492,0,
00:09.4,0.003982544,0.000509262,0.014659882,0,
00:09.4,0.00399971,0.000509262,0.014659882,0,
00:09.4,0.003982544,0.000486374,0.014671326,0,
00:09.4,0.003925323,0.00047493,0.014671326,0,
00:09.4,0.003959656,0.000492096,0.014671326,0,
00:09.4,0.004039764,0.00050354,0.014659882,0,
00:09.4,0.004005432,0.000492096,0.014665604,0,
00:09.4,0.003965378,0.000497818,0.014665604,0,
00:09.4,0.00394249,0.000486374,0.014671326,0,
00:09.4,0.004022598,0.000509262,0.014659882,0,
00:09.5,0.004011154,0.000520706,0.014631271,0,
00:09.5,0.003965378,0.00050354,0.014665604,0,
00:09.5,0.003948212,0.000492096,0.014671326,0,
00:09.5,0.0039711,0.000497818,0.014671326,0,
00:09.5,0.003993988,0.000497818,0.014648438,0,
00:09.5,0.003988266,0.000492096,0.014636993,0,
00:09.5,0.00399971,0.000497818,0.01468277,0,
00:09.5,0.003959656,0.000492096,0.014659882,0,
00:09.5,0.003953934,0.000486374,0.014665604,0,
00:09.5,0.003993988,0.000497818,0.014659882,0,
00:09.5,0.0039711,0.000480652,0.01465416,0,
00:09.5,0.003976822,0.000497818,0.014665604,0,
00:09.5,0.003988266,0.000497818,0.014665604,0,
00:09.5,0.003931046,0.000497818,0.014631271,0,
00:09.5,0.003988266,0.000492096,0.014636993,0,
00:09.5,0.0039711,0.000486374,0.014677048,0,
00:09.5,0.0039711,0.00050354,0.014659882,0,
00:09.5,0.003982544,0.000492096,0.014636993,0,
00:09.5,0.003993988,0.000509262,0.014659882,0,
00:09.5,0.003959656,0.000497818,0.014665604,0,
00:09.5,0.003948212,0.00050354,0.014659882,0,
00:09.5,0.003976822,0.00050354,0.01465416,0,
00:09.5,0.00399971,0.00050354,0.014659882,0,
00:09.5,0.003982544,0.000486374,0.014648438,0,
00:09.5,0.003976822,0.000497818,0.014648438,0,
00:09.6,0.003959656,0.000486374,0.014659882,0,
00:09.6,0.0039711,0.00050354,0.01465416,0,
00:09.6,0.003976822,0.000514984,0.014642715,0,
00:09.6,0.003976822,0.000486374,0.01465416,0,
00:09.6,0.003931046,0.000469208,0.014636993,0,
00:09.6,0.003965378,0.000492096,0.014659882,0,
00:09.6,0.0039711,0.000497818,0.014659882,0,
00:09.6,0.003959656,0.000492096,0.014648438,0,
00:09.6,0.003931046,0.000492096,0.014659882,0,
00:09.6,0.0039711,0.00050354,0.014671326,0,
00:09.6,0.00399971,0.000497818,0.014631271,0,
00:09.6,0.003988266,0.000492096,0.01465416,0,
00:09.6,0.003965378,0.000480652,0.01465416,0,
00:09.6,0.003959656,0.000486374,0.014648438,0,
00:09.6,0.003919601,0.000509262,0.014642715,0,
00:09.6,0.004011154,0.00050354,0.014625549,0,
00:09.6,0.004005432,0.000492096,0.014636993,0,
00:09.6,0.003988266,0.000509262,0.014642715,0,
00:09.6,0.003965378,0.00050354,0.014648438,0,
00:09.6,0.003948212,0.00047493,0.014665604,0,
00:09.6,0.003965378,0.000480652,0.014659882,0,
00:09.6,0.003982544,0.000509262,0.01465416,0,
00:09.6,0.003993988,0.00050354,0.014642715,0,
00:09.6,0.003976822,0.00050354,0.014642715,0,
00:09.6,0.003965378,0.000492096,0.014659882,0,
00:09.7,0.003953934,0.000492096,0.01465416,0,
00:09.7,0.003948212,0.000497818,0.014659882,0,
00:09.7,0.003953934,0.000486374,0.01465416,0,
00:09.7,0.0039711,0.000480652,0.01465416,0,
00:09.7,0.003976822,0.000497818,0.014671326,0,
00:09.7,0.003948212,0.000486374,0.014677048,0,
00:09.7,0.003993988,0.000509262,0.014659882,0,
00:09.7,0.003988266,0.000497818,0.01465416,0,
00:09.7,0.0039711,0.00050354,0.014659882,0,
00:09.7,0.00394249,0.000486374,0.014665604,0,
00:09.7,0.0039711,0.000486374,0.014688492,0,
00:09.7,0.003953934,0.000486374,0.01468277,0,
00:09.7,0.003982544,0.000492096,0.014665604,0,
00:09.7,0.003959656,0.000486374,0.014648438,0,
00:09.7,0.003908157,0.000492096,0.014665604,0,
00:09.7,0.00399971,0.000492096,0.014671326,0,
00:09.7,0.0039711,0.000497818,0.014659882,0,
00:09.7,0.003953934,0.000492096,0.01468277,0,
00:09.7,0.003976822,0.000486374,0.01468277,0,
00:09.7,0.003976822,0.000492096,0.014665604,0,
00:09.7,0.003982544,0.000509262,0.014665604,0,
00:09.7,0.003976822,0.000497818,0.014648438,0,
00:09.7,0.003982544,0.00050354,0.014659882,0,
00:09.7,0.003965378,0.000509262,0.014665604,0,
00:09.7,0.003965378,0.000480652,0.014688492,0,
00:09.8,0.003959656,0.000480652,0.014665604,0,
00:09.8,0.003953934,0.000514984,0.014677048,0,
00:09.8,0.003976822,0.00050354,0.014671326,0,
00:09.8,0.003959656,0.000486374,0.01465416,0,
00:09.8,0.003948212,0.000492096,0.014671326,0,
00:09.8,0.003948212,0.000492096,0.014677048,0,
00:09.8,0.003976822,0.000486374,0.014677048,0,
00:09.8,0.003931046,0.000480652,0.014671326,0,
00:09.8,0.003913879,0.000492096,0.014671326,0,
00:09.8,0.004016876,0.000497818,0.01465416,0,
00:09.8,0.0039711,0.000486374,0.014648438,0,
00:09.8,0.003976822,0.000492096,0.014659882,0,
00:09.8,0.003982544,0.000497818,0.014677048,0,
00:09.8,0.003988266,0.00050354,0.014671326,0,
00:09.8,0.003988266,0.000492096,0.014671326,0,
00:09.8,0.0039711,0.000492096,0.01465416,0,
00:09.8,0.003953934,0.000480652,0.014659882,0,
00:09.8,0.003982544,0.000486374,0.014705658,0,
00:09.8,0.003965378,0.000486374,0.01468277,0,
00:09.8,0.003931046,0.000492096,0.014648438,0,
00:09.8,0.003965378,0.00050354,0.014665604,0,
00:09.8,0.003993988,0.000497818,0.014677048,0,
00:09.8,0.003982544,0.000514984,0.014671326,0,
00:09.8,0.0039711,0.000497818,0.014677048,0,
00:09.8,0.003976822,0.00050354,0.01465416,0,
00:09.9,0.003976822,0.00050354,0.014665604,0,
00:09.9,0.003976822,0.000492096,0.014671326,0,
00:09.9,0.003965378,0.000497818,0.014659882,0,
00:09.9,0.003913879,0.000520706,0.014648438,0,
00:09.9,0.003959656,0.00047493,0.014688492,0,
00:09.9,0.003953934,0.00047493,0.014677048,0,
00:09.9,0.003948212,0.000497818,0.01465416,0,
00:09.9,0.003982544,0.000497818,0.014659882,0,
00:09.9,0.003959656,0.000480652,0.014659882,0,
00:09.9,0.00394249,0.000492096,0.014665604,0,
00:09.9,0.003982544,0.00050354,0.014648438,0,
00:09.9,0.003948212,0.000486374,0.014648438,0,
00:09.9,0.003976822,0.000497818,0.014659882,0,
00:09.9,0.0039711,0.000492096,0.014665604,0,
00:09.9,0.0039711,0.000480652,0.014659882,0,
00:09.9,0.003982544,0.000497818,0.01465416,0,
00:09.9,0.003976822,0.00050354,0.014659882,0,
00:09.9,0.003965378,0.000497818,0.014659882,0,
00:09.9,0.00394249,0.000492096,0.014671326,0,
00:09.9,0.003965378,0.000492096,0.014665604,0,
00:09.9,0.003988266,0.000480652,0.014665604,0,
00:09.9,0.0039711,0.000480652,0.014648438,0,
00:09.9,0.00394249,0.000509262,0.014636993,0,
00:09.9,0.003959656,0.000509262,0.014671326,0,
00:09.9,0.003982544,0.000514984,0.014659882,0,
00:10.0,0.003959656,0.000492096,0.014659882,0,
00:10.0,0.003976822,0.000486374,0.014671326,0,
00:10.0,0.003982544,0.00050354,0.014665604,0,
00:10.0,0.003982544,0.00050354,0.014665604,0,
00:10.0,0.0039711,0.000509262,0.014659882,0,
00:10.0,0.003965378,0.00050354,0.014665604,0,
00:10.0,0.003948212,0.000486374,0.014642715,0,
00:10.0,0.003965378,0.000480652,0.014671326,0,
00:10.0,0.003959656,0.00050354,0.014671326,0,
00:10.0,0.003925323,0.000492096,0.014671326,0,
00:10.0,0.00394249,0.000486374,0.01465416,0,
00:10.0,0.0039711,0.000492096,0.014677048,0,
00:00:10,0.003936768,0.000497818,0.014665604,0,
00:10.0,0.003936768,0.000492096,0.014648438,0,
00:10.0,0.003976822,0.000486374,0.014665604,0,
00:10.0,0.00399971,0.000492096,0.01468277,0,
00:10.0,0.00394249,0.000492096,0.01465416,0,
00:10.0,0.0039711,0.000497818,0.014665604,0,
00:10.0,0.003948212,0.000497818,0.01468277,0,
00:10.0,0.003988266,0.000492096,0.014665604,0,
00:10.0,0.004005432,0.000486374,0.01465416,0,
00:10.0,0.003953934,0.000497818,0.01465416,0,
00:10.0,0.003965378,0.00050354,0.01465416,0,
00:10.0,0.003993988,0.000492096,0.014648438,0,
00:10.0,0.0039711,0.000497818,0.014659882,0,
00:10.1,0.003959656,0.00050354,0.01465416,0,
00:10.1,0.00394249,0.000497818,0.014671326,0,
00:10.1,0.003959656,0.000492096,0.014677048,0,
00:10.1,0.003982544,0.000509262,0.014648438,0,
00:10.1,0.003976822,0.000514984,0.014671326,0,
00:10.1,0.00394249,0.000480652,0.014665604,0,
00:10.1,0.003953934,0.000492096,0.014659882,0,
00:10.1,0.003965378,0.000497818,0.014648438,0,
00:10.1,0.003931046,0.00047493,0.014648438,0,
00:10.1,0.003936768,0.000480652,0.014671326,0,
00:10.1,0.003936768,0.00050354,0.014677048,0,
00:10.1,0.003959656,0.00050354,0.014677048,0,
00:10.1,0.003948212,0.000492096,0.014677048,0,
00:10.1,0.0039711,0.000469208,0.014659882,0,
00:10.1,0.00394249,0.000486374,0.014648438,0,
00:10.1,0.00394249,0.000486374,0.014659882,0,
00:10.1,0.00399971,0.000480652,0.01468277,0,
00:10.1,0.003988266,0.000492096,0.014671326,0,
00:10.1,0.003982544,0.000526428,0.014677048,0,
00:10.1,0.003976822,0.000509262,0.014688492,0,
00:10.1,0.003965378,0.00047493,0.014665604,0,
00:10.1,0.003965378,0.00047493,0.014665604,0,
00:10.1,0.003965378,0.000492096,0.014677048,0,
00:10.1,0.003959656,0.000514984,0.014671326,0,
00:10.1,0.003948212,0.00050354,0.01468277,0,
00:10.2,0.00394249,0.00050354,0.014665604,0,
00:10.2,0.003959656,0.000509262,0.01468277,0,
00:10.2,0.003993988,0.00050354,0.014665604,0,
00:10.2,0.0039711,0.00050354,0.01465416,0,
00:10.2,0.003953934,0.000486374,0.014677048,0,
00:10.2,0.003931046,0.00047493,0.014694214,0,
00:10.2,0.003936768,0.000492096,0.014677048,0,
00:10.2,0.003965378,0.00050354,0.014659882,0,
00:10.2,0.003959656,0.000486374,0.014648438,0,
00:10.2,0.003959656,0.000480652,0.014688492,0,
00:10.2,0.00394249,0.000497818,0.014688492,0,
00:10.2,0.003965378,0.00050354,0.014688492,0,
00:10.2,0.003948212,0.000492096,0.014671326,0,
00:10.2,0.003925323,0.000480652,0.014659882,0,
00:10.2,0.003908157,0.000480652,0.014659882,0,
00:10.2,0.0039711,0.000509262,0.014648438,0,
00:10.2,0.003988266,0.000497818,0.014665604,0,
00:10.2,0.0039711,0.000480652,0.014705658,0,
00:10.2,0.0039711,0.000492096,0.01468277,0,
00:10.2,0.003959656,0.000497818,0.014677048,0,
00:10.2,0.0039711,0.000492096,0.01468277,0,
00:10.2,0.0039711,0.000486374,0.014671326,0,
00:10.2,0.003953934,0.000492096,0.014677048,0,
00:10.2,0.0039711,0.00050354,0.014665604,0,
00:10.2,0.003959656,0.000520706,0.014671326,0,
00:10.3,0.003931046,0.000497818,0.014677048,0,
00:10.3,0.003925323,0.000486374,0.01468277,0,
00:10.3,0.003953934,0.000509262,0.014665604,0,
00:10.3,0.003976822,0.000497818,0.014671326,0,
00:10.3,0.003953934,0.000480652,0.014642715,0,
00:10.3,0.003953934,0.000497818,0.014677048,0,
00:10.3,0.003948212,0.000492096,0.014677048,0,
00:10.3,0.003936768,0.000492096,0.014688492,0,
00:10.3,0.003959656,0.000497818,0.014671326,0,
00:10.3,0.003959656,0.000514984,0.01468277,0,
00:10.3,0.003919601,0.000492096,0.01468277,0,
00:10.3,0.003896713,0.000469208,0.014671326,0,
00:10.3,0.003976822,0.00050354,0.014677048,0,
00:10.3,0.003976822,0.000514984,0.014665604,0,
