Elapsed_Time,EMG1,EMG2,EMG3,BioRadio Event,Unnamed: 5
00:00:00,0.004606247,0.000778198,0.015146255,0,
00:00.0,0.004600525,0.000772476,0.015174866,0,
00:00.0,0.004589081,0.000766754,0.015197754,0,
00:00.0,0.004589081,0.00075531,0.015197754,0,
00:00.0,0.004583359,0.000772476,0.015192032,0,
00:00.0,0.004606247,0.000795364,0.015197754,0,
00:00.0,0.004640579,0.000801086,0.015169144,0,
00:00.0,0.004594803,0.000749588,0.015180588,0,
00:00.0,0.004589081,0.000761032,0.015174866,0,
00:00.0,0.004611969,0.000789642,0.01518631,0,
00:00.0,0.004634857,0.000818253,0.015163422,0,
00:00.0,0.004634857,0.000818253,0.015163422,0,
00:00.0,0.004594803,0.00075531,0.01518631,0,
00:00.1,0.004611969,0.000778198,0.015174866,0,
00:00.1,0.004611969,0.000795364,0.015192032,0,
00:00.1,0.004594803,0.000795364,0.015192032,0,
00:00.1,0.004600525,0.000749588,0.01518631,0,
00:00.1,0.004606247,0.000778198,0.015174866,0,
00:00.1,0.004606247,0.000795364,0.015146255,0,
00:00.1,0.004594803,0.000778198,0.015180588,0,
00:00.1,0.004600525,0.000766754,0.015209198,0,
00:00.1,0.004623413,0.000778198,0.01518631,0,
00:00.1,0.004600525,0.000761032,0.0151577,0,
00:00.1,0.004583359,0.000772476,0.01518631,0,
00:00.1,0.004571915,0.000772476,0.015203476,0,
00:00.1,0.004611969,0.000766754,0.015192032,0,
00:00.1,0.004623413,0.000795364,0.015180588,0,
00:00.1,0.004594803,0.00078392,0.015197754,0,
00:00.1,0.004623413,0.000778198,0.015180588,0,
00:00.1,0.004634857,0.00078392,0.015169144,0,
00:00.1,0.004634857,0.000841141,0.015192032,0,
00:00.1,0.004589081,0.000761032,0.015197754,0,
00:00.1,0.004566193,0.000761032,0.015180588,0,
00:00.1,0.004589081,0.000766754,0.01518631,0,
00:00.1,0.004623413,0.000761032,0.015180588,0,
00:00.1,0.004634857,0.000795364,0.015192032,0,
00:00.1,0.004611969,0.000806808,0.01518631,0,
00:00.1,0.004611969,0.000789642,0.015180588,0,
00:00.2,0.004583359,0.00075531,0.015226364,0,
00:00.2,0.004589081,0.000766754,0.01521492,0,
00:00.2,0.004594803,0.000743866,0.01518631,0,
00:00.2,0.004606247,0.000778198,0.015209198,0,
00:00.2,0.004611969,0.000806808,0.015197754,0,
00:00.2,0.004594803,0.00075531,0.015180588,0,
00:00.2,0.004600525,0.000778198,0.015192032,0,
00:00.2,0.004611969,0.000772476,0.015220642,0,
00:00.2,0.004606247,0.000801086,0.015203476,0,
00:00.2,0.004611969,0.00078392,0.015180588,0,
00:00.2,0.004589081,0.000795364,0.015203476,0,
00:00.2,0.004594803,0.000761032,0.015197754,0,
00:00.2,0.004600525,0.000761032,0.015192032,0,
00:00.2,0.004634857,0.000823975,0.015197754,0,
00:00.2,0.004594803,0.000772476,0.015197754,0,
00:00.2,0.004589081,0.000766754,0.015192032,0,
00:00.2,0.004629135,0.000789642,0.01518631,0,
00:00.2,0.004600525,0.000772476,0.015203476,0,
00:00.2,0.004606247,0.000801086,0.015209198,0,
00:00.2,0.004594803,0.00078392,0.015197754,0,
00:00.2,0.004606247,0.000778198,0.015197754,0,
00:00.2,0.004634857,0.000818253,0.015174866,0,
00:00.2,0.004583359,0.000720978,0.015232086,0,
00:00.2,0.004600525,0.000801086,0.01524353,0,
00:00.2,0.004617691,0.00078392,0.015203476,0,
00:00.3,0.004606247,0.00078392,0.015203476,0,
00:00.3,0.004640579,0.000812531,0.015192032,0,
00:00.3,0.004600525,0.000772476,0.015232086,0,
00:00.3,0.004577637,0.000795364,0.015237808,0,
00:00.3,0.004566193,0.000761032,0.015174866,0,
00:00.3,0.004566193,0.000743866,0.015203476,0,
00:00.3,0.004577637,0.00075531,0.015197754,0,
00:00.3,0.004617691,0.000801086,0.015209198,0,
00:00.3,0.004611969,0.000778198,0.015220642,0,
00:00.3,0.004589081,0.000778198,0.015226364,0,
00:00.3,0.004594803,0.000778198,0.015226364,0,
00:00.3,0.004600525,0.000766754,0.01521492,0,
00:00.3,0.004617691,0.00078392,0.015226364,0,
00:00.3,0.004640579,0.000829697,0.015220642,0,
00:00.3,0.004623413,0.000835419,0.015203476,0,
00:00.3,0.004600525,0.00078392,0.015220642,0,
00:00.3,0.004589081,0.000720978,0.015249252,0,
00:00.3,0.004594803,0.000749588,0.01521492,0,
00:00.3,0.004617691,0.000823975,0.01518631,0,
00:00.3,0.004594803,0.000795364,0.015254974,0,
00:00.3,0.004606247,0.000801086,0.015232086,0,
00:00.3,0.004583359,0.00075531,0.01524353,0,
00:00.3,0.004617691,0.00078392,0.015260696,0,
00:00.3,0.004600525,0.000772476,0.01521492,0,
00:00.3,0.004571915,0.000789642,0.015209198,0,
00:00.4,0.004554749,0.00078392,0.015254974,0,
00:00.4,0.004629135,0.000801086,0.015220642,0,
00:00.4,0.004623413,0.000778198,0.01524353,0,
00:00.4,0.004594803,0.000761032,0.015254974,0,
00:00.4,0.004629135,0.000823975,0.015226364,0,
00:00.4,0.004623413,0.000801086,0.015192032,0,
00:00.4,0.004589081,0.000743866,0.015220642,0,
00:00.4,0.004589081,0.000766754,0.015289307,0,
00:00.4,0.004589081,0.000761032,0.015283585,0,
00:00.4,0.004577637,0.000772476,0.015249252,0,
00:00.4,0.004600525,0.000818253,0.015232086,0,
00:00.4,0.004594803,0.000772476,0.015192032,0,
00:00.4,0.004594803,0.000743866,0.015220642,0,
00:00.4,0.004611969,0.000766754,0.015232086,0,
00:00.4,0.004617691,0.000823975,0.015266418,0,
00:00.4,0.004623413,0.000818253,0.015254974,0,
00:00.4,0.004594803,0.000772476,0.015289307,0,
00:00.4,0.004606247,0.000772476,0.015272141,0,
00:00.4,0.004583359,0.00078392,0.015266418,0,
00:00.4,0.004566193,0.000766754,0.015237808,0,
00:00.4,0.004594803,0.000795364,0.01524353,0,
00:00.4,0.004606247,0.000789642,0.015254974,0,
00:00.4,0.004566193,0.00075531,0.015232086,0,
00:00.4,0.004543304,0.000743866,0.015266418,0,
00:00.4,0.004583359,0.00078392,0.01524353,0,
00:00.5,0.004617691,0.000795364,0.015260696,0,
00:00.5,0.004617691,0.000801086,0.015249252,0,
00:00.5,0.004657745,0.000858307,0.015226364,0,
00:00.5,0.004583359,0.000743866,0.01524353,0,
00:00.5,0.004543304,0.000709534,0.015272141,0,
00:00.5,0.004583359,0.000778198,0.015254974,0,
00:00.5,0.004617691,0.000806808,0.015260696,0,
00:00.5,0.004606247,0.000795364,0.015232086,0,
00:00.5,0.004571915,0.000743866,0.015260696,0,
00:00.5,0.004600525,0.00078392,0.015249252,0,
00:00.5,0.004629135,0.000818253,0.015232086,0,
00:00.5,0.004606247,0.000778198,0.015226364,0,
00:00.5,0.004594803,0.000789642,0.015266418,0,
00:00.5,0.004577637,0.000778198,0.015237808,0,
00:00.5,0.004560471,0.000766754,0.015254974,0,
00:00.5,0.004577637,0.000789642,0.015249252,0,
00:00.5,0.004589081,0.000795364,0.015254974,0,
00:00.5,0.004571915,0.000761032,0.015300751,0,
00:00.5,0.004589081,0.000766754,0.015254974,0,
00:00.5,0.004600525,0.000818253,0.015254974,0,
00:00.5,0.004594803,0.000795364,0.015254974,0,
00:00.5,0.004589081,0.000772476,0.01524353,0,
00:00.5,0.004594803,0.000812531,0.015289307,0,
00:00.5,0.004589081,0.000761032,0.015254974,0,
00:00.5,0.004583359,0.000743866,0.015237808,0,
00:00.6,0.004594803,0.000772476,0.015272141,0,
00:00.6,0.004594803,0.000778198,0.015277863,0,
00:00.6,0.004577637,0.000766754,0.015266418,0,
00:00.6,0.004600525,0.000778198,0.015272141,0,
00:00.6,0.004617691,0.000795364,0.015277863,0,
00:00.6,0.004611969,0.000766754,0.015266418,0,
00:00.6,0.004577637,0.000761032,0.015254974,0,
00:00.6,0.004571915,0.000761032,0.015237808,0,
00:00.6,0.004583359,0.000778198,0.015283585,0,
00:00.6,0.004589081,0.000789642,0.015254974,0,
00:00.6,0.004606247,0.000812531,0.015254974,0,
00:00.6,0.004589081,0.00078392,0.015249252,0,
00:00.6,0.004571915,0.00075531,0.015272141,0,
00:00.6,0.004577637,0.000789642,0.015289307,0,
00:00.6,0.004583359,0.000801086,0.015277863,0,
00:00.6,0.004583359,0.000801086,0.015260696,0,
00:00.6,0.004571915,0.000732422,0.015272141,0,
00:00.6,0.004589081,0.000749588,0.015254974,0,
00:00.6,0.004589081,0.000812531,0.015277863,0,
00:00.6,0.004583359,0.000795364,0.015283585,0,
00:00.6,0.004600525,0.000789642,0.015254974,0,
00:00.6,0.004589081,0.00078392,0.015226364,0,
00:00.6,0.004589081,0.000766754,0.015272141,0,
00:00.6,0.004577637,0.000749588,0.015295029,0,
00:00.6,0.004594803,0.000806808,0.015283585,0,
00:00.7,0.004583359,0.000778198,0.015277863,0,
00:00.7,0.004589081,0.000761032,0.015249252,0,
00:00.7,0.004589081,0.000789642,0.015260696,0,
00:00.7,0.004606247,0.000835419,0.015254974,0,
00:00.7,0.004594803,0.000778198,0.015272141,0,
00:00.7,0.004571915,0.000743866,0.015306473,0,
00:00.7,0.004560471,0.000766754,0.015306473,0,
00:00.7,0.004577637,0.00078392,0.015283585,0,
00:00.7,0.004594803,0.000778198,0.015254974,0,
00:00.7,0.004589081,0.000778198,0.015266418,0,
00:00.7,0.004577637,0.000772476,0.015283585,0,
00:00.7,0.004606247,0.000789642,0.015277863,0,
00:00.7,0.004629135,0.000864029,0.015283585,0,
00:00.7,0.004577637,0.000778198,0.015277863,0,
00:00.7,0.004537582,0.000738144,0.015277863,0,
00:00.7,0.004577637,0.000789642,0.015289307,0,
00:00.7,0.004611969,0.000806808,0.015266418,0,
00:00.7,0.004583359,0.000766754,0.015289307,0,
00:00.7,0.004589081,0.000766754,0.015277863,0,
00:00.7,0.004611969,0.000795364,0.015277863,0,
00:00.7,0.004589081,0.000766754,0.015312195,0,
00:00.7,0.004560471,0.000766754,0.015295029,0,
00:00.7,0.004583359,0.000812531,0.015277863,0,
00:00.7,0.004566193,0.00078392,0.015300751,0,
00:00.7,0.004571915,0.000789642,0.015295029,0,
00:00.8,0.004594803,0.000778198,0.015272141,0,
00:00.8,0.004606247,0.00078392,0.015277863,0,
00:00.8,0.004594803,0.000766754,0.015289307,0,
00:00.8,0.004583359,0.000772476,0.015306473,0,
00:00.8,0.004571915,0.000778198,0.015295029,0,
00:00.8,0.004566193,0.000772476,0.015289307,0,
00:00.8,0.004600525,0.000806808,0.015323639,0,
00:00.8,0.004594803,0.000795364,0.015306473,0,
00:00.8,0.004589081,0.000772476,0.015306473,0,
00:00.8,0.004589081,0.000801086,0.015289307,0,
00:00.8,0.004577637,0.000749588,0.015289307,0,
00:00.8,0.004594803,0.000801086,0.015300751,0,
00:00.8,0.004600525,0.000795364,0.015283585,0,
00:00.8,0.004566193,0.000766754,0.015300751,0,
00:00.8,0.004600525,0.000789642,0.015317917,0,
00:00.8,0.004583359,0.000789642,0.015317917,0,
00:00.8,0.004583359,0.000789642,0.015295029,0,
00:00.8,0.004583359,0.000766754,0.015317917,0,
00:00.8,0.004560471,0.000761032,0.015312195,0,
00:00.8,0.004583359,0.00078392,0.015317917,0,
00:00.8,0.004600525,0.000801086,0.015312195,0,
00:00.8,0.004583359,0.00078392,0.015306473,0,
00:00.8,0.004583359,0.000772476,0.015289307,0,
00:00.8,0.004583359,0.00078392,0.015323639,0,
00:00.8,0.004600525,0.000818253,0.015312195,0,
00:00.9,0.004589081,0.000795364,0.015295029,0,
00:00.9,0.004583359,0.000761032,0.015329361,0,
00:00.9,0.004577637,0.000778198,0.015312195,0,
00:00.9,0.004589081,0.000795364,0.015289307,0,
00:00.9,0.004589081,0.00078392,0.015295029,0,
00:00.9,0.004571915,0.000766754,0.015329361,0,
00:00.9,0.004571915,0.000761032,0.015312195,0,
00:00.9,0.004571915,0.00075531,0.015329361,0,
00:00.9,0.004566193,0.000766754,0.015312195,0,
00:00.9,0.004577637,0.000778198,0.015323639,0,
00:00.9,0.004600525,0.000829697,0.015312195,0,
00:00.9,0.004617691,0.000852585,0.015283585,0,
00:00.9,0.004577637,0.000766754,0.015323639,0,
00:00.9,0.004537582,0.0007267,0.015335083,0,
00:00.9,0.004583359,0.000766754,0.015312195,0,
00:00.9,0.004611969,0.000795364,0.015300751,0,
00:00.9,0.004594803,0.000795364,0.015306473,0,
00:00.9,0.004577637,0.000778198,0.015300751,0,
00:00.9,0.004606247,0.000818253,0.015346527,0,
00:00.9,0.004600525,0.000789642,0.015306473,0,
00:00.9,0.004560471,0.000761032,0.015300751,0,
00:00.9,0.004571915,0.00078392,0.015317917,0,
00:00.9,0.004577637,0.000789642,0.015340805,0,
00:00.9,0.004589081,0.000806808,0.015346527,0,
00:00.9,0.004583359,0.000772476,0.015312195,0,
00:01.0,0.004577637,0.000778198,0.015306473,0,
00:01.0,0.004577637,0.000789642,0.015317917,0,
00:01.0,0.004589081,0.000772476,0.015335083,0,
00:01.0,0.004577637,0.000772476,0.015323639,0,
00:01.0,0.004571915,0.000795364,0.015329361,0,
00:01.0,0.004571915,0.000772476,0.015289307,0,
00:01.0,0.004589081,0.000778198,0.015312195,0,
00:01.0,0.004600525,0.000806808,0.015329361,0,
00:01.0,0.004571915,0.000778198,0.015317917,0,
00:01.0,0.004554749,0.000789642,0.015317917,0,
00:01.0,0.004571915,0.000823975,0.015306473,0,
00:01.0,0.004583359,0.000772476,0.015300751,0,
00:00:01,0.004577637,0.00075531,0.015335083,0,
00:01.0,0.004583359,0.000789642,0.015335083,0,
00:01.0,0.004560471,0.000761032,0.015335083,0,
00:01.0,0.004571915,0.000789642,0.015346527,0,
00:01.0,0.004589081,0.000806808,0.015340805,0,
00:01.0,0.004606247,0.000812531,0.015300751,0,
00:01.0,0.004600525,0.000789642,0.015300751,0,
00:01.0,0.004594803,0.00078392,0.015317917,0,
00:01.0,0.004589081,0.000795364,0.015323639,0,
00:01.0,0.004594803,0.000795364,0.015340805,0,
00:01.0,0.004566193,0.00078392,0.015329361,0,
00:01.0,0.004560471,0.000766754,0.015323639,0,
00:01.0,0.004589081,0.000812531,0.015317917,0,
00:01.1,0.004560471,0.000743866,0.015352249,0,
00:01.1,0.004577637,0.000789642,0.015352249,0,
00:01.1,0.004583359,0.00078392,0.015312195,0,
00:01.1,0.004583359,0.000806808,0.015340805,0,
00:01.1,0.004571915,0.000789642,0.015323639,0,
00:01.1,0.004577637,0.00078392,0.015312195,0,
00:01.1,0.004566193,0.00078392,0.015340805,0,
00:01.1,0.004549026,0.000761032,0.015346527,0,
00:01.1,0.004560471,0.00078392,0.015323639,0,
00:01.1,0.004600525,0.000812531,0.015289307,0,
00:01.1,0.004589081,0.000778198,0.015312195,0,
00:01.1,0.004566193,0.000795364,0.015375137,0,
00:01.1,0.004594803,0.000823975,0.015357971,0,
00:01.1,0.004566193,0.000778198,0.015317917,0,
00:01.1,0.004560471,0.000766754,0.015352249,0,
00:01.1,0.004571915,0.000789642,0.015340805,0,
00:01.1,0.004583359,0.00078392,0.015340805,0,
00:01.1,0.004600525,0.000801086,0.015317917,0,
00:01.1,0.004566193,0.000789642,0.015340805,0,
00:01.1,0.004543304,0.000772476,0.015352249,0,
00:01.1,0.004560471,0.00078392,0.015317917,0,
00:01.1,0.004554749,0.000778198,0.015340805,0,
00:01.1,0.004594803,0.000818253,0.015369415,0,
00:01.1,0.004554749,0.000772476,0.015329361,0,
00:01.1,0.004577637,0.000795364,0.015352249,0,
00:01.2,0.004583359,0.000801086,0.015323639,0,
00:01.2,0.004554749,0.000772476,0.015357971,0,
00:01.2,0.004566193,0.00078392,0.015352249,0,
00:01.2,0.004577637,0.000801086,0.015317917,0,
00:01.2,0.004560471,0.000778198,0.015323639,0,
00:01.2,0.004554749,0.000795364,0.015363693,0,
00:01.2,0.004549026,0.000766754,0.015363693,0,
00:01.2,0.004583359,0.000789642,0.015363693,0,
00:01.2,0.004589081,0.000823975,0.015352249,0,
00:01.2,0.004560471,0.00075531,0.015317917,0,
00:01.2,0.004554749,0.00075531,0.015352249,0,
00:01.2,0.004554749,0.000772476,0.015329361,0,
00:01.2,0.004566193,0.000806808,0.015346527,0,
00:01.2,0.004583359,0.000829697,0.015335083,0,
00:01.2,0.004571915,0.00078392,0.015375137,0,
00:01.2,0.004589081,0.000789642,0.015329361,0,
00:01.2,0.004543304,0.00075531,0.015346527,0,
00:01.2,0.004543304,0.000778198,0.015357971,0,
00:01.2,0.004583359,0.000795364,0.015375137,0,
00:01.2,0.004577637,0.000812531,0.015369415,0,
00:01.2,0.004549026,0.000806808,0.015346527,0,
00:01.2,0.004589081,0.000823975,0.015329361,0,
00:01.2,0.004566193,0.000772476,0.015352249,0,
00:01.2,0.004566193,0.000772476,0.015340805,0,
00:01.2,0.004560471,0.000789642,0.015340805,0,
00:01.3,0.004543304,0.00078392,0.015352249,0,
00:01.3,0.004549026,0.000789642,0.015352249,0,
00:01.3,0.004560471,0.00078392,0.015363693,0,
00:01.3,0.004566193,0.00078392,0.015369415,0,
00:01.3,0.004571915,0.000789642,0.015363693,0,
00:01.3,0.004566193,0.000789642,0.015357971,0,
00:01.3,0.004571915,0.000789642,0.015363693,0,
00:01.3,0.004611969,0.000846863,0.015369415,0,
00:01.3,0.004549026,0.00075531,0.015340805,0,
00:01.3,0.00453186,0.00075531,0.015363693,0,
00:01.3,0.004566193,0.000823975,0.015363693,0,
00:01.3,0.004577637,0.000795364,0.015340805,0,
00:01.3,0.004566193,0.000766754,0.015335083,0,
00:01.3,0.004583359,0.000823975,0.015375137,0,
00:01.3,0.004537582,0.000772476,0.015363693,0,
00:01.3,0.004583359,0.000806808,0.015357971,0,
00:01.3,0.004600525,0.000818253,0.015346527,0,
00:01.3,0.004571915,0.000829697,0.015346527,0,
00:01.3,0.004520416,0.000738144,0.015398026,0,
00:01.3,0.004537582,0.000772476,0.015380859,0,
00:01.3,0.004571915,0.000795364,0.015369415,0,
00:01.3,0.004554749,0.000789642,0.015340805,0,
00:01.3,0.004537582,0.000772476,0.015352249,0,
00:01.3,0.004571915,0.000812531,0.015375137,0,
00:01.3,0.004577637,0.000823975,0.015340805,0,
00:01.4,0.004560471,0.000766754,0.015369415,0,
00:01.4,0.004543304,0.000772476,0.015392303,0,
00:01.4,0.00453186,0.000795364,0.015386581,0,
00:01.4,0.004566193,0.000801086,0.015340805,0,
00:01.4,0.004577637,0.000795364,0.015335083,0,
00:01.4,0.004560471,0.000789642,0.015363693,0,
00:01.4,0.004554749,0.000789642,0.015363693,0,
00:01.4,0.004571915,0.000801086,0.015363693,0,
00:01.4,0.004571915,0.000812531,0.015346527,0,
00:01.4,0.004577637,0.000818253,0.015380859,0,
00:01.4,0.004589081,0.000812531,0.015346527,0,
00:01.4,0.004583359,0.000772476,0.015369415,0,
00:01.4,0.004549026,0.000795364,0.015398026,0,
00:01.4,0.004554749,0.000818253,0.015363693,0,
00:01.4,0.004520416,0.000743866,0.015386581,0,
00:01.4,0.004554749,0.00078392,0.015403748,0,
00:01.4,0.004589081,0.000841141,0.015369415,0,
00:01.4,0.004623413,0.000886917,0.015346527,0,
00:01.4,0.004543304,0.000715256,0.015346527,0,
00:01.4,0.004520416,0.000743866,0.015398026,0,
00:01.4,0.004537582,0.000778198,0.015380859,0,
00:01.4,0.004554749,0.000772476,0.015369415,0,
00:01.4,0.004571915,0.00078392,0.015363693,0,
00:01.4,0.004554749,0.000789642,0.015375137,0,
00:01.4,0.004554749,0.000801086,0.015346527,0,
00:01.5,0.004566193,0.000812531,0.015375137,0,
00:01.5,0.004554749,0.000789642,0.015398026,0,
00:01.5,0.004549026,0.000761032,0.015392303,0,
00:01.5,0.004543304,0.000789642,0.015375137,0,
00:01.5,0.004571915,0.000823975,0.015352249,0,
00:01.5,0.004577637,0.000829697,0.015357971,0,
00:01.5,0.004554749,0.000761032,0.015352249,0,
00:01.5,0.004560471,0.000778198,0.015363693,0,
00:01.5,0.004571915,0.000801086,0.015392303,0,
00:01.5,0.004589081,0.000806808,0.015363693,0,
00:01.5,0.004549026,0.000778198,0.015363693,0,
00:01.5,0.004560471,0.000818253,0.015380859,0,
00:01.5,0.004577637,0.000829697,0.015380859,0,
00:01.5,0.004549026,0.000778198,0.015363693,0,
00:01.5,0.004589081,0.000806808,0.015375137,0,
00:01.5,0.004577637,0.000801086,0.015375137,0,
00:01.5,0.004520416,0.000743866,0.015375137,0,
00:01.5,0.004560471,0.00078392,0.015352249,0,
00:01.5,0.004560471,0.000795364,0.015369415,0,
00:01.5,0.004549026,0.000789642,0.015346527,0,
00:01.5,0.004549026,0.00078392,0.015346527,0,
00:01.5,0.004560471,0.000806808,0.015335083,0,
00:01.5,0.004543304,0.000778198,0.015398026,0,
00:01.5,0.004543304,0.000795364,0.015426636,0,
00:01.5,0.004537582,0.000789642,0.015380859,0,
00:01.6,0.00453186,0.00075531,0.015386581,0,
00:01.6,0.004543304,0.00078392,0.015380859,0,
00:01.6,0.004571915,0.000818253,0.015363693,0,
00:01.6,0.004566193,0.000789642,0.015363693,0,
00:01.6,0.004526138,0.00075531,0.015392303,0,
00:01.6,0.004514694,0.000789642,0.015380859,0,
00:01.6,0.004560471,0.000818253,0.015357971,0,
00:01.6,0.004577637,0.000795364,0.015380859,0,
00:01.6,0.004566193,0.000823975,0.015386581,0,
00:01.6,0.004583359,0.000801086,0.015386581,0,
00:01.6,0.004560471,0.000772476,0.015398026,0,
00:01.6,0.004543304,0.000801086,0.015363693,0,
00:01.6,0.004549026,0.000806808,0.015403748,0,
00:01.6,0.004560471,0.000801086,0.015375137,0,
00:01.6,0.004560471,0.000812531,0.015375137,0,
00:01.6,0.00453186,0.000795364,0.015386581,0,
00:01.6,0.004537582,0.00075531,0.015392303,0,
00:01.6,0.004549026,0.000772476,0.015403748,0,
00:01.6,0.004543304,0.000812531,0.015386581,0,
00:01.6,0.004549026,0.000801086,0.015369415,0,
00:01.6,0.004554749,0.000789642,0.015357971,0,
00:01.6,0.004549026,0.000789642,0.015357971,0,
00:01.6,0.00453186,0.000749588,0.015392303,0,
00:01.6,0.004543304,0.000789642,0.015392303,0,
00:01.6,0.004543304,0.000812531,0.015363693,0,
00:01.7,0.004560471,0.000823975,0.015346527,0,
00:01.7,0.004566193,0.000818253,0.015415192,0,
00:01.7,0.004520416,0.000772476,0.01540947,0,
00:01.7,0.004543304,0.000772476,0.015380859,0,
00:01.7,0.004543304,0.000795364,0.015386581,0,
00:01.7,0.004537582,0.000806808,0.015375137,0,
00:01.7,0.004537582,0.000789642,0.015386581,0,
00:01.7,0.004537582,0.000789642,0.015380859,0,
00:01.7,0.004543304,0.000766754,0.015375137,0,
00:01.7,0.004514694,0.000743866,0.015392303,0,
00:01.7,0.004554749,0.000812531,0.015398026,0,
00:01.7,0.004589081,0.000841141,0.015398026,0,
00:01.7,0.004560471,0.000812531,0.015392303,0,
00:01.7,0.004543304,0.000812531,0.015392303,0,
00:01.7,0.004526138,0.000789642,0.015398026,0,
00:01.7,0.004514694,0.000778198,0.015386581,0,
00:01.7,0.00453186,0.000761032,0.015420914,0,
00:01.7,0.004543304,0.000789642,0.015415192,0,
00:01.7,0.004526138,0.000778198,0.015375137,0,
00:01.7,0.004560471,0.000818253,0.015375137,0,
00:01.7,0.004606247,0.000881195,0.015380859,0,
00:01.7,0.004526138,0.000766754,0.015398026,0,
00:01.7,0.00450325,0.000761032,0.01540947,0,
00:01.7,0.004537582,0.000789642,0.015386581,0,
00:01.7,0.00453186,0.000772476,0.015386581,0,
00:01.8,0.004537582,0.000778198,0.015392303,0,
00:01.8,0.004537582,0.000823975,0.01543808,0,
00:01.8,0.004543304,0.000829697,0.015392303,0,
00:01.8,0.004514694,0.000761032,0.015398026,0,
00:01.8,0.004520416,0.000778198,0.015386581,0,
00:01.8,0.004549026,0.000835419,0.015363693,0,
00:01.8,0.004549026,0.00078392,0.015392303,0,
00:01.8,0.004537582,0.000772476,0.015380859,0,
00:01.8,0.004543304,0.00078392,0.015398026,0,
00:01.8,0.004543304,0.000812531,0.01540947,0,
00:01.8,0.004514694,0.00078392,0.01540947,0,
00:01.8,0.004520416,0.000778198,0.015386581,0,
00:01.8,0.004537582,0.000818253,0.015398026,0,
00:01.8,0.004537582,0.000818253,0.015363693,0,
00:01.8,0.004554749,0.000795364,0.015415192,0,
00:01.8,0.004526138,0.000761032,0.015398026,0,
00:01.8,0.004543304,0.000801086,0.01540947,0,
00:01.8,0.004549026,0.000829697,0.01540947,0,
00:01.8,0.004560471,0.000841141,0.015398026,0,
00:01.8,0.004514694,0.00075531,0.015386581,0,
00:01.8,0.00450325,0.000766754,0.015426636,0,
00:01.8,0.004554749,0.000835419,0.015392303,0,
00:01.8,0.004520416,0.000766754,0.015392303,0,
00:01.8,0.004520416,0.000778198,0.015426636,0,
00:01.8,0.00453186,0.000789642,0.01540947,0,
00:01.9,0.00453186,0.000778198,0.015398026,0,
00:01.9,0.004526138,0.000778198,0.015398026,0,
00:01.9,0.004549026,0.000818253,0.015357971,0,
00:01.9,0.00453186,0.000789642,0.015380859,0,
00:01.9,0.00453186,0.000795364,0.01540947,0,
00:01.9,0.004514694,0.000801086,0.01540947,0,
00:01.9,0.004514694,0.000789642,0.015398026,0,
00:01.9,0.004543304,0.000789642,0.01540947,0,
00:01.9,0.00453186,0.000801086,0.015392303,0,
00:01.9,0.004537582,0.000812531,0.015403748,0,
00:01.9,0.004520416,0.00078392,0.015420914,0,
00:01.9,0.004514694,0.000818253,0.015392303,0,
00:01.9,0.004526138,0.000778198,0.015380859,0,
00:01.9,0.00453186,0.000778198,0.015398026,0,
00:01.9,0.004549026,0.000858307,0.015420914,0,
00:01.9,0.004543304,0.000795364,0.01540947,0,
00:01.9,0.004543304,0.00078392,0.015386581,0,
00:01.9,0.004537582,0.000812531,0.015375137,0,
00:01.9,0.004537582,0.000812531,0.015426636,0,
00:01.9,0.004508972,0.000761032,0.015420914,0,
00:01.9,0.004497528,0.000772476,0.015403748,0,
00:01.9,0.00453186,0.000812531,0.01540947,0,
00:01.9,0.004566193,0.000835419,0.015403748,0,
00:01.9,0.004526138,0.000772476,0.015375137,0,
00:01.9,0.004520416,0.00078392,0.015403748,0,
00:02.0,0.004514694,0.00078392,0.015415192,0,
00:02.0,0.004520416,0.00078392,0.015420914,0,
00:02.0,0.00453186,0.000812531,0.015398026,0,
00:02.0,0.004520416,0.000795364,0.015403748,0,
00:02.0,0.004491806,0.000772476,0.015420914,0,
00:02.0,0.004520416,0.000789642,0.015398026,0,
00:02.0,0.004554749,0.000818253,0.015398026,0,
00:02.0,0.004560471,0.000823975,0.015363693,0,
00:02.0,0.00450325,0.000772476,0.015398026,0,
00:02.0,0.004549026,0.000818253,0.015403748,0,
00:02.0,0.004560471,0.000846863,0.015386581,0,
00:02.0,0.004508972,0.000761032,0.015386581,0,
00:00:02,0.004514694,0.000772476,0.01540947,0,
00:02.0,0.00453186,0.000846863,0.015426636,0,
00:02.0,0.004560471,0.000835419,0.015375137,0,
00:02.0,0.004526138,0.000766754,0.015357971,0,
00:02.0,0.004491806,0.000761032,0.015398026,0,
00:02.0,0.004537582,0.000801086,0.015403748,0,
00:02.0,0.004537582,0.000829697,0.015420914,0,
00:02.0,0.00450325,0.000801086,0.015392303,0,
00:02.0,0.00450325,0.000772476,0.015403748,0,
00:02.0,0.004526138,0.000806808,0.01540947,0,
00:02.0,0.004514694,0.00078392,0.015398026,0,
00:02.0,0.004537582,0.000801086,0.015392303,0,
00:02.0,0.004537582,0.000823975,0.015386581,0,
00:02.1,0.004508972,0.00078392,0.015375137,0,
00:02.1,0.004514694,0.000772476,0.01540947,0,
00:02.1,0.004491806,0.000749588,0.015403748,0,
00:02.1,0.004520416,0.000812531,0.015375137,0,
00:02.1,0.004554749,0.000841141,0.015357971,0,
00:02.1,0.00453186,0.000801086,0.015392303,0,
00:02.1,0.004526138,0.00078392,0.015386581,0,
00:02.1,0.00453186,0.000789642,0.01540947,0,
00:02.1,0.00450325,0.000789642,0.01540947,0,
00:02.1,0.00453186,0.000818253,0.015398026,0,
00:02.1,0.00453186,0.000806808,0.015380859,0,
00:02.1,0.004554749,0.000829697,0.015380859,0,
00:02.1,0.00453186,0.000801086,0.015398026,0,
00:02.1,0.004514694,0.000795364,0.015403748,0,
00:02.1,0.004491806,0.000772476,0.015398026,0,
00:02.1,0.004508972,0.000761032,0.015398026,0,
00:02.1,0.004537582,0.000823975,0.015375137,0,
00:02.1,0.004520416,0.000789642,0.015403748,0,
00:02.1,0.004508972,0.000795364,0.015403748,0,
00:02.1,0.004520416,0.000806808,0.015392303,0,
00:02.1,0.004520416,0.000801086,0.015386581,0,
00:02.1,0.004514694,0.000806808,0.015392303,0,
00:02.1,0.004514694,0.000795364,0.015392303,0,
00:02.1,0.004508972,0.000789642,0.015375137,0,
00:02.1,0.00450325,0.000778198,0.015380859,0,
00:02.2,0.004543304,0.000818253,0.015363693,0,
00:02.2,0.004549026,0.000829697,0.015386581,0,
00:02.2,0.004508972,0.00078392,0.015403748,0,
00:02.2,0.004480362,0.000766754,0.015386581,0,
00:02.2,0.004514694,0.00078392,0.01540947,0,
00:02.2,0.004537582,0.000812531,0.015403748,0,
00:02.2,0.004497528,0.000801086,0.015398026,0,
00:02.2,0.00453186,0.000823975,0.015380859,0,
00:02.2,0.00453186,0.000823975,0.015398026,0,
00:02.2,0.004537582,0.000772476,0.015398026,0,
00:02.2,0.00450325,0.000772476,0.015398026,0,
00:02.2,0.00453186,0.000812531,0.015375137,0,
00:02.2,0.004549026,0.000823975,0.015357971,0,
00:02.2,0.004508972,0.000795364,0.01540947,0,
00:02.2,0.004486084,0.000778198,0.01543808,0,
00:02.2,0.004520416,0.000806808,0.01540947,0,
00:02.2,0.004549026,0.000852585,0.015386581,0,
00:02.2,0.004508972,0.00078392,0.015357971,0,
00:02.2,0.004508972,0.000772476,0.01540947,0,
00:02.2,0.004514694,0.00078392,0.015415192,0,
00:02.2,0.004526138,0.000806808,0.01540947,0,
00:02.2,0.004537582,0.000812531,0.015398026,0,
00:02.2,0.004526138,0.000795364,0.015392303,0,
00:02.2,0.00450325,0.000795364,0.015420914,0,
00:02.2,0.004520416,0.000806808,0.015398026,0,
00:02.3,0.004514694,0.000806808,0.015380859,0,
00:02.3,0.00450325,0.000778198,0.015403748,0,
00:02.3,0.00450325,0.000772476,0.015392303,0,
00:02.3,0.004508972,0.000778198,0.015392303,0,
00:02.3,0.00453186,0.000806808,0.015386581,0,
00:02.3,0.004526138,0.000806808,0.015386581,0,
00:02.3,0.004468918,0.000789642,0.015420914,0,
00:02.3,0.004508972,0.000801086,0.015420914,0,
00:02.3,0.004577637,0.000829697,0.015386581,0,
00:02.3,0.004549026,0.000789642,0.015386581,0,
00:02.3,0.004514694,0.000806808,0.015426636,0,
00:02.3,0.004526138,0.000812531,0.015380859,0,
00:02.3,0.004508972,0.000766754,0.015392303,0,
00:02.3,0.004520416,0.000795364,0.01540947,0,
00:02.3,0.004520416,0.000801086,0.015375137,0,
00:02.3,0.004554749,0.000846863,0.01540947,0,
00:02.3,0.004537582,0.000846863,0.015392303,0,
00:02.3,0.004480362,0.000732422,0.015420914,0,
00:02.3,0.004491806,0.00075531,0.015415192,0,
00:02.3,0.004514694,0.000801086,0.01540947,0,
00:02.3,0.004520416,0.000812531,0.015403748,0,
00:02.3,0.004537582,0.000823975,0.015403748,0,
00:02.3,0.004520416,0.000801086,0.015426636,0,
00:02.3,0.004491806,0.000749588,0.015443802,0,
00:02.3,0.004526138,0.000835419,0.015432358,0,
00:02.4,0.004508972,0.000778198,0.015392303,0,
00:02.4,0.004486084,0.000766754,0.015380859,0,
00:02.4,0.004514694,0.000806808,0.015398026,0,
00:02.4,0.004508972,0.000801086,0.015443802,0,
00:02.4,0.00450325,0.000789642,0.015403748,0,
00:02.4,0.00453186,0.000812531,0.015392303,0,
00:02.4,0.00450325,0.00078392,0.015415192,0,
00:02.4,0.004486084,0.000789642,0.015403748,0,
00:02.4,0.00450325,0.000795364,0.015420914,0,
00:02.4,0.00450325,0.000795364,0.015426636,0,
00:02.4,0.004537582,0.000801086,0.015403748,0,
00:02.4,0.004543304,0.000801086,0.015398026,0,
00:02.4,0.004520416,0.000812531,0.015403748,0,
00:02.4,0.004526138,0.000806808,0.015420914,0,
00:02.4,0.004549026,0.000835419,0.01543808,0,
00:02.4,0.004520416,0.000806808,0.015403748,0,
00:02.4,0.004491806,0.000778198,0.01540947,0,
00:02.4,0.004508972,0.000789642,0.015403748,0,
00:02.4,0.004514694,0.000795364,0.015443802,0,
00:02.4,0.00450325,0.000789642,0.015426636,0,
00:02.4,0.004497528,0.000761032,0.015415192,0,
00:02.4,0.004526138,0.000801086,0.015426636,0,
00:02.4,0.004543304,0.000841141,0.015426636,0,
00:02.4,0.004520416,0.000801086,0.015392303,0,
00:02.4,0.004497528,0.000789642,0.01540947,0,
00:02.5,0.004497528,0.00078392,0.015426636,0,
00:02.5,0.00450325,0.000818253,0.015426636,0,
00:02.5,0.004520416,0.000806808,0.015420914,0,
00:02.5,0.004520416,0.000789642,0.015420914,0,
00:02.5,0.00450325,0.000778198,0.015420914,0,
00:02.5,0.004463196,0.000789642,0.015420914,0,
00:02.5,0.004491806,0.00078392,0.015426636,0,
00:02.5,0.00450325,0.000789642,0.01540947,0,
00:02.5,0.004520416,0.000789642,0.01540947,0,
00:02.5,0.004549026,0.000812531,0.015398026,0,
00:02.5,0.004543304,0.000823975,0.015415192,0,
00:02.5,0.004514694,0.000789642,0.015432358,0,
00:02.5,0.004497528,0.000789642,0.015415192,0,
00:02.5,0.004514694,0.000818253,0.015420914,0,
00:02.5,0.00453186,0.000818253,0.015415192,0,
00:02.5,0.004514694,0.000801086,0.015420914,0,
00:02.5,0.004514694,0.000812531,0.015432358,0,
00:02.5,0.00453186,0.000806808,0.01543808,0,
00:02.5,0.004514694,0.000795364,0.015455246,0,
00:02.5,0.004491806,0.00078392,0.015432358,0,
00:02.5,0.004508972,0.000795364,0.015426636,0,
00:02.5,0.004508972,0.000795364,0.015415192,0,
00:02.5,0.004508972,0.000789642,0.01543808,0,
00:02.5,0.00450325,0.000789642,0.015426636,0,
00:02.5,0.00450325,0.000795364,0.015443802,0,
00:02.6,0.004514694,0.000812531,0.015426636,0,
00:02.6,0.004520416,0.000812531,0.015432358,0,
00:02.6,0.004514694,0.000789642,0.015432358,0,
00:02.6,0.004514694,0.000823975,0.01543808,0,
00:02.6,0.00450325,0.000806808,0.01543808,0,
00:02.6,0.004497528,0.000795364,0.01543808,0,
00:02.6,0.004491806,0.00078392,0.015420914,0,
00:02.6,0.004480362,0.00078392,0.01543808,0,
00:02.6,0.004491806,0.000795364,0.015449524,0,
00:02.6,0.00453186,0.000789642,0.01543808,0,
00:02.6,0.004520416,0.000795364,0.015403748,0,
00:02.6,0.004526138,0.000812531,0.015415192,0,
00:02.6,0.004543304,0.000846863,0.015449524,0,
00:02.6,0.004537582,0.000835419,0.015432358,0,
00:02.6,0.00447464,0.000772476,0.015420914,0,
00:02.6,0.004486084,0.000795364,0.015426636,0,
00:02.6,0.004497528,0.000795364,0.015449524,0,
00:02.6,0.004514694,0.000795364,0.015455246,0,
00:02.6,0.004491806,0.000795364,0.015460968,0,
00:02.6,0.004497528,0.00078392,0.015443802,0,
00:02.6,0.00450325,0.000801086,0.015443802,0,
00:02.6,0.004514694,0.000841141,0.015443802,0,
00:02.6,0.004526138,0.000841141,0.015449524,0,
00:02.6,0.00450325,0.00078392,0.015443802,0,
00:02.6,0.004508972,0.000829697,0.015415192,0,
00:02.7,0.004491806,0.000778198,0.01543808,0,
00:02.7,0.004497528,0.000801086,0.015443802,0,
00:02.7,0.004514694,0.00078392,0.015426636,0,
00:02.7,0.004508972,0.000795364,0.015449524,0,
00:02.7,0.00450325,0.000801086,0.015443802,0,
00:02.7,0.004514694,0.000841141,0.015443802,0,
00:02.7,0.004486084,0.000801086,0.015415192,0,
00:02.7,0.004486084,0.000772476,0.015460968,0,
00:02.7,0.004508972,0.000795364,0.01546669,0,
00:02.7,0.004514694,0.000829697,0.015460968,0,
00:02.7,0.004514694,0.000835419,0.015449524,0,
00:02.7,0.004526138,0.000795364,0.015432358,0,
00:02.7,0.004508972,0.000801086,0.015443802,0,
00:02.7,0.004508972,0.000801086,0.015455246,0,
00:02.7,0.004526138,0.000823975,0.015449524,0,
00:02.7,0.004497528,0.000789642,0.015443802,0,
00:02.7,0.004480362,0.000795364,0.015455246,0,
00:02.7,0.004480362,0.000806808,0.015455246,0,
00:02.7,0.004514694,0.000812531,0.015443802,0,
00:02.7,0.004520416,0.000806808,0.01546669,0,
00:02.7,0.004520416,0.000823975,0.015455246,0,
00:02.7,0.004526138,0.000823975,0.01540947,0,
00:02.7,0.004549026,0.000869751,0.01543808,0,
00:02.7,0.004480362,0.000778198,0.01543808,0,
00:02.7,0.00447464,0.000778198,0.01546669,0,
00:02.8,0.004486084,0.000778198,0.015472412,0,
00:02.8,0.004514694,0.000806808,0.015443802,0,
00:02.8,0.004526138,0.000818253,0.015472412,0,
00:02.8,0.004480362,0.000778198,0.015455246,0,
00:02.8,0.004497528,0.000801086,0.01546669,0,
00:02.8,0.004497528,0.000801086,0.015455246,0,
00:02.8,0.004497528,0.000789642,0.01543808,0,
00:02.8,0.00450325,0.000789642,0.015455246,0,
00:02.8,0.004520416,0.000801086,0.015460968,0,
00:02.8,0.004486084,0.000789642,0.015455246,0,
00:02.8,0.00450325,0.000806808,0.015472412,0,
00:02.8,0.00453186,0.000846863,0.015443802,0,
00:02.8,0.004514694,0.000766754,0.015443802,0,
00:02.8,0.00450325,0.000772476,0.015455246,0,
00:02.8,0.00453186,0.000841141,0.015432358,0,
00:02.8,0.004537582,0.000835419,0.015449524,0,
00:02.8,0.004514694,0.000795364,0.015478134,0,
00:02.8,0.004514694,0.000801086,0.015472412,0,
00:02.8,0.004526138,0.000823975,0.015455246,0,
00:02.8,0.00450325,0.000841141,0.015443802,0,
00:02.8,0.004491806,0.000795364,0.015483856,0,
00:02.8,0.004508972,0.000772476,0.0154953,0,
00:02.8,0.004508972,0.000766754,0.015489578,0,
00:02.8,0.004491806,0.000778198,0.0154953,0,
00:02.8,0.004508972,0.000801086,0.0154953,0,
00:02.9,0.004520416,0.000806808,0.015460968,0,
00:02.9,0.00450325,0.00078392,0.015455246,0,
00:02.9,0.004508972,0.000795364,0.015478134,0,
00:02.9,0.004537582,0.000818253,0.015478134,0,
00:02.9,0.00450325,0.00075531,0.015478134,0,
00:02.9,0.004508972,0.000789642,0.015483856,0,
00:02.9,0.004526138,0.000823975,0.015460968,0,
00:02.9,0.00450325,0.000801086,0.015489578,0,
00:02.9,0.004508972,0.000801086,0.015501022,0,
00:02.9,0.004520416,0.000806808,0.015512466,0,
00:02.9,0.004497528,0.000818253,0.015506744,0,
00:02.9,0.004486084,0.000778198,0.015472412,0,
00:02.9,0.00453186,0.000778198,0.015478134,0,
00:02.9,0.004537582,0.000801086,0.015483856,0,
00:02.9,0.004549026,0.000829697,0.015501022,0,
00:02.9,0.004554749,0.000801086,0.015506744,0,
00:02.9,0.004508972,0.000801086,0.015512466,0,
00:02.9,0.004491806,0.000801086,0.015518188,0,
00:02.9,0.004514694,0.00078392,0.015523911,0,
00:02.9,0.00453186,0.000801086,0.015529633,0,
00:02.9,0.00453186,0.000789642,0.015518188,0,
00:02.9,0.004508972,0.000789642,0.015541077,0,
00:02.9,0.004520416,0.000795364,0.015546799,0,
00:02.9,0.004526138,0.000806808,0.015529633,0,
00:02.9,0.00453186,0.000789642,0.015512466,0,
00:03.0,0.004520416,0.000789642,0.015535355,0,
00:03.0,0.004508972,0.000789642,0.015518188,0,
00:03.0,0.00450325,0.000789642,0.015546799,0,
00:03.0,0.004549026,0.000818253,0.015535355,0,
00:03.0,0.004508972,0.000789642,0.015546799,0,
00:03.0,0.00450325,0.000778198,0.015552521,0,
00:03.0,0.004514694,0.00078392,0.015552521,0,
00:03.0,0.00453186,0.000801086,0.015541077,0,
00:03.0,0.00450325,0.00078392,0.015581131,0,
00:03.0,0.00450325,0.000806808,0.015569687,0,
00:03.0,0.004554749,0.000818253,0.015558243,0,
00:03.0,0.004520416,0.000772476,0.015523911,0,
00:00:03,0.004537582,0.000789642,0.015535355,0,
00:03.0,0.004560471,0.000818253,0.015575409,0,
00:03.0,0.004549026,0.000801086,0.015575409,0,
00:03.0,0.004543304,0.000801086,0.015563965,0,
00:03.0,0.00453186,0.000806808,0.015569687,0,
00:03.0,0.00453186,0.000806808,0.015598297,0,
00:03.0,0.004514694,0.00078392,0.015563965,0,
00:03.0,0.004543304,0.00078392,0.015604019,0,
00:03.0,0.004566193,0.000818253,0.015592575,0,
00:03.0,0.004537582,0.000801086,0.015586853,0,
00:03.0,0.004497528,0.000772476,0.015598297,0,
00:03.0,0.004526138,0.000778198,0.015604019,0,
00:03.0,0.004549026,0.000812531,0.015604019,0,
00:03.1,0.004554749,0.000818253,0.015609741,0,
00:03.1,0.004549026,0.000806808,0.015598297,0,
00:03.1,0.004543304,0.000795364,0.015592575,0,
00:03.1,0.004543304,0.000806808,0.015626907,0,
00:03.1,0.004537582,0.00075531,0.015638351,0,
00:03.1,0.004549026,0.00078392,0.015598297,0,
00:03.1,0.00453186,0.000789642,0.015621185,0,
00:03.1,0.004543304,0.000772476,0.015638351,0,
00:03.1,0.004537582,0.000772476,0.015644073,0,
00:03.1,0.004554749,0.000812531,0.015609741,0,
00:03.1,0.004589081,0.000823975,0.015586853,0,
00:03.1,0.004549026,0.000778198,0.015638351,0,
00:03.1,0.004543304,0.000795364,0.015649796,0,
00:03.1,0.004549026,0.000812531,0.015655518,0,
00:03.1,0.004560471,0.000761032,0.015666962,0,
00:03.1,0.004543304,0.000789642,0.015666962,0,
00:03.1,0.004566193,0.000823975,0.01566124,0,
00:03.1,0.004560471,0.000812531,0.015626907,0,
00:03.1,0.004566193,0.000823975,0.015649796,0,
00:03.1,0.004554749,0.000795364,0.015695572,0,
00:03.1,0.004566193,0.000801086,0.015701294,0,
00:03.1,0.004577637,0.000789642,0.015684128,0,
00:03.1,0.004554749,0.000732422,0.015672684,0,
00:03.1,0.004560471,0.00078392,0.01568985,0,
00:03.1,0.004577637,0.000835419,0.015701294,0,
00:03.2,0.004583359,0.000812531,0.015666962,0,
00:03.2,0.004560471,0.00075531,0.01568985,0,
00:03.2,0.004560471,0.00075531,0.015695572,0,
00:03.2,0.004560471,0.000766754,0.015707016,0,
00:03.2,0.004571915,0.000795364,0.015701294,0,
00:03.2,0.004589081,0.000812531,0.01568985,0,
00:03.2,0.004577637,0.000801086,0.015707016,0,
00:03.2,0.004566193,0.000789642,0.01571846,0,
00:03.2,0.004560471,0.000766754,0.015729904,0,
00:03.2,0.004577637,0.00078392,0.015729904,0,
00:03.2,0.004583359,0.000795364,0.015701294,0,
00:03.2,0.004537582,0.00078392,0.015695572,0,
00:03.2,0.004560471,0.000818253,0.015741348,0,
00:03.2,0.004606247,0.000829697,0.015741348,0,
00:03.2,0.004577637,0.000772476,0.015735626,0,
00:03.2,0.004583359,0.000766754,0.015735626,0,
00:03.2,0.004583359,0.000789642,0.01574707,0,
00:03.2,0.004600525,0.000835419,0.015769958,0,
00:03.2,0.004600525,0.000812531,0.01574707,0,
00:03.2,0.004629135,0.000823975,0.015752792,0,
00:03.2,0.004606247,0.000789642,0.015729904,0,
00:03.2,0.004560471,0.000715256,0.015775681,0,
00:03.2,0.004571915,0.000743866,0.015787125,0,
00:03.2,0.004600525,0.000789642,0.015758514,0,
00:03.2,0.004600525,0.000818253,0.015764236,0,
00:03.3,0.004583359,0.000801086,0.015752792,0,
00:03.3,0.004606247,0.000812531,0.015781403,0,
00:03.3,0.004589081,0.000801086,0.015787125,0,
00:03.3,0.004571915,0.000766754,0.015792847,0,
00:03.3,0.004589081,0.000778198,0.015787125,0,
00:03.3,0.004600525,0.00078392,0.015775681,0,
00:03.3,0.004606247,0.000806808,0.015752792,0,
00:03.3,0.004623413,0.000795364,0.015775681,0,
00:03.3,0.004594803,0.00075531,0.015775681,0,
00:03.3,0.004589081,0.000766754,0.015810013,0,
00:03.3,0.004600525,0.000789642,0.015798569,0,
00:03.3,0.004617691,0.000795364,0.015775681,0,
00:03.3,0.004611969,0.000818253,0.015810013,0,
00:03.3,0.004583359,0.000812531,0.015815735,0,
00:03.3,0.004611969,0.00075531,0.015827179,0,
00:03.3,0.004640579,0.000806808,0.015810013,0,
00:03.3,0.004600525,0.000778198,0.015810013,0,
00:03.3,0.004600525,0.000766754,0.015815735,0,
00:03.3,0.004611969,0.000772476,0.015815735,0,
00:03.3,0.004657745,0.000846863,0.015810013,0,
00:03.3,0.004674911,0.000835419,0.015838623,0,
00:03.3,0.004589081,0.000761032,0.015815735,0,
00:03.3,0.004589081,0.000749588,0.015810013,0,
00:03.3,0.004623413,0.000772476,0.015855789,0,
00:03.3,0.004623413,0.00078392,0.015855789,0,
00:03.4,0.004634857,0.000801086,0.015850067,0,
00:03.4,0.004623413,0.000761032,0.015815735,0,
00:03.4,0.004646301,0.000772476,0.015838623,0,
00:03.4,0.004617691,0.000766754,0.015844345,0,
00:03.4,0.004606247,0.00078392,0.015850067,0,
00:03.4,0.004611969,0.000789642,0.015821457,0,
00:03.4,0.004623413,0.000789642,0.015821457,0,
00:03.4,0.004634857,0.000795364,0.015861511,0,
00:03.4,0.004623413,0.00078392,0.015855789,0,
00:03.4,0.004617691,0.000766754,0.015844345,0,
00:03.4,0.004646301,0.000789642,0.015832901,0,
00:03.4,0.004629135,0.000778198,0.015861511,0,
00:03.4,0.004640579,0.000766754,0.015855789,0,
00:03.4,0.004657745,0.000818253,0.015850067,0,
00:03.4,0.004652023,0.000795364,0.015855789,0,
00:03.4,0.004646301,0.000806808,0.015867233,0,
00:03.4,0.004646301,0.000778198,0.015838623,0,
00:03.4,0.004669189,0.000732422,0.015872955,0,
00:03.4,0.004709244,0.000778198,0.015884399,0,
00:03.4,0.004709244,0.000829697,0.015838623,0,
00:03.4,0.004640579,0.000795364,0.015821457,0,
00:03.4,0.004657745,0.000778198,0.015850067,0,
00:03.4,0.0046978,0.000795364,0.015838623,0,
00:03.4,0.0046978,0.000766754,0.015850067,0,
00:03.4,0.004686356,0.000789642,0.015867233,0,
00:03.5,0.004617691,0.000766754,0.015838623,0,
00:03.5,0.004652023,0.000778198,0.015861511,0,
00:03.5,0.004703522,0.000795364,0.015895844,0,
00:03.5,0.004652023,0.000812531,0.015815735,0,
00:03.5,0.004617691,0.000818253,0.015844345,0,
00:03.5,0.004617691,0.00078392,0.015878677,0,
00:03.5,0.004629135,0.00075531,0.015924454,0,
00:03.5,0.004611969,0.000766754,0.015890121,0,
00:03.5,0.004634857,0.000789642,0.01591301,0,
00:03.5,0.004640579,0.000795364,0.015924454,0,
00:03.5,0.004692078,0.000795364,0.015924454,0,
00:03.5,0.004623413,0.000738144,0.015884399,0,
00:03.5,0.004640579,0.000801086,0.015872955,0,
00:03.5,0.004629135,0.000778198,0.015901566,0,
00:03.5,0.004657745,0.000823975,0.015878677,0,
00:03.5,0.004652023,0.000789642,0.015890121,0,
00:03.5,0.004640579,0.00078392,0.015878677,0,
00:03.5,0.004634857,0.000772476,0.015872955,0,
00:03.5,0.004623413,0.000749588,0.015884399,0,
00:03.5,0.004674911,0.000841141,0.015878677,0,
00:03.5,0.004669189,0.000801086,0.015884399,0,
00:03.5,0.004657745,0.000801086,0.015884399,0,
00:03.5,0.004652023,0.000749588,0.015907288,0,
00:03.5,0.004663467,0.000766754,0.015918732,0,
00:03.5,0.004652023,0.000789642,0.015884399,0,
00:03.6,0.004652023,0.000789642,0.015872955,0,
00:03.6,0.004686356,0.000841141,0.015850067,0,
00:03.6,0.004617691,0.000778198,0.015855789,0,
00:03.6,0.004606247,0.000732422,0.015901566,0,
00:03.6,0.004657745,0.000778198,0.015901566,0,
00:03.6,0.004674911,0.000801086,0.015827179,0,
00:03.6,0.004663467,0.000778198,0.015855789,0,
00:03.6,0.004669189,0.000766754,0.015872955,0,
00:03.6,0.004646301,0.000806808,0.015861511,0,
00:03.6,0.004669189,0.000778198,0.015890121,0,
00:03.6,0.004686356,0.00078392,0.015884399,0,
00:03.6,0.004652023,0.000772476,0.015838623,0,
00:03.6,0.004623413,0.000732422,0.015872955,0,
00:03.6,0.004657745,0.000789642,0.015861511,0,
00:03.6,0.004663467,0.000795364,0.015850067,0,
00:03.6,0.004652023,0.000789642,0.015861511,0,
00:03.6,0.004669189,0.00075531,0.015850067,0,
00:03.6,0.004703522,0.000812531,0.015850067,0,
00:03.6,0.0046978,0.000858307,0.015832901,0,
00:03.6,0.004674911,0.000835419,0.015821457,0,
00:03.6,0.004629135,0.000720978,0.015867233,0,
00:03.6,0.004634857,0.000738144,0.015890121,0,
00:03.6,0.004652023,0.000789642,0.015844345,0,
00:03.6,0.004657745,0.000766754,0.015844345,0,
00:03.6,0.004657745,0.000806808,0.015792847,0,
00:03.7,0.004680634,0.000818253,0.015804291,0,
00:03.7,0.004657745,0.000761032,0.015855789,0,
00:03.7,0.004657745,0.000772476,0.015832901,0,
00:03.7,0.004674911,0.00078392,0.015838623,0,
00:03.7,0.004663467,0.000795364,0.015838623,0,
00:03.7,0.004686356,0.000789642,0.015827179,0,
00:03.7,0.004652023,0.000738144,0.015838623,0,
00:03.7,0.004634857,0.000749588,0.015815735,0,
00:03.7,0.004669189,0.000801086,0.015810013,0,
00:03.7,0.004674911,0.000801086,0.015821457,0,
00:03.7,0.004663467,0.000812531,0.015798569,0,
00:03.7,0.004657745,0.00078392,0.015792847,0,
00:03.7,0.004674911,0.000749588,0.015832901,0,
00:03.7,0.0046978,0.000795364,0.015810013,0,
00:03.7,0.004669189,0.000789642,0.015769958,0,
00:03.7,0.004669189,0.000778198,0.015804291,0,
00:03.7,0.004657745,0.000778198,0.015804291,0,
00:03.7,0.004652023,0.000772476,0.015798569,0,
00:03.7,0.004652023,0.000772476,0.015775681,0,
00:03.7,0.004680634,0.000841141,0.015764236,0,
00:03.7,0.004663467,0.000789642,0.015781403,0,
00:03.7,0.004623413,0.000703812,0.015781403,0,
00:03.7,0.004657745,0.000766754,0.015769958,0,
00:03.7,0.004692078,0.000841141,0.015769958,0,
00:03.7,0.004692078,0.000823975,0.015775681,0,
00:03.8,0.004669189,0.000801086,0.01574707,0,
00:03.8,0.004674911,0.000761032,0.015752792,0,
00:03.8,0.004663467,0.0007267,0.015712738,0,
00:03.8,0.004646301,0.000743866,0.015735626,0,
00:03.8,0.0046978,0.000823975,0.015752792,0,
00:03.8,0.0046978,0.000823975,0.015707016,0,
00:03.8,0.004629135,0.00075531,0.015707016,0,
00:03.8,0.004640579,0.000749588,0.015712738,0,
00:03.8,0.004709244,0.000795364,0.015735626,0,
00:03.8,0.00472641,0.000806808,0.015724182,0,
00:03.8,0.004669189,0.000766754,0.015695572,0,
00:03.8,0.004674911,0.000778198,0.015672684,0,
00:03.8,0.004703522,0.000823975,0.015672684,0,
00:03.8,0.004686356,0.000766754,0.015672684,0,
00:03.8,0.004669189,0.000749588,0.015672684,0,
00:03.8,0.004686356,0.000801086,0.015655518,0,
00:03.8,0.004652023,0.00075531,0.015649796,0,
00:03.8,0.004640579,0.000761032,0.01566124,0,
00:03.8,0.004663467,0.000806808,0.015649796,0,
00:03.8,0.004703522,0.000823975,0.015649796,0,
00:03.8,0.004703522,0.000823975,0.015598297,0,
00:03.8,0.004634857,0.000766754,0.015609741,0,
00:03.8,0.004646301,0.00075531,0.015655518,0,
00:03.8,0.004674911,0.000806808,0.015644073,0,
00:03.8,0.004680634,0.000761032,0.015604019,0,
00:03.9,0.004692078,0.000766754,0.015604019,0,
00:03.9,0.004703522,0.000806808,0.015626907,0,
00:03.9,0.004692078,0.000829697,0.015609741,0,
00:03.9,0.004640579,0.000789642,0.015615463,0,
00:03.9,0.004652023,0.000766754,0.015592575,0,
00:03.9,0.004657745,0.000766754,0.015563965,0,
00:03.9,0.004686356,0.000789642,0.015604019,0,
00:03.9,0.004680634,0.000806808,0.015569687,0,
00:03.9,0.004686356,0.000772476,0.015523911,0,
00:03.9,0.004652023,0.000738144,0.015581131,0,
00:03.9,0.004652023,0.000761032,0.015546799,0,
00:03.9,0.004703522,0.000823975,0.015535355,0,
00:03.9,0.004720688,0.000852585,0.015518188,0,
00:03.9,0.004611969,0.000720978,0.015541077,0,
00:03.9,0.004669189,0.000778198,0.015512466,0,
00:03.9,0.0046978,0.000801086,0.015518188,0,
00:03.9,0.004674911,0.000789642,0.015518188,0,
00:03.9,0.004640579,0.000743866,0.015541077,0,
00:03.9,0.004657745,0.000766754,0.015518188,0,
00:03.9,0.004703522,0.000812531,0.01546669,0,
00:03.9,0.004743576,0.000864029,0.015483856,0,
00:03.9,0.004674911,0.000749588,0.01546669,0,
00:03.9,0.004640579,0.000743866,0.015501022,0,
00:03.9,0.004680634,0.000789642,0.015478134,0,
00:03.9,0.004714966,0.000806808,0.015489578,0,
00:04.0,0.004657745,0.000743866,0.015472412,0,
00:04.0,0.004634857,0.000766754,0.015443802,0,
00:04.0,0.004669189,0.000778198,0.015460968,0,
00:04.0,0.004709244,0.000823975,0.015449524,0,
00:04.0,0.0046978,0.000841141,0.01540947,0,
00:04.0,0.004623413,0.000709534,0.015432358,0,
00:04.0,0.004634857,0.000738144,0.015420914,0,
00:04.0,0.004680634,0.00078392,0.015415192,0,
00:04.0,0.004686356,0.000789642,0.01540947,0,
00:04.0,0.004669189,0.000761032,0.015369415,0,
00:04.0,0.004669189,0.000772476,0.015369415,0,
00:04.0,0.004669189,0.000772476,0.015386581,0,
00:00:04,0.004663467,0.000778198,0.015375137,0,
00:04.0,0.004686356,0.00078392,0.015340805,0,
00:04.0,0.004680634,0.000806808,0.015369415,0,
00:04.0,0.004714966,0.000858307,0.015335083,0,
00:04.0,0.004686356,0.00078392,0.015300751,0,
00:04.0,0.004617691,0.00069809,0.015380859,0,
00:04.0,0.004652023,0.000743866,0.015380859,0,
00:04.0,0.004692078,0.000841141,0.015363693,0,
00:04.0,0.004692078,0.000829697,0.015306473,0,
00:04.0,0.004669189,0.00075531,0.015323639,0,
00:04.0,0.004669189,0.00075531,0.015335083,0,
00:04.0,0.0046978,0.000801086,0.015312195,0,
00:04.0,0.004686356,0.000823975,0.015283585,0,
00:04.1,0.004634857,0.0007267,0.015317917,0,
00:04.1,0.004674911,0.000789642,0.015266418,0,
00:04.1,0.004674911,0.000766754,0.015266418,0,
00:04.1,0.004663467,0.000766754,0.015295029,0,
00:04.1,0.004646301,0.000795364,0.015277863,0,
00:04.1,0.004652023,0.00075531,0.015283585,0,
00:04.1,0.004674911,0.000772476,0.01524353,0,
00:04.1,0.004669189,0.000778198,0.015220642,0,
00:04.1,0.004657745,0.000778198,0.015277863,0,
00:04.1,0.004652023,0.000772476,0.015272141,0,
00:04.1,0.004669189,0.000761032,0.015220642,0,
00:04.1,0.004652023,0.00078392,0.015237808,0,
00:04.1,0.004669189,0.000812531,0.015226364,0,
00:04.1,0.004669189,0.000789642,0.015226364,0,
00:04.1,0.004652023,0.00078392,0.01521492,0,
00:04.1,0.004680634,0.00078392,0.015203476,0,
00:04.1,0.004680634,0.000789642,0.015197754,0,
00:04.1,0.004674911,0.00078392,0.01518631,0,
00:04.1,0.004640579,0.000761032,0.015197754,0,
00:04.1,0.004674911,0.000835419,0.015169144,0,
00:04.1,0.004652023,0.00078392,0.015146255,0,
00:04.1,0.004634857,0.000761032,0.015169144,0,
00:04.1,0.004692078,0.000801086,0.015180588,0,
00:04.1,0.004680634,0.000778198,0.015146255,0,
00:04.1,0.004674911,0.000806808,0.015106201,0,
00:04.2,0.004657745,0.000749588,0.015163422,0,
00:04.2,0.004663467,0.000761032,0.015146255,0,
00:04.2,0.004674911,0.000818253,0.015117645,0,
00:04.2,0.004680634,0.000812531,0.015146255,0,
00:04.2,0.004640579,0.000738144,0.015140533,0,
00:04.2,0.004657745,0.000778198,0.015111923,0,
00:04.2,0.004634857,0.000795364,0.015117645,0,
00:04.2,0.004640579,0.000789642,0.015111923,0,
00:04.2,0.004680634,0.000795364,0.015077591,0,
00:04.2,0.004674911,0.000795364,0.015066147,0,
00:04.2,0.004634857,0.000732422,0.015100479,0,
00:04.2,0.004663467,0.000761032,0.015077591,0,
00:04.2,0.004657745,0.00078392,0.015060425,0,
00:04.2,0.004663467,0.000806808,0.015100479,0,
00:04.2,0.004680634,0.000835419,0.015071869,0,
00:04.2,0.004646301,0.000743866,0.015066147,0,
00:04.2,0.004594803,0.000738144,0.015060425,0,
00:04.2,0.004634857,0.000766754,0.015043259,0,
00:04.2,0.004680634,0.000789642,0.015060425,0,
00:04.2,0.004686356,0.000835419,0.015037537,0,
00:04.2,0.004669189,0.000789642,0.01502037,0,
00:04.2,0.004652023,0.000772476,0.015043259,0,
00:04.2,0.004629135,0.000761032,0.015026093,0,
00:04.2,0.004692078,0.000823975,0.01502037,0,
00:04.2,0.004674911,0.000772476,0.01502037,0,
00:04.3,0.004640579,0.000761032,0.015008926,0,
00:04.3,0.004680634,0.000778198,0.015014648,0,
00:04.3,0.004646301,0.000766754,0.014997482,0,
00:04.3,0.004640579,0.000801086,0.014974594,0,
00:04.3,0.004646301,0.000772476,0.014986038,0,
00:04.3,0.004657745,0.000766754,0.015008926,0,
00:04.3,0.004709244,0.000864029,0.014986038,0,
00:04.3,0.004663467,0.000761032,0.014940262,0,
00:04.3,0.004634857,0.000732422,0.014980316,0,
00:04.3,0.004652023,0.00078392,0.014980316,0,
00:04.3,0.004657745,0.000789642,0.014940262,0,
00:04.3,0.004652023,0.000795364,0.014974594,0,
00:04.3,0.004674911,0.000795364,0.014923096,0,
00:04.3,0.004646301,0.00075531,0.01493454,0,
00:04.3,0.004686356,0.000823975,0.01496315,0,
00:04.3,0.004669189,0.000778198,0.014945984,0,
00:04.3,0.004669189,0.000761032,0.014940262,0,
00:04.3,0.004629135,0.000761032,0.014917374,0,
00:04.3,0.004646301,0.000778198,0.014928818,0,
00:04.3,0.004669189,0.000806808,0.014917374,0,
00:04.3,0.004686356,0.000818253,0.014940262,0,
00:04.3,0.004674911,0.000772476,0.014917374,0,
00:04.3,0.004674911,0.000841141,0.014900208,0,
00:04.3,0.004652023,0.000772476,0.014900208,0,
00:04.3,0.004617691,0.000720978,0.014911652,0,
00:04.4,0.004629135,0.00075531,0.014917374,0,
00:04.4,0.004657745,0.000778198,0.014894485,0,
00:04.4,0.004640579,0.000778198,0.014888763,0,
00:04.4,0.004657745,0.000801086,0.014923096,0,
00:04.4,0.004674911,0.000795364,0.014900208,0,
00:04.4,0.004657745,0.000801086,0.014900208,0,
00:04.4,0.004663467,0.000778198,0.014842987,0,
00:04.4,0.004663467,0.00078392,0.014883041,0,
00:04.4,0.004640579,0.000766754,0.014894485,0,
00:04.4,0.004652023,0.000761032,0.014894485,0,
00:04.4,0.004623413,0.00075531,0.014865875,0,
00:04.4,0.004640579,0.000761032,0.014848709,0,
00:04.4,0.004663467,0.00078392,0.014848709,0,
00:04.4,0.004674911,0.000789642,0.014854431,0,
00:04.4,0.004640579,0.00078392,0.014837265,0,
00:04.4,0.004640579,0.000772476,0.014837265,0,
00:04.4,0.004680634,0.000795364,0.014820099,0,
00:04.4,0.004669189,0.000801086,0.014825821,0,
00:04.4,0.004652023,0.000772476,0.014848709,0,
00:04.4,0.004663467,0.00078392,0.014837265,0,
00:04.4,0.004663467,0.000801086,0.014825821,0,
00:04.4,0.004657745,0.000812531,0.014837265,0,
00:04.4,0.004657745,0.000778198,0.014848709,0,
00:04.4,0.004652023,0.000778198,0.014837265,0,
00:04.4,0.004646301,0.000789642,0.014837265,0,
00:04.5,0.004646301,0.00075531,0.014820099,0,
00:04.5,0.004629135,0.000778198,0.014820099,0,
00:04.5,0.004652023,0.000795364,0.014802933,0,
00:04.5,0.004652023,0.000778198,0.014825821,0,
00:04.5,0.004646301,0.000778198,0.014808655,0,
00:04.5,0.004663467,0.000829697,0.014802933,0,
00:04.5,0.004640579,0.00078392,0.014785767,0,
00:04.5,0.004617691,0.000761032,0.014802933,0,
00:04.5,0.004640579,0.000801086,0.014791489,0,
00:04.5,0.004646301,0.00078392,0.014797211,0,
00:04.5,0.004646301,0.000772476,0.014808655,0,
00:04.5,0.004646301,0.000766754,0.014797211,0,
00:04.5,0.004629135,0.000766754,0.014797211,0,
00:04.5,0.004640579,0.000778198,0.014785767,0,
00:04.5,0.004674911,0.000829697,0.014774323,0,
00:04.5,0.004640579,0.000801086,0.014785767,0,
00:04.5,0.004617691,0.00075531,0.0147686,0,
00:04.5,0.004646301,0.00078392,0.0147686,0,
00:04.5,0.004674911,0.000801086,0.014802933,0,
00:04.5,0.004640579,0.000766754,0.0147686,0,
00:04.5,0.004646301,0.00078392,0.014751434,0,
00:04.5,0.004652023,0.000823975,0.014751434,0,
00:04.5,0.004617691,0.000778198,0.014780045,0,
00:04.5,0.004640579,0.000829697,0.014774323,0,
00:04.5,0.004640579,0.000801086,0.014785767,0,
00:04.6,0.004640579,0.000789642,0.014762878,0,
00:04.6,0.004652023,0.000801086,0.014751434,0,
00:04.6,0.004617691,0.000743866,0.014745712,0,
00:04.6,0.004640579,0.000806808,0.014734268,0,
00:04.6,0.004652023,0.000818253,0.01473999,0,
00:04.6,0.004646301,0.000789642,0.014762878,0,
00:04.6,0.004623413,0.000738144,0.014751434,0,
00:04.6,0.004623413,0.00075531,0.014762878,0,
00:04.6,0.004617691,0.000778198,0.014774323,0,
00:04.6,0.004640579,0.000829697,0.014757156,0,
00:04.6,0.004634857,0.000772476,0.014722824,0,
00:04.6,0.004640579,0.000772476,0.01473999,0,
00:04.6,0.004646301,0.000772476,0.0147686,0,
00:04.6,0.004606247,0.000772476,0.014745712,0,
00:04.6,0.004640579,0.000801086,0.01473999,0,
00:04.6,0.004634857,0.000801086,0.014757156,0,
00:04.6,0.004617691,0.000778198,0.014734268,0,
00:04.6,0.004634857,0.000778198,0.014751434,0,
00:04.6,0.004640579,0.00078392,0.014745712,0,
00:04.6,0.004652023,0.000801086,0.014734268,0,
00:04.6,0.004646301,0.000789642,0.014722824,0,
00:04.6,0.004674911,0.000818253,0.014751434,0,
00:04.6,0.004674911,0.000846863,0.01473999,0,
00:04.6,0.004606247,0.000749588,0.01473999,0,
00:04.6,0.004611969,0.000761032,0.01473999,0,
00:04.7,0.004640579,0.000801086,0.01473999,0,
00:04.7,0.004657745,0.000829697,0.014745712,0,
00:04.7,0.004634857,0.000795364,0.01473999,0,
00:04.7,0.004629135,0.000766754,0.014751434,0,
00:04.7,0.004611969,0.000749588,0.01473999,0,
00:04.7,0.004634857,0.000789642,0.01473999,0,
00:04.7,0.004634857,0.00078392,0.014728546,0,
00:04.7,0.004652023,0.000801086,0.01473999,0,
00:04.7,0.004657745,0.000806808,0.014722824,0,
00:04.7,0.004634857,0.00078392,0.014728546,0,
00:04.7,0.004640579,0.000801086,0.014722824,0,
00:04.7,0.004629135,0.000801086,0.014734268,0,
00:04.7,0.004634857,0.00078392,0.014722824,0,
00:04.7,0.004617691,0.00075531,0.01471138,0,
00:04.7,0.004634857,0.000789642,0.01473999,0,
00:04.7,0.004652023,0.000818253,0.014734268,0,
00:04.7,0.004623413,0.000778198,0.014745712,0,
00:04.7,0.004623413,0.000772476,0.014757156,0,
00:04.7,0.004634857,0.000801086,0.014757156,0,
00:04.7,0.004640579,0.000829697,0.014751434,0,
00:04.7,0.004634857,0.000818253,0.014745712,0,
00:04.7,0.004663467,0.000795364,0.01473999,0,
00:04.7,0.004674911,0.000829697,0.014728546,0,
00:04.7,0.004629135,0.00078392,0.014717102,0,
00:04.7,0.004617691,0.000732422,0.01473999,0,
00:04.8,0.004640579,0.000806808,0.014734268,0,
00:04.8,0.004640579,0.000812531,0.014722824,0,
00:04.8,0.004629135,0.00078392,0.014728546,0,
00:04.8,0.004646301,0.000829697,0.01473999,0,
00:04.8,0.004669189,0.000841141,0.014745712,0,
00:04.8,0.004634857,0.00078392,0.014751434,0,
00:04.8,0.004617691,0.000749588,0.014751434,0,
00:04.8,0.004640579,0.000789642,0.014734268,0,
00:04.8,0.004640579,0.000801086,0.014745712,0,
00:04.8,0.004652023,0.000812531,0.014745712,0,
00:04.8,0.004646301,0.000789642,0.014728546,0,
00:04.8,0.004600525,0.000789642,0.014751434,0,
00:04.8,0.004600525,0.000789642,0.01473999,0,
00:04.8,0.004669189,0.000806808,0.01473999,0,
00:04.8,0.004663467,0.000823975,0.014757156,0,
00:04.8,0.004634857,0.000789642,0.01473999,0,
00:04.8,0.004634857,0.000766754,0.01471138,0,
00:04.8,0.004663467,0.000823975,0.014762878,0,
00:04.8,0.004640579,0.000795364,0.0147686,0,
00:04.8,0.004634857,0.000795364,0.0147686,0,
00:04.8,0.004629135,0.000795364,0.014734268,0,
00:04.8,0.004646301,0.000801086,0.01473999,0,
00:04.8,0.004657745,0.000829697,0.014751434,0,
00:04.8,0.004646301,0.000795364,0.014774323,0,
00:04.8,0.004646301,0.000823975,0.014780045,0,
00:04.9,0.004600525,0.000795364,0.014762878,0,
00:04.9,0.004589081,0.000778198,0.014745712,0,
00:04.9,0.004577637,0.000743866,0.014780045,0,
00:04.9,0.004646301,0.000795364,0.014762878,0,
00:04.9,0.004674911,0.000823975,0.014745712,0,
00:04.9,0.004686356,0.000846863,0.014762878,0,
00:04.9,0.004652023,0.000812531,0.014751434,0,
00:04.9,0.004657745,0.000806808,0.0147686,0,
00:04.9,0.004646301,0.000801086,0.0147686,0,
00:04.9,0.004617691,0.000789642,0.014780045,0,
00:04.9,0.004634857,0.000801086,0.014762878,0,
00:04.9,0.004623413,0.000812531,0.014774323,0,
00:04.9,0.004623413,0.000789642,0.0147686,0,
00:04.9,0.004623413,0.000801086,0.014780045,0,
00:04.9,0.004634857,0.000823975,0.014774323,0,
00:04.9,0.004634857,0.000806808,0.014785767,0,
00:04.9,0.004611969,0.00078392,0.014774323,0,
00:04.9,0.004663467,0.000806808,0.014757156,0,
00:04.9,0.004646301,0.000801086,0.014757156,0,
00:04.9,0.004640579,0.000806808,0.014780045,0,
00:04.9,0.004669189,0.000795364,0.014797211,0,
00:04.9,0.004617691,0.000789642,0.014825821,0,
00:04.9,0.004646301,0.000846863,0.014774323,0,
00:04.9,0.004652023,0.000829697,0.014757156,0,
00:04.9,0.004611969,0.000749588,0.014814377,0,
00:05.0,0.004617691,0.000778198,0.014820099,0,
00:05.0,0.004634857,0.000806808,0.014802933,0,
00:05.0,0.004629135,0.000801086,0.014791489,0,
00:05.0,0.004640579,0.000818253,0.014785767,0,
00:05.0,0.004657745,0.000835419,0.014820099,0,
00:05.0,0.004629135,0.000806808,0.014791489,0,
00:05.0,0.004617691,0.000778198,0.014791489,0,
00:05.0,0.004623413,0.000778198,0.014820099,0,
00:05.0,0.004617691,0.000801086,0.014808655,0,
00:05.0,0.004652023,0.000829697,0.014814377,0,
00:05.0,0.004680634,0.000858307,0.014808655,0,
00:05.0,0.004623413,0.000801086,0.014802933,0,
00:00:05,0.004617691,0.000766754,0.014814377,0,
00:05.0,0.004611969,0.000778198,0.014842987,0,
00:05.0,0.004617691,0.000812531,0.014831543,0,
00:05.0,0.0046978,0.000858307,0.014791489,0,
00:05.0,0.004663467,0.000801086,0.014814377,0,
00:05.0,0.004629135,0.000818253,0.014825821,0,
00:05.0,0.004623413,0.000823975,0.014814377,0,
00:05.0,0.004623413,0.00078392,0.014825821,0,
00:05.0,0.004640579,0.000806808,0.014831543,0,
00:05.0,0.004646301,0.000812531,0.014842987,0,
00:05.0,0.004623413,0.000789642,0.014842987,0,
00:05.0,0.004623413,0.000801086,0.014837265,0,
00:05.0,0.004634857,0.000801086,0.014808655,0,
00:05.1,0.004629135,0.000801086,0.014837265,0,
00:05.1,0.004634857,0.000778198,0.014848709,0,
00:05.1,0.004640579,0.000801086,0.014848709,0,
00:05.1,0.004657745,0.000846863,0.014837265,0,
00:05.1,0.004640579,0.000823975,0.014831543,0,
00:05.1,0.004646301,0.000806808,0.014854431,0,
00:05.1,0.004606247,0.00078392,0.014883041,0,
00:05.1,0.004606247,0.000795364,0.014883041,0,
00:05.1,0.004646301,0.000806808,0.014877319,0,
00:05.1,0.004629135,0.000829697,0.014854431,0,
00:05.1,0.004652023,0.000812531,0.014854431,0,
00:05.1,0.004686356,0.000881195,0.014883041,0,
00:05.1,0.004646301,0.000818253,0.014865875,0,
00:05.1,0.004623413,0.00075531,0.014865875,0,
00:05.1,0.004623413,0.000778198,0.014900208,0,
00:05.1,0.004640579,0.000818253,0.014871597,0,
00:05.1,0.004652023,0.000841141,0.014842987,0,
00:05.1,0.004634857,0.000818253,0.014877319,0,
00:05.1,0.004617691,0.00078392,0.014894485,0,
00:05.1,0.004629135,0.000823975,0.014894485,0,
00:05.1,0.004617691,0.000812531,0.014883041,0,
00:05.1,0.004623413,0.000778198,0.014888763,0,
00:05.1,0.004629135,0.000789642,0.01490593,0,
00:05.1,0.004640579,0.000806808,0.014888763,0,
00:05.1,0.004629135,0.000801086,0.01490593,0,
00:05.2,0.004617691,0.000789642,0.01490593,0,
00:05.2,0.004640579,0.000823975,0.014923096,0,
00:05.2,0.004623413,0.000818253,0.014911652,0,
00:05.2,0.004623413,0.000801086,0.014917374,0,
00:05.2,0.004640579,0.000801086,0.01490593,0,
00:05.2,0.004623413,0.000829697,0.014900208,0,
00:05.2,0.004669189,0.000875473,0.014923096,0,
00:05.2,0.004652023,0.000823975,0.014894485,0,
00:05.2,0.004629135,0.000789642,0.014911652,0,
00:05.2,0.004617691,0.000789642,0.014940262,0,
00:05.2,0.004634857,0.000812531,0.014928818,0,
00:05.2,0.004680634,0.000892639,0.014917374,0,
00:05.2,0.004640579,0.000818253,0.014888763,0,
00:05.2,0.004611969,0.000789642,0.014940262,0,
00:05.2,0.004623413,0.000806808,0.014940262,0,
00:05.2,0.004617691,0.000778198,0.014917374,0,
00:05.2,0.004634857,0.000812531,0.014951706,0,
00:05.2,0.004623413,0.000801086,0.014945984,0,
00:05.2,0.004634857,0.000829697,0.014945984,0,
00:05.2,0.004629135,0.000835419,0.014923096,0,
00:05.2,0.004640579,0.000841141,0.014923096,0,
00:05.2,0.004623413,0.000801086,0.01493454,0,
00:05.2,0.004634857,0.000789642,0.014928818,0,
00:05.2,0.004640579,0.000795364,0.01493454,0,
00:05.2,0.004617691,0.000806808,0.014957428,0,
00:05.3,0.004623413,0.000812531,0.014940262,0,
00:05.3,0.004600525,0.000801086,0.014917374,0,
00:05.3,0.004594803,0.000801086,0.014923096,0,
00:05.3,0.004669189,0.000829697,0.014940262,0,
00:05.3,0.004663467,0.000846863,0.014974594,0,
00:05.3,0.004623413,0.000812531,0.014957428,0,
00:05.3,0.004629135,0.000795364,0.014974594,0,
00:05.3,0.004634857,0.000835419,0.014974594,0,
00:05.3,0.004657745,0.000841141,0.014968872,0,
00:05.3,0.004646301,0.000795364,0.014974594,0,
00:05.3,0.004646301,0.000835419,0.014980316,0,
00:05.3,0.004646301,0.000841141,0.01496315,0,
00:05.3,0.004611969,0.000789642,0.01496315,0,
00:05.3,0.004629135,0.000829697,0.014951706,0,
00:05.3,0.004623413,0.000829697,0.014957428,0,
00:05.3,0.004623413,0.000789642,0.014974594,0,
00:05.3,0.004634857,0.000818253,0.014980316,0,
00:05.3,0.004646301,0.000823975,0.014986038,0,
00:05.3,0.004623413,0.000818253,0.014997482,0,
00:05.3,0.004606247,0.00078392,0.015008926,0,
00:05.3,0.004623413,0.000801086,0.015003204,0,
00:05.3,0.004657745,0.000806808,0.014997482,0,
00:05.3,0.004634857,0.000823975,0.015003204,0,
00:05.3,0.004611969,0.000806808,0.014986038,0,
00:05.3,0.004617691,0.000812531,0.014974594,0,
00:05.4,0.004617691,0.000829697,0.01499176,0,
00:05.4,0.004657745,0.000852585,0.015003204,0,
00:05.4,0.004652023,0.000835419,0.014997482,0,
00:05.4,0.004634857,0.000835419,0.015008926,0,
00:05.4,0.004623413,0.000829697,0.015003204,0,
00:05.4,0.004634857,0.000806808,0.015026093,0,
00:05.4,0.004669189,0.000829697,0.015026093,0,
00:05.4,0.004646301,0.000835419,0.015026093,0,
00:05.4,0.004623413,0.000823975,0.01502037,0,
00:05.4,0.004611969,0.00078392,0.015037537,0,
00:05.4,0.004634857,0.000806808,0.015037537,0,
00:05.4,0.004652023,0.000846863,0.01502037,0,
00:05.4,0.004629135,0.000812531,0.015037537,0,
00:05.4,0.004606247,0.000806808,0.015048981,0,
00:05.4,0.004629135,0.000829697,0.015037537,0,
00:05.4,0.004640579,0.000835419,0.015048981,0,
00:05.4,0.004640579,0.000869751,0.015071869,0,
00:05.4,0.004634857,0.000869751,0.01502037,0,
00:05.4,0.004606247,0.000743866,0.01502037,0,
00:05.4,0.004611969,0.00075531,0.015083313,0,
00:05.4,0.004663467,0.000858307,0.015031815,0,
00:05.4,0.004640579,0.000829697,0.015037537,0,
00:05.4,0.004606247,0.000801086,0.015048981,0,
00:05.4,0.004606247,0.000801086,0.015054703,0,
00:05.4,0.004594803,0.000795364,0.015071869,0,
00:05.5,0.004646301,0.000835419,0.015054703,0,
00:05.5,0.004663467,0.000841141,0.015060425,0,
00:05.5,0.004640579,0.000841141,0.015060425,0,
00:05.5,0.004634857,0.000841141,0.015083313,0,
00:05.5,0.004634857,0.000823975,0.015071869,0,
00:05.5,0.004657745,0.000852585,0.015066147,0,
00:05.5,0.004646301,0.000823975,0.015060425,0,
00:05.5,0.004594803,0.000789642,0.015117645,0,
00:05.5,0.004617691,0.000818253,0.015083313,0,
00:05.5,0.004652023,0.000835419,0.015066147,0,
00:05.5,0.004634857,0.000823975,0.015071869,0,
00:05.5,0.004629135,0.000835419,0.015071869,0,
00:05.5,0.004634857,0.000812531,0.015117645,0,
00:05.5,0.004652023,0.000841141,0.015111923,0,
00:05.5,0.004623413,0.000818253,0.015071869,0,
00:05.5,0.004611969,0.000801086,0.015094757,0,
00:05.5,0.004640579,0.000812531,0.015100479,0,
00:05.5,0.004634857,0.000829697,0.015094757,0,
00:05.5,0.004657745,0.000858307,0.015089035,0,
00:05.5,0.004629135,0.000823975,0.015094757,0,
00:05.5,0.004611969,0.000812531,0.015094757,0,
00:05.5,0.004652023,0.000846863,0.015117645,0,
00:05.5,0.004652023,0.000875473,0.015100479,0,
00:05.5,0.004606247,0.000778198,0.015106201,0,
00:05.5,0.004640579,0.000823975,0.015163422,0,
00:05.6,0.004640579,0.000829697,0.015134811,0,
00:05.6,0.004606247,0.000818253,0.015100479,0,
00:05.6,0.004634857,0.000835419,0.015123367,0,
00:05.6,0.004629135,0.000812531,0.015117645,0,
00:05.6,0.004623413,0.000778198,0.015123367,0,
00:05.6,0.004623413,0.000806808,0.015151978,0,
00:05.6,0.004623413,0.000829697,0.015117645,0,
00:05.6,0.004640579,0.000841141,0.015151978,0,
00:05.6,0.004617691,0.000812531,0.015174866,0,
00:05.6,0.004640579,0.000823975,0.01518631,0,
00:05.6,0.004640579,0.000841141,0.0151577,0,
00:05.6,0.004652023,0.000852585,0.015117645,0,
00:05.6,0.004640579,0.000841141,0.015129089,0,
00:05.6,0.004589081,0.000801086,0.015140533,0,
00:05.6,0.004617691,0.000818253,0.015163422,0,
00:05.6,0.004663467,0.000852585,0.015151978,0,
00:05.6,0.004652023,0.000858307,0.015146255,0,
00:05.6,0.004611969,0.000823975,0.015163422,0,
00:05.6,0.004623413,0.000818253,0.015169144,0,
00:05.6,0.004663467,0.000881195,0.015163422,0,
00:05.6,0.004617691,0.000812531,0.0151577,0,
00:05.6,0.004617691,0.000806808,0.015169144,0,
00:05.6,0.004623413,0.000801086,0.0151577,0,
00:05.6,0.004617691,0.000812531,0.0151577,0,
00:05.6,0.004652023,0.000846863,0.015169144,0,
00:05.7,0.004657745,0.000846863,0.015146255,0,
00:05.7,0.004623413,0.000818253,0.015146255,0,
00:05.7,0.004623413,0.000823975,0.015163422,0,
00:05.7,0.004617691,0.000818253,0.015209198,0,
00:05.7,0.004617691,0.000823975,0.015203476,0,
00:05.7,0.004629135,0.000835419,0.015169144,0,
00:05.7,0.004640579,0.000835419,0.015169144,0,
00:05.7,0.004646301,0.000823975,0.015203476,0,
00:05.7,0.004594803,0.000818253,0.01521492,0,
00:05.7,0.004623413,0.000829697,0.015209198,0,
00:05.7,0.004629135,0.000858307,0.015192032,0,
00:05.7,0.004617691,0.000806808,0.015203476,0,
00:05.7,0.004623413,0.000806808,0.01521492,0,
00:05.7,0.004611969,0.000835419,0.01521492,0,
00:05.7,0.004617691,0.000881195,0.015197754,0,
00:05.7,0.004623413,0.000818253,0.015180588,0,
00:05.7,0.004629135,0.000818253,0.01518631,0,
00:05.7,0.004646301,0.000841141,0.015209198,0,
00:05.7,0.004629135,0.000835419,0.015220642,0,
00:05.7,0.004617691,0.000829697,0.01521492,0,
00:05.7,0.004634857,0.000829697,0.015197754,0,
00:05.7,0.004629135,0.000806808,0.015209198,0,
00:05.7,0.004629135,0.000823975,0.015197754,0,
00:05.7,0.004640579,0.000852585,0.015209198,0,
00:05.7,0.004634857,0.000835419,0.015209198,0,
00:05.8,0.004629135,0.000801086,0.015203476,0,
00:05.8,0.004617691,0.000829697,0.015226364,0,
00:05.8,0.004629135,0.000864029,0.015237808,0,
00:05.8,0.004623413,0.000818253,0.015254974,0,
00:05.8,0.004646301,0.000829697,0.015232086,0,
00:05.8,0.004634857,0.000864029,0.01521492,0,
00:05.8,0.004600525,0.000846863,0.015209198,0,
00:05.8,0.004577637,0.000795364,0.01524353,0,
00:05.8,0.004640579,0.000812531,0.015220642,0,
00:05.8,0.004634857,0.000835419,0.015237808,0,
00:05.8,0.004652023,0.000875473,0.01524353,0,
00:05.8,0.004669189,0.000881195,0.015237808,0,
00:05.8,0.004623413,0.000795364,0.015260696,0,
00:05.8,0.004577637,0.00078392,0.01524353,0,
00:05.8,0.004594803,0.000846863,0.01524353,0,
00:05.8,0.004611969,0.000852585,0.015254974,0,
00:05.8,0.004634857,0.000841141,0.015249252,0,
00:05.8,0.004623413,0.000852585,0.015232086,0,
00:05.8,0.004611969,0.000812531,0.015226364,0,
00:05.8,0.004617691,0.000806808,0.015283585,0,
00:05.8,0.004629135,0.000818253,0.015289307,0,
00:05.8,0.004640579,0.000823975,0.015249252,0,
00:05.8,0.004623413,0.000829697,0.015226364,0,
00:05.8,0.004629135,0.000846863,0.01524353,0,
00:05.8,0.004617691,0.000829697,0.015283585,0,
00:05.9,0.004640579,0.000864029,0.015260696,0,
00:05.9,0.004611969,0.000835419,0.015289307,0,
00:05.9,0.004611969,0.000835419,0.015260696,0,
00:05.9,0.004629135,0.000835419,0.015260696,0,
00:05.9,0.004640579,0.000841141,0.015254974,0,
00:05.9,0.004640579,0.000869751,0.01524353,0,
00:05.9,0.004589081,0.000812531,0.015272141,0,
00:05.9,0.004600525,0.00078392,0.015295029,0,
00:05.9,0.004652023,0.000852585,0.015277863,0,
00:05.9,0.004629135,0.000846863,0.015260696,0,
00:05.9,0.004629135,0.000858307,0.015254974,0,
00:05.9,0.004611969,0.000823975,0.015260696,0,
00:05.9,0.004577637,0.000795364,0.015283585,0,
00:05.9,0.004629135,0.000829697,0.015277863,0,
00:05.9,0.004640579,0.000858307,0.015266418,0,
00:05.9,0.004629135,0.000852585,0.015266418,0,
00:05.9,0.004629135,0.000846863,0.015277863,0,
00:05.9,0.004600525,0.000801086,0.015289307,0,
00:05.9,0.004629135,0.000841141,0.015317917,0,
00:05.9,0.004629135,0.000858307,0.015306473,0,
00:05.9,0.004629135,0.000864029,0.015283585,0,
00:05.9,0.004617691,0.000801086,0.015277863,0,
00:05.9,0.004600525,0.000801086,0.015295029,0,
00:05.9,0.004623413,0.000829697,0.015300751,0,
00:05.9,0.004623413,0.000818253,0.015272141,0,
00:06.0,0.004617691,0.000812531,0.015312195,0,
00:06.0,0.004623413,0.000852585,0.015312195,0,
00:06.0,0.004594803,0.000846863,0.015312195,0,
00:06.0,0.004634857,0.000841141,0.015295029,0,
00:06.0,0.004640579,0.000864029,0.015277863,0,
00:06.0,0.004606247,0.000829697,0.015323639,0,
00:06.0,0.004606247,0.000806808,0.015312195,0,
00:06.0,0.004634857,0.000835419,0.015312195,0,
00:06.0,0.004634857,0.000846863,0.015300751,0,
00:06.0,0.004652023,0.000886917,0.015300751,0,
00:06.0,0.004646301,0.000886917,0.015289307,0,
00:06.0,0.004634857,0.000881195,0.015306473,0,
00:00:06,0.004606247,0.000778198,0.015329361,0,
00:06.0,0.004634857,0.000806808,0.015329361,0,
00:06.0,0.004589081,0.000818253,0.015329361,0,
00:06.0,0.004577637,0.000846863,0.015300751,0,
00:06.0,0.004634857,0.000835419,0.015306473,0,
00:06.0,0.004634857,0.000841141,0.015329361,0,
00:06.0,0.004623413,0.000846863,0.015323639,0,
00:06.0,0.004629135,0.000835419,0.015375137,0,
00:06.0,0.004629135,0.000875473,0.015346527,0,
00:06.0,0.004623413,0.000846863,0.015317917,0,
00:06.0,0.004617691,0.000818253,0.015306473,0,
00:06.0,0.004611969,0.000806808,0.015329361,0,
00:06.0,0.004600525,0.000818253,0.015363693,0,
00:06.1,0.004611969,0.000841141,0.015346527,0,
00:06.1,0.004629135,0.000846863,0.015346527,0,
00:06.1,0.004629135,0.000841141,0.015346527,0,
00:06.1,0.004617691,0.000841141,0.015329361,0,
00:06.1,0.004611969,0.000835419,0.015335083,0,
00:06.1,0.004629135,0.000869751,0.015329361,0,
00:06.1,0.004646301,0.000898361,0.015317917,0,
00:06.1,0.004646301,0.000846863,0.015317917,0,
00:06.1,0.004623413,0.000806808,0.015369415,0,
00:06.1,0.004606247,0.000841141,0.015398026,0,
00:06.1,0.004634857,0.000881195,0.015380859,0,
00:06.1,0.004589081,0.000795364,0.015380859,0,
00:06.1,0.004600525,0.000818253,0.015386581,0,
00:06.1,0.004617691,0.000846863,0.015380859,0,
00:06.1,0.004629135,0.000852585,0.015357971,0,
00:06.1,0.004634857,0.000869751,0.015363693,0,
00:06.1,0.004634857,0.000881195,0.015352249,0,
00:06.1,0.004646301,0.000846863,0.015352249,0,
00:06.1,0.004646301,0.000829697,0.015392303,0,
00:06.1,0.004600525,0.000829697,0.015386581,0,
00:06.1,0.004571915,0.000829697,0.015352249,0,
00:06.1,0.004600525,0.000818253,0.015363693,0,
00:06.1,0.004606247,0.000829697,0.015403748,0,
00:06.1,0.004617691,0.000841141,0.015392303,0,
00:06.1,0.004634857,0.000858307,0.015386581,0,
00:06.2,0.004617691,0.000829697,0.015380859,0,
00:06.2,0.004611969,0.000846863,0.015375137,0,
00:06.2,0.004629135,0.000858307,0.015357971,0,
00:06.2,0.004634857,0.000841141,0.015369415,0,
00:06.2,0.004646301,0.000892639,0.015340805,0,
00:06.2,0.004623413,0.000864029,0.015380859,0,
00:06.2,0.004623413,0.000829697,0.015398026,0,
00:06.2,0.004617691,0.000846863,0.015415192,0,
00:06.2,0.004611969,0.000852585,0.015420914,0,
00:06.2,0.004606247,0.000829697,0.015420914,0,
00:06.2,0.004606247,0.000835419,0.01540947,0,
00:06.2,0.004617691,0.000841141,0.015398026,0,
00:06.2,0.004617691,0.000841141,0.015386581,0,
00:06.2,0.004611969,0.000858307,0.01540947,0,
00:06.2,0.004611969,0.000858307,0.01540947,0,
00:06.2,0.004663467,0.000909805,0.01540947,0,
00:06.2,0.004611969,0.000823975,0.015386581,0,
00:06.2,0.004600525,0.000818253,0.015380859,0,
00:06.2,0.004629135,0.000858307,0.015415192,0,
00:06.2,0.004629135,0.000869751,0.015386581,0,
00:06.2,0.004589081,0.000852585,0.015426636,0,
00:06.2,0.004623413,0.000841141,0.01543808,0,
00:06.2,0.004617691,0.000829697,0.015415192,0,
00:06.2,0.004617691,0.000841141,0.01540947,0,
00:06.2,0.004611969,0.000858307,0.015398026,0,
00:06.3,0.004623413,0.000864029,0.015398026,0,
00:06.3,0.004606247,0.000846863,0.015415192,0,
00:06.3,0.004594803,0.000846863,0.015432358,0,
00:06.3,0.004611969,0.000846863,0.015426636,0,
00:06.3,0.004623413,0.000829697,0.015426636,0,
00:06.3,0.004606247,0.000829697,0.015420914,0,
00:06.3,0.004623413,0.000852585,0.015403748,0,
00:06.3,0.004594803,0.000852585,0.01540947,0,
00:06.3,0.004629135,0.000869751,0.01543808,0,
00:06.3,0.004652023,0.000886917,0.01543808,0,
00:06.3,0.004629135,0.000869751,0.015415192,0,
00:06.3,0.004611969,0.000829697,0.015415192,0,
00:06.3,0.004623413,0.000869751,0.015415192,0,
00:06.3,0.004617691,0.000852585,0.015426636,0,
00:06.3,0.004623413,0.000852585,0.01543808,0,
00:06.3,0.004640579,0.000875473,0.015403748,0,
00:06.3,0.004606247,0.000864029,0.015415192,0,
00:06.3,0.004611969,0.000858307,0.015432358,0,
00:06.3,0.004617691,0.000835419,0.01546669,0,
00:06.3,0.004577637,0.000829697,0.015455246,0,
00:06.3,0.004594803,0.000864029,0.015443802,0,
00:06.3,0.004606247,0.000858307,0.01543808,0,
00:06.3,0.004611969,0.000823975,0.015455246,0,
00:06.3,0.004606247,0.000864029,0.015432358,0,
00:06.3,0.004617691,0.000869751,0.015449524,0,
00:06.4,0.004629135,0.000858307,0.015432358,0,
00:06.4,0.004600525,0.000841141,0.01543808,0,
00:06.4,0.004583359,0.000818253,0.015455246,0,
00:06.4,0.004629135,0.000841141,0.015472412,0,
00:06.4,0.004617691,0.000852585,0.015455246,0,
00:06.4,0.004634857,0.000886917,0.015432358,0,
00:06.4,0.004629135,0.000858307,0.015443802,0,
00:06.4,0.004594803,0.000846863,0.015455246,0,
00:06.4,0.004611969,0.000875473,0.015449524,0,
00:06.4,0.004646301,0.000886917,0.015443802,0,
00:06.4,0.004623413,0.000875473,0.015443802,0,
00:06.4,0.004589081,0.000835419,0.015432358,0,
00:06.4,0.004600525,0.000823975,0.015443802,0,
00:06.4,0.004629135,0.000852585,0.015443802,0,
00:06.4,0.004606247,0.000835419,0.015460968,0,
00:06.4,0.004589081,0.000841141,0.015449524,0,
00:06.4,0.004629135,0.000881195,0.015432358,0,
00:06.4,0.004652023,0.000881195,0.015449524,0,
00:06.4,0.004606247,0.000852585,0.015455246,0,
00:06.4,0.004589081,0.000846863,0.015449524,0,
00:06.4,0.004617691,0.000858307,0.015455246,0,
00:06.4,0.004623413,0.000864029,0.015460968,0,
00:06.4,0.004611969,0.000864029,0.015449524,0,
00:06.4,0.004600525,0.000852585,0.015472412,0,
00:06.4,0.004594803,0.000823975,0.015472412,0,
00:06.5,0.004629135,0.000864029,0.015455246,0,
00:06.5,0.004617691,0.000864029,0.015443802,0,
00:06.5,0.004594803,0.000852585,0.01546669,0,
00:06.5,0.004600525,0.000846863,0.015472412,0,
00:06.5,0.004594803,0.000823975,0.015478134,0,
00:06.5,0.004640579,0.000875473,0.015483856,0,
00:06.5,0.004617691,0.000858307,0.015472412,0,
00:06.5,0.004606247,0.000864029,0.015460968,0,
00:06.5,0.004617691,0.000858307,0.015460968,0,
00:06.5,0.004606247,0.000846863,0.015483856,0,
00:06.5,0.004611969,0.000852585,0.015478134,0,
00:06.5,0.004594803,0.000881195,0.01543808,0,
00:06.5,0.004577637,0.000835419,0.015472412,0,
00:06.5,0.004606247,0.000818253,0.015501022,0,
00:06.5,0.004617691,0.000852585,0.015478134,0,
00:06.5,0.004617691,0.000864029,0.015460968,0,
00:06.5,0.004611969,0.000858307,0.015455246,0,
00:06.5,0.004600525,0.000864029,0.015483856,0,
00:06.5,0.004617691,0.000858307,0.015506744,0,
00:06.5,0.004611969,0.000841141,0.0154953,0,
00:06.5,0.004617691,0.000858307,0.0154953,0,
00:06.5,0.004589081,0.000829697,0.015478134,0,
00:06.5,0.004583359,0.000846863,0.015449524,0,
00:06.5,0.004589081,0.000864029,0.015472412,0,
00:06.5,0.004617691,0.000858307,0.015472412,0,
00:06.6,0.004623413,0.000858307,0.015501022,0,
00:06.6,0.004617691,0.000886917,0.015506744,0,
00:06.6,0.004589081,0.000869751,0.015489578,0,
00:06.6,0.004606247,0.000846863,0.0154953,0,
00:06.6,0.004634857,0.000864029,0.015512466,0,
00:06.6,0.004589081,0.000864029,0.015489578,0,
00:06.6,0.004589081,0.000869751,0.015472412,0,
00:06.6,0.004606247,0.000852585,0.0154953,0,
00:06.6,0.004617691,0.000852585,0.015501022,0,
00:06.6,0.004589081,0.000835419,0.015523911,0,
00:06.6,0.004617691,0.000858307,0.015506744,0,
00:06.6,0.004617691,0.000869751,0.015506744,0,
00:06.6,0.004583359,0.000835419,0.015506744,0,
00:06.6,0.004589081,0.000864029,0.015501022,0,
00:06.6,0.004606247,0.000858307,0.0154953,0,
00:06.6,0.004611969,0.000846863,0.015518188,0,
00:06.6,0.004594803,0.000846863,0.015512466,0,
00:06.6,0.004606247,0.000864029,0.015506744,0,
00:06.6,0.004600525,0.000846863,0.015529633,0,
00:06.6,0.004594803,0.000841141,0.0154953,0,
00:06.6,0.004606247,0.000864029,0.015512466,0,
00:06.6,0.004623413,0.000869751,0.015518188,0,
00:06.6,0.004583359,0.000841141,0.015512466,0,
00:06.6,0.004589081,0.000869751,0.015523911,0,
00:06.6,0.004606247,0.000858307,0.015523911,0,
00:06.7,0.004600525,0.000852585,0.015523911,0,
00:06.7,0.004623413,0.000886917,0.015518188,0,
00:06.7,0.004606247,0.000858307,0.015529633,0,
00:06.7,0.004623413,0.000869751,0.015518188,0,
00:06.7,0.004600525,0.000869751,0.015523911,0,
00:06.7,0.004629135,0.000875473,0.015512466,0,
00:06.7,0.004617691,0.000841141,0.015529633,0,
00:06.7,0.004589081,0.000864029,0.015558243,0,
00:06.7,0.004594803,0.000886917,0.015546799,0,
00:06.7,0.004600525,0.000846863,0.015535355,0,
00:06.7,0.004589081,0.000829697,0.015535355,0,
00:06.7,0.004594803,0.000846863,0.015558243,0,
00:06.7,0.004623413,0.000858307,0.015552521,0,
00:06.7,0.004606247,0.000852585,0.015512466,0,
00:06.7,0.004594803,0.000864029,0.015518188,0,
00:06.7,0.004589081,0.000869751,0.015523911,0,
00:06.7,0.004606247,0.000864029,0.015569687,0,
00:06.7,0.004606247,0.000846863,0.015552521,0,
00:06.7,0.004589081,0.000829697,0.015558243,0,
00:06.7,0.004577637,0.000852585,0.015569687,0,
00:06.7,0.004600525,0.000898361,0.015552521,0,
00:06.7,0.004617691,0.000875473,0.015558243,0,
00:06.7,0.004600525,0.000852585,0.015541077,0,
00:06.7,0.004606247,0.000864029,0.015546799,0,
00:06.7,0.004623413,0.000881195,0.015575409,0,
00:06.8,0.004589081,0.000841141,0.015563965,0,
00:06.8,0.004571915,0.000829697,0.015529633,0,
00:06.8,0.004594803,0.000846863,0.015546799,0,
00:06.8,0.004617691,0.000881195,0.015569687,0,
00:06.8,0.004594803,0.000875473,0.015569687,0,
00:06.8,0.004583359,0.000858307,0.015558243,0,
00:06.8,0.004600525,0.000869751,0.015541077,0,
00:06.8,0.004606247,0.000869751,0.015563965,0,
00:06.8,0.004589081,0.000846863,0.015569687,0,
00:06.8,0.004594803,0.000852585,0.015569687,0,
00:06.8,0.004617691,0.000892639,0.015546799,0,
00:06.8,0.004594803,0.000846863,0.015546799,0,
00:06.8,0.004589081,0.000852585,0.015569687,0,
00:06.8,0.004617691,0.000869751,0.015575409,0,
00:06.8,0.004589081,0.000846863,0.015586853,0,
00:06.8,0.004583359,0.000869751,0.015575409,0,
00:06.8,0.004611969,0.000892639,0.015592575,0,
00:06.8,0.004571915,0.000818253,0.015575409,0,
00:06.8,0.004594803,0.000864029,0.015563965,0,
00:06.8,0.004594803,0.000886917,0.015558243,0,
00:06.8,0.004577637,0.000846863,0.015563965,0,
00:06.8,0.004600525,0.000846863,0.015598297,0,
00:06.8,0.004606247,0.000875473,0.015615463,0,
00:06.8,0.004594803,0.000858307,0.015569687,0,
00:06.8,0.004617691,0.000881195,0.015558243,0,
00:06.9,0.004600525,0.000892639,0.015546799,0,
00:06.9,0.004600525,0.000864029,0.015569687,0,
00:06.9,0.004577637,0.000835419,0.015621185,0,
00:06.9,0.004577637,0.000852585,0.015586853,0,
00:06.9,0.004600525,0.000886917,0.015592575,0,
00:06.9,0.004583359,0.000858307,0.015604019,0,
00:06.9,0.004571915,0.000858307,0.015581131,0,
00:06.9,0.004589081,0.000846863,0.015581131,0,
00:06.9,0.004611969,0.000881195,0.015586853,0,
00:06.9,0.004617691,0.000898361,0.015581131,0,
00:06.9,0.004611969,0.000858307,0.015581131,0,
00:06.9,0.004571915,0.000818253,0.015604019,0,
00:06.9,0.004577637,0.000852585,0.015592575,0,
00:06.9,0.004611969,0.000881195,0.015569687,0,
00:06.9,0.004600525,0.000886917,0.015558243,0,
00:06.9,0.004577637,0.000881195,0.015586853,0,
00:06.9,0.004583359,0.000846863,0.015615463,0,
00:06.9,0.004611969,0.000841141,0.015615463,0,
00:06.9,0.004611969,0.000898361,0.015586853,0,
00:06.9,0.004571915,0.000841141,0.015592575,0,
00:06.9,0.004571915,0.000841141,0.015604019,0,
00:06.9,0.004594803,0.000846863,0.015598297,0,
00:06.9,0.004583359,0.000898361,0.015592575,0,
00:06.9,0.004571915,0.000852585,0.015598297,0,
00:06.9,0.004611969,0.000869751,0.015581131,0,
00:07.0,0.004594803,0.000881195,0.015586853,0,
00:07.0,0.004611969,0.000909805,0.015598297,0,
00:07.0,0.004566193,0.000835419,0.015609741,0,
00:07.0,0.004560471,0.000835419,0.015638351,0,
00:07.0,0.004594803,0.000875473,0.015649796,0,
00:07.0,0.004600525,0.000892639,0.015615463,0,
00:07.0,0.004606247,0.000869751,0.015598297,0,
00:07.0,0.004589081,0.000875473,0.015615463,0,
00:07.0,0.004583359,0.000886917,0.015615463,0,
00:07.0,0.004583359,0.000835419,0.015609741,0,
00:07.0,0.004577637,0.000841141,0.015604019,0,
00:07.0,0.004583359,0.000864029,0.015626907,0,
00:00:07,0.004583359,0.000852585,0.015609741,0,
00:07.0,0.004577637,0.000846863,0.015621185,0,
00:07.0,0.004571915,0.000858307,0.015604019,0,
00:07.0,0.004577637,0.000875473,0.015604019,0,
00:07.0,0.004583359,0.000875473,0.015609741,0,
00:07.0,0.004600525,0.000898361,0.015598297,0,
00:07.0,0.004594803,0.000875473,0.015621185,0,
00:07.0,0.004606247,0.000886917,0.015598297,0,
00:07.0,0.004554749,0.000818253,0.015626907,0,
00:07.0,0.004543304,0.000841141,0.015655518,0,
00:07.0,0.004560471,0.000864029,0.015615463,0,
00:07.0,0.004566193,0.000886917,0.015598297,0,
00:07.0,0.004606247,0.000886917,0.015604019,0,
00:07.1,0.004589081,0.000864029,0.015609741,0,
00:07.1,0.004600525,0.000898361,0.015638351,0,
00:07.1,0.004554749,0.000818253,0.015644073,0,
00:07.1,0.004543304,0.000829697,0.015626907,0,
00:07.1,0.004589081,0.000869751,0.015615463,0,
00:07.1,0.004606247,0.000892639,0.015615463,0,
00:07.1,0.004583359,0.000869751,0.015609741,0,
00:07.1,0.004600525,0.000886917,0.015638351,0,
00:07.1,0.004600525,0.000892639,0.015615463,0,
00:07.1,0.004560471,0.000852585,0.015649796,0,
00:07.1,0.004571915,0.000852585,0.015649796,0,
00:07.1,0.004571915,0.000864029,0.015644073,0,
00:07.1,0.004583359,0.000864029,0.015638351,0,
00:07.1,0.004583359,0.000846863,0.015609741,0,
00:07.1,0.004571915,0.000881195,0.015621185,0,
00:07.1,0.004583359,0.000881195,0.015638351,0,
00:07.1,0.004594803,0.000869751,0.015649796,0,
00:07.1,0.004571915,0.000858307,0.015644073,0,
00:07.1,0.004566193,0.000858307,0.015632629,0,
00:07.1,0.00453186,0.000841141,0.015609741,0,
00:07.1,0.004549026,0.000869751,0.015638351,0,
00:07.1,0.004594803,0.000864029,0.015638351,0,
00:07.1,0.004600525,0.000886917,0.015626907,0,
00:07.1,0.004600525,0.000898361,0.015626907,0,
00:07.1,0.004549026,0.000835419,0.015644073,0,
00:07.2,0.004571915,0.000852585,0.015649796,0,
00:07.2,0.004560471,0.000875473,0.015684128,0,
00:07.2,0.004594803,0.000875473,0.015649796,0,
00:07.2,0.004594803,0.000852585,0.01566124,0,
00:07.2,0.004583359,0.000881195,0.015644073,0,
00:07.2,0.004571915,0.000875473,0.015626907,0,
00:07.2,0.004560471,0.000864029,0.015644073,0,
00:07.2,0.004577637,0.000852585,0.015649796,0,
00:07.2,0.004617691,0.000892639,0.015615463,0,
00:07.2,0.004600525,0.000846863,0.015615463,0,
00:07.2,0.004589081,0.000875473,0.015649796,0,
00:07.2,0.004554749,0.000846863,0.015649796,0,
00:07.2,0.004566193,0.000875473,0.015638351,0,
00:07.2,0.004554749,0.000869751,0.015644073,0,
00:07.2,0.004549026,0.000852585,0.015678406,0,
00:07.2,0.004549026,0.000852585,0.01568985,0,
00:07.2,0.004583359,0.000892639,0.015655518,0,
00:07.2,0.004600525,0.000881195,0.01566124,0,
00:07.2,0.004577637,0.000864029,0.015666962,0,
00:07.2,0.004560471,0.000852585,0.015655518,0,
00:07.2,0.004549026,0.000864029,0.015626907,0,
00:07.2,0.004571915,0.000852585,0.015672684,0,
00:07.2,0.004583359,0.000864029,0.01566124,0,
00:07.2,0.004583359,0.000864029,0.015678406,0,
00:07.2,0.004560471,0.000846863,0.01566124,0,
00:07.3,0.004560471,0.000846863,0.01568985,0,
00:07.3,0.004577637,0.000864029,0.01566124,0,
00:07.3,0.004571915,0.000869751,0.015666962,0,
00:07.3,0.004589081,0.000898361,0.015666962,0,
00:07.3,0.004600525,0.000869751,0.01566124,0,
00:07.3,0.004583359,0.000852585,0.015632629,0,
00:07.3,0.004549026,0.000875473,0.015655518,0,
00:07.3,0.004549026,0.000858307,0.015684128,0,
00:07.3,0.004543304,0.000846863,0.015678406,0,
00:07.3,0.004566193,0.000881195,0.015666962,0,
00:07.3,0.004589081,0.000864029,0.015684128,0,
00:07.3,0.004571915,0.000846863,0.015684128,0,
00:07.3,0.004589081,0.000892639,0.015655518,0,
00:07.3,0.004577637,0.000875473,0.015644073,0,
00:07.3,0.00453186,0.000835419,0.015666962,0,
00:07.3,0.004554749,0.000841141,0.01566124,0,
00:07.3,0.004554749,0.000864029,0.015678406,0,
00:07.3,0.004543304,0.000864029,0.015672684,0,
00:07.3,0.004566193,0.000864029,0.01566124,0,
00:07.3,0.004589081,0.000886917,0.015672684,0,
00:07.3,0.004560471,0.000869751,0.015695572,0,
00:07.3,0.004560471,0.000829697,0.01566124,0,
00:07.3,0.004577637,0.000875473,0.01568985,0,
00:07.3,0.004566193,0.000864029,0.015678406,0,
00:07.3,0.004606247,0.000886917,0.015678406,0,
00:07.4,0.004571915,0.000864029,0.01568985,0,
00:07.4,0.004560471,0.000869751,0.015655518,0,
00:07.4,0.004577637,0.000869751,0.015655518,0,
00:07.4,0.004566193,0.000858307,0.01568985,0,
00:07.4,0.004554749,0.000864029,0.015701294,0,
00:07.4,0.004554749,0.000864029,0.015712738,0,
00:07.4,0.004560471,0.000875473,0.01568985,0,
00:07.4,0.004571915,0.000875473,0.015666962,0,
00:07.4,0.004571915,0.000869751,0.01568985,0,
00:07.4,0.004549026,0.000841141,0.015666962,0,
00:07.4,0.004549026,0.000852585,0.015701294,0,
00:07.4,0.004560471,0.000898361,0.01568985,0,
00:07.4,0.004571915,0.000892639,0.01566124,0,
00:07.4,0.004577637,0.000875473,0.01568985,0,
00:07.4,0.004543304,0.000835419,0.015701294,0,
00:07.4,0.004589081,0.000864029,0.015695572,0,
00:07.4,0.004571915,0.000881195,0.015678406,0,
00:07.4,0.004543304,0.000846863,0.015672684,0,
00:07.4,0.004560471,0.000864029,0.015684128,0,
00:07.4,0.004549026,0.000841141,0.015695572,0,
00:07.4,0.004560471,0.000869751,0.01568985,0,
00:07.4,0.004560471,0.000869751,0.015695572,0,
00:07.4,0.00453186,0.000829697,0.015695572,0,
00:07.4,0.004566193,0.000858307,0.01571846,0,
00:07.4,0.004589081,0.000904083,0.01568985,0,
00:07.5,0.004571915,0.000915527,0.015678406,0,
00:07.5,0.004566193,0.000858307,0.015701294,0,
00:07.5,0.004537582,0.000823975,0.01568985,0,
00:07.5,0.004560471,0.000852585,0.015701294,0,
00:07.5,0.004566193,0.000875473,0.015712738,0,
00:07.5,0.004560471,0.000898361,0.015712738,0,
00:07.5,0.004571915,0.000892639,0.015684128,0,
00:07.5,0.004554749,0.000852585,0.015695572,0,
00:07.5,0.004549026,0.000864029,0.015701294,0,
00:07.5,0.004543304,0.000846863,0.015678406,0,
00:07.5,0.004566193,0.000875473,0.015701294,0,
00:07.5,0.004560471,0.000858307,0.015695572,0,
00:07.5,0.004549026,0.000869751,0.015695572,0,
00:07.5,0.004554749,0.000875473,0.015678406,0,
00:07.5,0.004594803,0.000921249,0.015672684,0,
00:07.5,0.004560471,0.000904083,0.015707016,0,
00:07.5,0.004566193,0.000852585,0.015707016,0,
00:07.5,0.004514694,0.000829697,0.015707016,0,
00:07.5,0.004537582,0.000846863,0.015695572,0,
00:07.5,0.004566193,0.000858307,0.015701294,0,
00:07.5,0.004560471,0.000846863,0.015695572,0,
00:07.5,0.004560471,0.000869751,0.015695572,0,
00:07.5,0.004554749,0.000858307,0.01571846,0,
00:07.5,0.004566193,0.000881195,0.015701294,0,
00:07.5,0.004566193,0.000898361,0.01568985,0,
00:07.6,0.004549026,0.000886917,0.01571846,0,
00:07.6,0.004526138,0.000846863,0.015707016,0,
00:07.6,0.004526138,0.000846863,0.015707016,0,
00:07.6,0.004583359,0.000881195,0.01571846,0,
00:07.6,0.004577637,0.000864029,0.015707016,0,
00:07.6,0.004543304,0.000869751,0.01568985,0,
00:07.6,0.004520416,0.000846863,0.015712738,0,
00:07.6,0.00453186,0.000858307,0.015712738,0,
00:07.6,0.004549026,0.000852585,0.01568985,0,
00:07.6,0.004571915,0.000886917,0.015712738,0,
00:07.6,0.004583359,0.000904083,0.015701294,0,
00:07.6,0.004571915,0.000904083,0.015695572,0,
00:07.6,0.004554749,0.000864029,0.015741348,0,
00:07.6,0.004554749,0.000864029,0.015707016,0,
00:07.6,0.004508972,0.000829697,0.01568985,0,
00:07.6,0.00453186,0.000829697,0.015707016,0,
00:07.6,0.004543304,0.000852585,0.01571846,0,
00:07.6,0.004543304,0.000869751,0.015701294,0,
00:07.6,0.004560471,0.000904083,0.015729904,0,
00:07.6,0.004549026,0.000864029,0.015735626,0,
00:07.6,0.004554749,0.000864029,0.015724182,0,
00:07.6,0.004549026,0.000858307,0.015729904,0,
00:07.6,0.004566193,0.000875473,0.015701294,0,
00:07.6,0.004560471,0.000875473,0.01568985,0,
00:07.6,0.004543304,0.000869751,0.015729904,0,
00:07.7,0.004508972,0.000841141,0.015729904,0,
00:07.7,0.004514694,0.000852585,0.015729904,0,
00:07.7,0.004537582,0.000858307,0.01571846,0,
00:07.7,0.004543304,0.000864029,0.015724182,0,
00:07.7,0.004543304,0.000858307,0.015724182,0,
00:07.7,0.004537582,0.000852585,0.015729904,0,
00:07.7,0.004554749,0.000864029,0.01571846,0,
00:07.7,0.004577637,0.000898361,0.015707016,0,
00:07.7,0.004589081,0.000904083,0.01571846,0,
00:07.7,0.004549026,0.000886917,0.015724182,0,
00:07.7,0.004554749,0.000898361,0.015701294,0,
00:07.7,0.00453186,0.000858307,0.01566124,0,
00:07.7,0.004520416,0.000846863,0.01571846,0,
00:07.7,0.004537582,0.000852585,0.015729904,0,
00:07.7,0.004526138,0.000852585,0.015729904,0,
00:07.7,0.004526138,0.000852585,0.015735626,0,
00:07.7,0.004520416,0.000864029,0.015769958,0,
00:07.7,0.004549026,0.000898361,0.015735626,0,
00:07.7,0.004537582,0.000869751,0.015729904,0,
00:07.7,0.004520416,0.000841141,0.015741348,0,
00:07.7,0.00453186,0.000846863,0.015735626,0,
00:07.7,0.004549026,0.000875473,0.015695572,0,
00:07.7,0.004543304,0.000898361,0.015741348,0,
00:07.7,0.004543304,0.000881195,0.01574707,0,
00:07.7,0.004549026,0.000886917,0.015764236,0,
00:07.8,0.004520416,0.000846863,0.015729904,0,
00:07.8,0.004543304,0.000841141,0.01574707,0,
00:07.8,0.004543304,0.000869751,0.015729904,0,
00:07.8,0.00453186,0.000869751,0.015735626,0,
00:07.8,0.004526138,0.000852585,0.015741348,0,
00:07.8,0.004537582,0.000875473,0.015729904,0,
00:07.8,0.004549026,0.000892639,0.015752792,0,
00:07.8,0.004566193,0.000904083,0.015752792,0,
00:07.8,0.004549026,0.000869751,0.015735626,0,
00:07.8,0.004508972,0.000869751,0.015684128,0,
00:07.8,0.004526138,0.000869751,0.015712738,0,
00:07.8,0.004514694,0.000846863,0.015781403,0,
00:07.8,0.004491806,0.000852585,0.015769958,0,
00:07.8,0.004520416,0.000852585,0.015758514,0,
00:07.8,0.004549026,0.000852585,0.015758514,0,
00:07.8,0.00453186,0.000869751,0.015741348,0,
00:07.8,0.004537582,0.000881195,0.015735626,0,
00:07.8,0.004543304,0.000886917,0.01574707,0,
00:07.8,0.004543304,0.000886917,0.015752792,0,
00:07.8,0.00453186,0.000881195,0.015735626,0,
00:07.8,0.00453186,0.000858307,0.015735626,0,
00:07.8,0.004543304,0.000869751,0.015735626,0,
00:07.8,0.00453186,0.000875473,0.01574707,0,
00:07.8,0.00453186,0.000846863,0.015752792,0,
00:07.8,0.004526138,0.000852585,0.015735626,0,
00:07.9,0.004526138,0.000869751,0.01574707,0,
00:07.9,0.00453186,0.000869751,0.015758514,0,
00:07.9,0.004526138,0.000864029,0.015764236,0,
00:07.9,0.004526138,0.000858307,0.015752792,0,
00:07.9,0.004526138,0.000875473,0.015764236,0,
00:07.9,0.004537582,0.000892639,0.015752792,0,
00:07.9,0.004549026,0.000886917,0.01574707,0,
00:07.9,0.00453186,0.000869751,0.01574707,0,
00:07.9,0.004497528,0.000841141,0.01574707,0,
00:07.9,0.00453186,0.000858307,0.015758514,0,
00:07.9,0.004520416,0.000869751,0.015741348,0,
00:07.9,0.004543304,0.000909805,0.015724182,0,
00:07.9,0.004543304,0.000875473,0.015741348,0,
00:07.9,0.004514694,0.000823975,0.015769958,0,
00:07.9,0.004549026,0.000904083,0.015775681,0,
00:07.9,0.004543304,0.000898361,0.015752792,0,
00:07.9,0.004508972,0.000835419,0.01574707,0,
00:07.9,0.004537582,0.000864029,0.015735626,0,
00:07.9,0.00453186,0.000858307,0.015787125,0,
00:07.9,0.004514694,0.000864029,0.015781403,0,
00:07.9,0.004520416,0.000875473,0.015735626,0,
00:07.9,0.004537582,0.000881195,0.015735626,0,
00:07.9,0.004537582,0.000886917,0.015741348,0,
00:07.9,0.004491806,0.000864029,0.015752792,0,
00:07.9,0.004514694,0.000875473,0.015758514,0,
00:08.0,0.004514694,0.000835419,0.015764236,0,
00:08.0,0.004526138,0.000846863,0.015775681,0,
00:08.0,0.00453186,0.000852585,0.015764236,0,
00:08.0,0.004526138,0.000864029,0.015758514,0,
00:08.0,0.00453186,0.000892639,0.01574707,0,
00:08.0,0.004537582,0.000886917,0.015741348,0,
00:08.0,0.00450325,0.000864029,0.015752792,0,
00:08.0,0.004514694,0.000858307,0.015775681,0,
00:08.0,0.004526138,0.000858307,0.015764236,0,
00:08.0,0.004508972,0.000858307,0.015752792,0,
00:08.0,0.004508972,0.000881195,0.015769958,0,
00:08.0,0.004520416,0.000875473,0.015758514,0,
00:00:08,0.004520416,0.000852585,0.01574707,0,
00:08.0,0.00453186,0.000886917,0.015764236,0,
00:08.0,0.004520416,0.000858307,0.015758514,0,
00:08.0,0.004543304,0.000892639,0.015769958,0,
00:08.0,0.004514694,0.000829697,0.015769958,0,
00:08.0,0.004497528,0.000841141,0.015752792,0,
00:08.0,0.004508972,0.000858307,0.015729904,0,
00:08.0,0.004520416,0.000881195,0.015769958,0,
00:08.0,0.004526138,0.000886917,0.015775681,0,
00:08.0,0.00453186,0.000881195,0.015741348,0,
00:08.0,0.004520416,0.000881195,0.015741348,0,
00:08.0,0.004526138,0.000858307,0.015798569,0,
00:08.0,0.004508972,0.000835419,0.015758514,0,
00:08.1,0.00450325,0.000864029,0.015741348,0,
00:08.1,0.00453186,0.000875473,0.015781403,0,
00:08.1,0.004537582,0.000864029,0.015769958,0,
00:08.1,0.004508972,0.000858307,0.015741348,0,
00:08.1,0.004537582,0.000881195,0.015724182,0,
00:08.1,0.00453186,0.000886917,0.015764236,0,
00:08.1,0.004486084,0.000881195,0.015792847,0,
00:08.1,0.00450325,0.000852585,0.015758514,0,
00:08.1,0.004514694,0.000835419,0.015775681,0,
00:08.1,0.004514694,0.000858307,0.015775681,0,
00:08.1,0.00450325,0.000875473,0.015735626,0,
00:08.1,0.004508972,0.000864029,0.01574707,0,
00:08.1,0.004526138,0.000869751,0.015798569,0,
00:08.1,0.004508972,0.000858307,0.015775681,0,
00:08.1,0.004514694,0.000892639,0.015758514,0,
00:08.1,0.004480362,0.000829697,0.015758514,0,
00:08.1,0.00450325,0.000841141,0.015769958,0,
00:08.1,0.004526138,0.000864029,0.015758514,0,
00:08.1,0.004526138,0.000886917,0.015769958,0,
00:08.1,0.004508972,0.000864029,0.015758514,0,
00:08.1,0.004497528,0.000852585,0.015787125,0,
00:08.1,0.00450325,0.000852585,0.015775681,0,
00:08.1,0.004514694,0.000881195,0.015769958,0,
00:08.1,0.004497528,0.000881195,0.015752792,0,
00:08.1,0.004520416,0.000886917,0.015775681,0,
00:08.2,0.004537582,0.000875473,0.015764236,0,
00:08.2,0.004537582,0.000835419,0.015758514,0,
00:08.2,0.004520416,0.000875473,0.015769958,0,
00:08.2,0.004491806,0.000852585,0.015752792,0,
00:08.2,0.004497528,0.000869751,0.015781403,0,
00:08.2,0.00453186,0.000886917,0.015775681,0,
00:08.2,0.004508972,0.000869751,0.015758514,0,
00:08.2,0.004508972,0.000864029,0.015735626,0,
00:08.2,0.004508972,0.000864029,0.015758514,0,
00:08.2,0.004486084,0.000829697,0.015792847,0,
00:08.2,0.004497528,0.000869751,0.015758514,0,
00:08.2,0.00453186,0.000904083,0.015764236,0,
00:08.2,0.004520416,0.000898361,0.015741348,0,
00:08.2,0.004514694,0.000869751,0.015758514,0,
00:08.2,0.00450325,0.000841141,0.015775681,0,
00:08.2,0.004486084,0.000835419,0.015769958,0,
00:08.2,0.004497528,0.000858307,0.015758514,0,
00:08.2,0.004497528,0.000852585,0.015769958,0,
00:08.2,0.004491806,0.000864029,0.015758514,0,
00:08.2,0.004520416,0.000875473,0.015769958,0,
00:08.2,0.004497528,0.000846863,0.015781403,0,
00:08.2,0.004508972,0.000858307,0.015792847,0,
00:08.2,0.004497528,0.000864029,0.015775681,0,
00:08.2,0.004514694,0.000864029,0.015775681,0,
00:08.2,0.004526138,0.000875473,0.015769958,0,
00:08.3,0.004480362,0.000846863,0.015758514,0,
00:08.3,0.004508972,0.000886917,0.015724182,0,
00:08.3,0.004543304,0.000904083,0.015769958,0,
00:08.3,0.004514694,0.000858307,0.015775681,0,
00:08.3,0.004486084,0.000829697,0.015752792,0,
00:08.3,0.004491806,0.000875473,0.015769958,0,
00:08.3,0.004514694,0.000875473,0.015781403,0,
00:08.3,0.004480362,0.000841141,0.01574707,0,
00:08.3,0.004480362,0.000841141,0.015775681,0,
00:08.3,0.004514694,0.000875473,0.015769958,0,
00:08.3,0.004514694,0.000869751,0.015758514,0,
00:08.3,0.004486084,0.000841141,0.015758514,0,
00:08.3,0.004508972,0.000864029,0.015775681,0,
00:08.3,0.004508972,0.000858307,0.015769958,0,
00:08.3,0.004497528,0.000886917,0.015764236,0,
00:08.3,0.004537582,0.000921249,0.015712738,0,
00:08.3,0.004486084,0.000846863,0.015769958,0,
00:08.3,0.004480362,0.000829697,0.015827179,0,
00:08.3,0.004497528,0.000852585,0.015769958,0,
00:08.3,0.00450325,0.000869751,0.015741348,0,
00:08.3,0.004486084,0.000864029,0.015758514,0,
00:08.3,0.004514694,0.000841141,0.015764236,0,
00:08.3,0.004491806,0.000846863,0.015775681,0,
00:08.3,0.004497528,0.000852585,0.015787125,0,
00:08.3,0.00450325,0.000881195,0.015769958,0,
00:08.4,0.004520416,0.000915527,0.015758514,0,
00:08.4,0.004491806,0.000864029,0.015758514,0,
00:08.4,0.004486084,0.000846863,0.015764236,0,
00:08.4,0.004491806,0.000846863,0.015758514,0,
00:08.4,0.004491806,0.000864029,0.015769958,0,
00:08.4,0.004497528,0.000864029,0.015781403,0,
00:08.4,0.004508972,0.000875473,0.015781403,0,
00:08.4,0.004514694,0.000852585,0.015781403,0,
00:08.4,0.00450325,0.000864029,0.015775681,0,
00:08.4,0.004486084,0.000869751,0.015764236,0,
00:08.4,0.004480362,0.000841141,0.015764236,0,
00:08.4,0.004497528,0.000852585,0.015781403,0,
00:08.4,0.004491806,0.000892639,0.015775681,0,
00:08.4,0.004497528,0.000886917,0.015775681,0,
00:08.4,0.004508972,0.000898361,0.015775681,0,
00:08.4,0.004486084,0.000864029,0.015752792,0,
00:08.4,0.004491806,0.000829697,0.015769958,0,
00:08.4,0.004480362,0.000852585,0.015798569,0,
00:08.4,0.00444603,0.000841141,0.015792847,0,
00:08.4,0.004491806,0.000875473,0.015764236,0,
00:08.4,0.00453186,0.000909805,0.015724182,0,
00:08.4,0.004491806,0.000881195,0.015752792,0,
00:08.4,0.004457474,0.000835419,0.015781403,0,
00:08.4,0.004491806,0.000852585,0.015775681,0,
00:08.4,0.004497528,0.000864029,0.015775681,0,
00:08.5,0.004486084,0.000858307,0.015792847,0,
00:08.5,0.004491806,0.000875473,0.015792847,0,
00:08.5,0.004491806,0.000875473,0.015787125,0,
00:08.5,0.004480362,0.000858307,0.015781403,0,
00:08.5,0.004497528,0.000869751,0.015769958,0,
00:08.5,0.004486084,0.000875473,0.015769958,0,
00:08.5,0.00450325,0.000898361,0.015775681,0,
00:08.5,0.00450325,0.000892639,0.015764236,0,
00:08.5,0.00444603,0.000823975,0.015775681,0,
00:08.5,0.004457474,0.000835419,0.015781403,0,
00:08.5,0.004497528,0.000869751,0.015787125,0,
00:08.5,0.004486084,0.000898361,0.015769958,0,
00:08.5,0.004468918,0.000835419,0.015775681,0,
00:08.5,0.004480362,0.000858307,0.015764236,0,
00:08.5,0.004520416,0.000909805,0.015769958,0,
00:08.5,0.004480362,0.000858307,0.015775681,0,
00:08.5,0.004468918,0.000886917,0.015769958,0,
00:08.5,0.004486084,0.000881195,0.015787125,0,
00:08.5,0.004457474,0.000864029,0.015787125,0,
00:08.5,0.00447464,0.000875473,0.015781403,0,
00:08.5,0.004468918,0.000846863,0.015775681,0,
00:08.5,0.004480362,0.000852585,0.015792847,0,
00:08.5,0.004486084,0.000875473,0.015781403,0,
00:08.5,0.00447464,0.000875473,0.015775681,0,
00:08.5,0.004491806,0.000886917,0.015781403,0,
00:08.6,0.004508972,0.000886917,0.015741348,0,
00:08.6,0.004480362,0.000858307,0.015758514,0,
00:08.6,0.00447464,0.000858307,0.015769958,0,
00:08.6,0.004486084,0.000875473,0.015758514,0,
00:08.6,0.004480362,0.000864029,0.015810013,0,
00:08.6,0.004468918,0.000864029,0.015787125,0,
00:08.6,0.004463196,0.000864029,0.015764236,0,
00:08.6,0.004491806,0.000892639,0.015787125,0,
00:08.6,0.004486084,0.000875473,0.015787125,0,
00:08.6,0.004508972,0.000898361,0.01574707,0,
00:08.6,0.004486084,0.000869751,0.015792847,0,
00:08.6,0.004491806,0.000892639,0.015775681,0,
00:08.6,0.004486084,0.000886917,0.015758514,0,
00:08.6,0.004457474,0.000818253,0.015758514,0,
00:08.6,0.004463196,0.000846863,0.015769958,0,
00:08.6,0.00447464,0.000864029,0.015787125,0,
00:08.6,0.004457474,0.000875473,0.015804291,0,
00:08.6,0.004486084,0.000892639,0.015769958,0,
00:08.6,0.004486084,0.000864029,0.015804291,0,
00:08.6,0.00450325,0.000869751,0.015798569,0,
00:08.6,0.004480362,0.000864029,0.015769958,0,
00:08.6,0.004480362,0.000881195,0.015764236,0,
00:08.6,0.004468918,0.000864029,0.015758514,0,
00:08.6,0.004480362,0.000886917,0.015792847,0,
00:08.6,0.004468918,0.000875473,0.015781403,0,
00:08.7,0.00447464,0.000869751,0.015752792,0,
00:08.7,0.004468918,0.000846863,0.015787125,0,
00:08.7,0.004468918,0.000869751,0.015781403,0,
00:08.7,0.004457474,0.000846863,0.015781403,0,
00:08.7,0.004491806,0.000881195,0.015792847,0,
00:08.7,0.004491806,0.000892639,0.015798569,0,
00:08.7,0.004491806,0.000892639,0.01574707,0,
00:08.7,0.004480362,0.000875473,0.015764236,0,
00:08.7,0.00447464,0.000864029,0.015764236,0,
00:08.7,0.00447464,0.000864029,0.015775681,0,
00:08.7,0.00447464,0.000886917,0.015787125,0,
00:08.7,0.004457474,0.000898361,0.015764236,0,
00:08.7,0.00447464,0.000881195,0.015775681,0,
00:08.7,0.004468918,0.000835419,0.015781403,0,
00:08.7,0.004480362,0.000875473,0.015769958,0,
00:08.7,0.004508972,0.000921249,0.015752792,0,
00:08.7,0.00447464,0.000875473,0.015758514,0,
00:08.7,0.004428864,0.000823975,0.015792847,0,
00:08.7,0.004457474,0.000858307,0.015787125,0,
00:08.7,0.00447464,0.000852585,0.015798569,0,
00:08.7,0.004480362,0.000869751,0.015769958,0,
00:08.7,0.00447464,0.000875473,0.015752792,0,
00:08.7,0.004463196,0.000875473,0.015752792,0,
00:08.7,0.004451752,0.000864029,0.015804291,0,
00:08.7,0.004451752,0.000886917,0.015769958,0,
00:08.8,0.00447464,0.000886917,0.015792847,0,
00:08.8,0.004451752,0.000835419,0.015798569,0,
00:08.8,0.004463196,0.000875473,0.015769958,0,
00:08.8,0.004491806,0.000909805,0.015798569,0,
00:08.8,0.00447464,0.000886917,0.015769958,0,
00:08.8,0.004468918,0.000869751,0.015775681,0,
00:08.8,0.004463196,0.000869751,0.015792847,0,
00:08.8,0.004468918,0.000841141,0.015781403,0,
00:08.8,0.004451752,0.000858307,0.015781403,0,
00:08.8,0.004440308,0.000875473,0.015758514,0,
00:08.8,0.004486084,0.000898361,0.015769958,0,
00:08.8,0.004486084,0.000904083,0.015787125,0,
00:08.8,0.00444603,0.000852585,0.015792847,0,
00:08.8,0.004440308,0.000869751,0.015775681,0,
00:08.8,0.004486084,0.000915527,0.015787125,0,
00:08.8,0.004526138,0.000898361,0.015729904,0,
00:08.8,0.004434586,0.000806808,0.015752792,0,
00:08.8,0.004411697,0.000835419,0.015815735,0,
00:08.8,0.004468918,0.000869751,0.015810013,0,
00:08.8,0.004468918,0.000869751,0.015798569,0,
00:08.8,0.004468918,0.000881195,0.015781403,0,
00:08.8,0.004451752,0.000858307,0.015769958,0,
00:08.8,0.004440308,0.000869751,0.015758514,0,
00:08.8,0.004463196,0.000864029,0.015769958,0,
00:08.8,0.004468918,0.000852585,0.015781403,0,
00:08.9,0.004451752,0.000869751,0.015781403,0,
00:08.9,0.004468918,0.000875473,0.015769958,0,
00:08.9,0.004486084,0.000875473,0.015792847,0,
00:08.9,0.004451752,0.000858307,0.015804291,0,
00:08.9,0.004451752,0.000875473,0.015764236,0,
00:08.9,0.004480362,0.000898361,0.015769958,0,
00:08.9,0.004480362,0.000904083,0.015775681,0,
00:08.9,0.004428864,0.000835419,0.015752792,0,
00:08.9,0.004434586,0.000829697,0.015769958,0,
00:08.9,0.004451752,0.000869751,0.015792847,0,
00:08.9,0.00444603,0.000881195,0.015775681,0,
00:08.9,0.004457474,0.000898361,0.015769958,0,
00:08.9,0.00447464,0.000864029,0.015792847,0,
00:08.9,0.004463196,0.000852585,0.015764236,0,
00:08.9,0.004480362,0.000898361,0.015781403,0,
00:08.9,0.00447464,0.000869751,0.015787125,0,
00:08.9,0.004468918,0.000886917,0.015775681,0,
00:08.9,0.004457474,0.000909805,0.015769958,0,
00:08.9,0.004463196,0.000886917,0.015775681,0,
00:08.9,0.004434586,0.000841141,0.015792847,0,
00:08.9,0.004434586,0.000846863,0.015758514,0,
00:08.9,0.004451752,0.000864029,0.015792847,0,
00:08.9,0.004468918,0.000898361,0.015804291,0,
00:08.9,0.004457474,0.000904083,0.015792847,0,
00:08.9,0.004440308,0.000835419,0.015798569,0,
00:09.0,0.004428864,0.000846863,0.015775681,0,
00:09.0,0.004440308,0.000858307,0.015792847,0,
00:09.0,0.004457474,0.000875473,0.015787125,0,
00:09.0,0.004463196,0.000875473,0.015758514,0,
00:09.0,0.004457474,0.000864029,0.015741348,0,
00:09.0,0.004457474,0.000864029,0.015787125,0,
00:09.0,0.004440308,0.000852585,0.015764236,0,
00:09.0,0.004440308,0.000864029,0.015810013,0,
00:09.0,0.004463196,0.000869751,0.015792847,0,
00:09.0,0.00447464,0.000881195,0.015752792,0,
00:09.0,0.004486084,0.000938416,0.015758514,0,
00:09.0,0.004468918,0.000886917,0.015758514,0,
00:00:09,0.00444603,0.000841141,0.015787125,0,
00:09.0,0.004417419,0.000864029,0.015804291,0,
00:09.0,0.004463196,0.000915527,0.015769958,0,
00:09.0,0.004468918,0.000921249,0.015792847,0,
00:09.0,0.004451752,0.000835419,0.015775681,0,
00:09.0,0.004428864,0.000835419,0.015792847,0,
00:09.0,0.004417419,0.000852585,0.015792847,0,
00:09.0,0.004463196,0.000915527,0.015764236,0,
00:09.0,0.004468918,0.000864029,0.015792847,0,
00:09.0,0.004463196,0.000886917,0.015758514,0,
00:09.0,0.004451752,0.000864029,0.015769958,0,
00:09.0,0.004428864,0.000841141,0.015764236,0,
00:09.0,0.004451752,0.000875473,0.015758514,0,
00:09.1,0.004423141,0.000841141,0.015775681,0,
00:09.1,0.004428864,0.000881195,0.015775681,0,
00:09.1,0.004468918,0.000886917,0.015752792,0,
00:09.1,0.004468918,0.000892639,0.015752792,0,
00:09.1,0.004451752,0.000875473,0.015775681,0,
00:09.1,0.004423141,0.000846863,0.015775681,0,
00:09.1,0.004440308,0.000881195,0.015758514,0,
00:09.1,0.00444603,0.000875473,0.015758514,0,
00:09.1,0.004440308,0.000886917,0.015764236,0,
00:09.1,0.004434586,0.000852585,0.015781403,0,
00:09.1,0.004457474,0.000858307,0.015781403,0,
00:09.1,0.004434586,0.000875473,0.015764236,0,
00:09.1,0.004451752,0.000881195,0.015775681,0,
00:09.1,0.004463196,0.000875473,0.015781403,0,
00:09.1,0.00444603,0.000869751,0.015764236,0,
00:09.1,0.004457474,0.000915527,0.01574707,0,
00:09.1,0.004457474,0.000892639,0.015741348,0,
00:09.1,0.004434586,0.000852585,0.015775681,0,
00:09.1,0.004440308,0.000846863,0.015769958,0,
00:09.1,0.004423141,0.000846863,0.015752792,0,
00:09.1,0.004440308,0.000875473,0.015792847,0,
00:09.1,0.004451752,0.000886917,0.015798569,0,
00:09.1,0.004428864,0.000858307,0.015758514,0,
00:09.1,0.004463196,0.000886917,0.01574707,0,
00:09.1,0.00444603,0.000886917,0.015752792,0,
00:09.2,0.004451752,0.000892639,0.015752792,0,
00:09.2,0.004451752,0.000858307,0.015758514,0,
00:09.2,0.004423141,0.000841141,0.015752792,0,
00:09.2,0.004423141,0.000875473,0.015775681,0,
00:09.2,0.004440308,0.000875473,0.015764236,0,
00:09.2,0.004440308,0.000869751,0.015775681,0,
00:09.2,0.004434586,0.000875473,0.015769958,0,
00:09.2,0.004463196,0.000886917,0.01574707,0,
00:09.2,0.004440308,0.000869751,0.015735626,0,
00:09.2,0.004423141,0.000869751,0.015781403,0,
00:09.2,0.004434586,0.000864029,0.015810013,0,
00:09.2,0.004417419,0.000829697,0.015769958,0,
00:09.2,0.004434586,0.000875473,0.015764236,0,
00:09.2,0.00444603,0.000909805,0.015758514,0,
00:09.2,0.004463196,0.000904083,0.015769958,0,
00:09.2,0.00444603,0.000852585,0.015752792,0,
00:09.2,0.004451752,0.000852585,0.015758514,0,
00:09.2,0.004428864,0.000875473,0.01574707,0,
00:09.2,0.004440308,0.000875473,0.015764236,0,
00:09.2,0.004440308,0.000892639,0.015758514,0,
00:09.2,0.004434586,0.000881195,0.015735626,0,
00:09.2,0.004423141,0.000864029,0.015775681,0,
00:09.2,0.00444603,0.000864029,0.01574707,0,
00:09.2,0.004451752,0.000892639,0.015758514,0,
00:09.2,0.004440308,0.000875473,0.015787125,0,
00:09.3,0.004428864,0.000886917,0.015781403,0,
00:09.3,0.004411697,0.000841141,0.015764236,0,
00:09.3,0.004417419,0.000846863,0.015752792,0,
00:09.3,0.004405975,0.000858307,0.015764236,0,
00:09.3,0.004405975,0.000869751,0.015792847,0,
00:09.3,0.004434586,0.000869751,0.015781403,0,
00:09.3,0.00444603,0.000852585,0.015758514,0,
00:09.3,0.004428864,0.000869751,0.015769958,0,
00:09.3,0.004440308,0.000892639,0.01574707,0,
00:09.3,0.004428864,0.000904083,0.015764236,0,
00:09.3,0.004423141,0.000875473,0.015764236,0,
00:09.3,0.004434586,0.000869751,0.01574707,0,
00:09.3,0.004428864,0.000869751,0.015775681,0,
00:09.3,0.004440308,0.000881195,0.015769958,0,
00:09.3,0.004423141,0.000869751,0.015758514,0,
00:09.3,0.004440308,0.000858307,0.015758514,0,
00:09.3,0.004434586,0.000869751,0.015758514,0,
00:09.3,0.004428864,0.000909805,0.015764236,0,
00:09.3,0.00444603,0.000892639,0.015758514,0,
00:09.3,0.004417419,0.000841141,0.015764236,0,
00:09.3,0.004428864,0.000881195,0.015764236,0,
00:09.3,0.004451752,0.000875473,0.015781403,0,
00:09.3,0.00444603,0.000875473,0.015758514,0,
00:09.3,0.004411697,0.000875473,0.015769958,0,
00:09.3,0.004400253,0.000852585,0.015764236,0,
00:09.4,0.004388809,0.000858307,0.015769958,0,
00:09.4,0.004423141,0.000864029,0.015729904,0,
00:09.4,0.004457474,0.000875473,0.015758514,0,
00:09.4,0.004428864,0.000858307,0.015781403,0,
00:09.4,0.004400253,0.000864029,0.015787125,0,
00:09.4,0.004388809,0.000875473,0.015775681,0,
00:09.4,0.004428864,0.000875473,0.015781403,0,
00:09.4,0.004428864,0.000886917,0.015769958,0,
00:09.4,0.004434586,0.000875473,0.015724182,0,
00:09.4,0.004423141,0.000841141,0.015741348,0,
00:09.4,0.004411697,0.000875473,0.015735626,0,
00:09.4,0.004428864,0.000898361,0.015764236,0,
00:09.4,0.004440308,0.000869751,0.015781403,0,
00:09.4,0.004434586,0.000881195,0.015775681,0,
00:09.4,0.004434586,0.000892639,0.015758514,0,
00:09.4,0.004411697,0.000869751,0.015787125,0,
00:09.4,0.004411697,0.000852585,0.015769958,0,
00:09.4,0.004417419,0.000846863,0.015769958,0,
00:09.4,0.004411697,0.000852585,0.015758514,0,
00:09.4,0.004428864,0.000864029,0.01574707,0,
00:09.4,0.004423141,0.000875473,0.015752792,0,
00:09.4,0.004451752,0.000921249,0.015769958,0,
00:09.4,0.004428864,0.000921249,0.015758514,0,
00:09.4,0.004405975,0.000875473,0.015764236,0,
00:09.4,0.004411697,0.000841141,0.015781403,0,
00:09.5,0.004417419,0.000869751,0.015775681,0,
00:09.5,0.004405975,0.000875473,0.015752792,0,
00:09.5,0.004388809,0.000858307,0.015758514,0,
00:09.5,0.004417419,0.000869751,0.015787125,0,
00:09.5,0.004428864,0.000881195,0.015764236,0,
00:09.5,0.004417419,0.000869751,0.015764236,0,
00:09.5,0.004411697,0.000858307,0.015769958,0,
00:09.5,0.004394531,0.000852585,0.015775681,0,
00:09.5,0.004400253,0.000892639,0.015758514,0,
00:09.5,0.004451752,0.000915527,0.015741348,0,
00:09.5,0.004451752,0.000909805,0.015752792,0,
00:09.5,0.004428864,0.000869751,0.015735626,0,
00:09.5,0.004417419,0.000852585,0.015729904,0,
00:09.5,0.004411697,0.000852585,0.015775681,0,
00:09.5,0.004405975,0.000858307,0.015792847,0,
00:09.5,0.004394531,0.000881195,0.015775681,0,
00:09.5,0.004411697,0.000864029,0.015758514,0,
00:09.5,0.004428864,0.000864029,0.015775681,0,
00:09.5,0.004434586,0.000881195,0.015764236,0,
00:09.5,0.004434586,0.000892639,0.015769958,0,
00:09.5,0.004423141,0.000881195,0.015758514,0,
00:09.5,0.00444603,0.000909805,0.015758514,0,
00:09.5,0.004457474,0.000921249,0.015758514,0,
00:09.5,0.004411697,0.000869751,0.01574707,0,
00:09.5,0.004411697,0.000858307,0.01574707,0,
00:09.6,0.004400253,0.000858307,0.015758514,0,
00:09.6,0.004394531,0.000858307,0.015781403,0,
00:09.6,0.004423141,0.000886917,0.015787125,0,
00:09.6,0.004411697,0.000881195,0.015769958,0,
00:09.6,0.004394531,0.000852585,0.015769958,0,
00:09.6,0.004400253,0.000864029,0.015769958,0,
00:09.6,0.004400253,0.000881195,0.015764236,0,
00:09.6,0.004405975,0.000875473,0.015764236,0,
00:09.6,0.004440308,0.000886917,0.015758514,0,
00:09.6,0.004428864,0.000886917,0.015729904,0,
00:09.6,0.004434586,0.000869751,0.015758514,0,
00:09.6,0.004423141,0.000881195,0.015741348,0,
00:09.6,0.004405975,0.000869751,0.015752792,0,
00:09.6,0.004417419,0.000864029,0.015764236,0,
00:09.6,0.004423141,0.000892639,0.015769958,0,
00:09.6,0.004423141,0.000909805,0.015787125,0,
00:09.6,0.004434586,0.000892639,0.015769958,0,
00:09.6,0.004400253,0.000835419,0.015764236,0,
00:09.6,0.004405975,0.000852585,0.015769958,0,
00:09.6,0.004428864,0.000875473,0.015769958,0,
00:09.6,0.004423141,0.000869751,0.015775681,0,
00:09.6,0.004423141,0.000898361,0.015769958,0,
00:09.6,0.004417419,0.000898361,0.015752792,0,
00:09.6,0.004417419,0.000881195,0.015764236,0,
00:09.6,0.004405975,0.000864029,0.015769958,0,
00:09.7,0.004400253,0.000869751,0.015781403,0,
00:09.7,0.004405975,0.000881195,0.015741348,0,
00:09.7,0.004411697,0.000875473,0.015769958,0,
00:09.7,0.004411697,0.000875473,0.015758514,0,
00:09.7,0.004394531,0.000881195,0.015752792,0,
00:09.7,0.004400253,0.000864029,0.015787125,0,
00:09.7,0.004428864,0.000869751,0.015752792,0,
00:09.7,0.004405975,0.000886917,0.015735626,0,
00:09.7,0.004428864,0.000898361,0.015764236,0,
00:09.7,0.004423141,0.000904083,0.01574707,0,
00:09.7,0.004411697,0.000881195,0.015758514,0,
00:09.7,0.004417419,0.000875473,0.015769958,0,
00:09.7,0.004411697,0.000869751,0.015752792,0,
00:09.7,0.004417419,0.000869751,0.01574707,0,
00:09.7,0.004434586,0.000904083,0.015781403,0,
00:09.7,0.004400253,0.000875473,0.015758514,0,
00:09.7,0.004400253,0.000881195,0.015752792,0,
00:09.7,0.004423141,0.000858307,0.015781403,0,
00:09.7,0.004411697,0.000852585,0.015781403,0,
00:09.7,0.004411697,0.000898361,0.015758514,0,
00:09.7,0.004405975,0.000892639,0.015752792,0,
00:09.7,0.004400253,0.000875473,0.015764236,0,
00:09.7,0.004423141,0.000938416,0.015769958,0,
00:09.7,0.004417419,0.000915527,0.015735626,0,
00:09.7,0.004400253,0.000846863,0.015752792,0,
00:09.8,0.004400253,0.000852585,0.015775681,0,
00:09.8,0.004394531,0.000858307,0.015787125,0,
00:09.8,0.004388809,0.000886917,0.015764236,0,
00:09.8,0.004383087,0.000864029,0.015729904,0,
00:09.8,0.004440308,0.000892639,0.015758514,0,
00:09.8,0.004428864,0.000932693,0.015781403,0,
00:09.8,0.004354477,0.000869751,0.015792847,0,
00:09.8,0.004383087,0.000869751,0.015741348,0,
00:09.8,0.004423141,0.000886917,0.015724182,0,
00:09.8,0.004411697,0.000875473,0.015775681,0,
00:09.8,0.004388809,0.000892639,0.015764236,0,
00:09.8,0.004400253,0.000886917,0.015758514,0,
00:09.8,0.004417419,0.000875473,0.015775681,0,
00:09.8,0.004423141,0.000881195,0.015764236,0,
00:09.8,0.004417419,0.000864029,0.015724182,0,
00:09.8,0.004394531,0.000875473,0.015769958,0,
00:09.8,0.004411697,0.000892639,0.015769958,0,
00:09.8,0.004417419,0.000892639,0.015781403,0,
00:09.8,0.004388809,0.000864029,0.015752792,0,
00:09.8,0.004383087,0.000869751,0.015758514,0,
00:09.8,0.004394531,0.000898361,0.015752792,0,
00:09.8,0.004400253,0.000909805,0.015775681,0,
00:09.8,0.004405975,0.000886917,0.015775681,0,
00:09.8,0.004400253,0.000892639,0.015735626,0,
00:09.8,0.004394531,0.000892639,0.01574707,0,
00:09.9,0.004411697,0.000892639,0.015775681,0,
00:09.9,0.004405975,0.000869751,0.015764236,0,
00:09.9,0.004377365,0.000841141,0.015764236,0,
00:09.9,0.004388809,0.000898361,0.015741348,0,
00:09.9,0.004400253,0.000909805,0.01574707,0,
00:09.9,0.004394531,0.000881195,0.015769958,0,
00:09.9,0.004405975,0.000898361,0.015758514,0,
00:09.9,0.004405975,0.000869751,0.015741348,0,
00:09.9,0.004400253,0.000892639,0.01574707,0,
00:09.9,0.004411697,0.000892639,0.015758514,0,
00:09.9,0.004388809,0.000881195,0.015769958,0,
00:09.9,0.004377365,0.000881195,0.015752792,0,
00:09.9,0.004417419,0.000881195,0.015752792,0,
00:09.9,0.004411697,0.000875473,0.015735626,0,
00:09.9,0.004388809,0.000875473,0.015729904,0,
00:09.9,0.004388809,0.000869751,0.01574707,0,
00:09.9,0.004394531,0.000886917,0.015764236,0,
00:09.9,0.004405975,0.000909805,0.01574707,0,
00:09.9,0.004405975,0.000869751,0.01574707,0,
00:09.9,0.004394531,0.000881195,0.015735626,0,
00:09.9,0.004371643,0.000858307,0.015769958,0,
00:09.9,0.004377365,0.000881195,0.015781403,0,
00:09.9,0.004417419,0.000915527,0.015775681,0,
00:09.9,0.004400253,0.000881195,0.015752792,0,
00:09.9,0.004405975,0.000892639,0.015741348,0,
00:10.0,0.004405975,0.000892639,0.015729904,0,
00:10.0,0.004411697,0.000892639,0.015735626,0,
00:10.0,0.004405975,0.000898361,0.015758514,0,
00:10.0,0.004383087,0.000881195,0.015764236,0,
00:10.0,0.004377365,0.000852585,0.015769958,0,
00:10.0,0.004394531,0.000875473,0.015752792,0,
00:10.0,0.004400253,0.000881195,0.015735626,0,
00:10.0,0.004411697,0.000909805,0.01574707,0,
00:10.0,0.004388809,0.000875473,0.015764236,0,
00:10.0,0.004388809,0.000852585,0.015775681,0,
00:10.0,0.004417419,0.000904083,0.01574707,0,
00:10.0,0.004405975,0.000915527,0.015729904,0,
00:00:10,0.004394531,0.000881195,0.01574707,0,
00:10.0,0.004388809,0.000869751,0.015758514,0,
00:10.0,0.004377365,0.000869751,0.015752792,0,
00:10.0,0.004411697,0.000886917,0.015729904,0,
00:10.0,0.004411697,0.000898361,0.015752792,0,
00:10.0,0.004383087,0.000875473,0.01574707,0,
00:10.0,0.004377365,0.000858307,0.015769958,0,
00:10.0,0.004394531,0.000875473,0.015781403,0,
00:10.0,0.004388809,0.000881195,0.015752792,0,
00:10.0,0.004411697,0.000926971,0.015741348,0,
00:10.0,0.004428864,0.000938416,0.015729904,0,
00:10.0,0.004405975,0.000886917,0.01574707,0,
00:10.0,0.004383087,0.000852585,0.015735626,0,
00:10.1,0.004388809,0.000875473,0.015764236,0,
00:10.1,0.004394531,0.000881195,0.015781403,0,
00:10.1,0.004388809,0.000881195,0.015781403,0,
00:10.1,0.004411697,0.000926971,0.01574707,0,
00:10.1,0.004371643,0.000869751,0.015729904,0,
00:10.1,0.004365921,0.000875473,0.015758514,0,
00:10.1,0.004405975,0.000892639,0.015764236,0,
00:10.1,0.004400253,0.000898361,0.015775681,0,
00:10.1,0.004394531,0.000909805,0.015769958,0,
00:10.1,0.004371643,0.000886917,0.015752792,0,
00:10.1,0.004377365,0.000846863,0.015764236,0,
00:10.1,0.004383087,0.000869751,0.015769958,0,
00:10.1,0.004411697,0.000904083,0.015758514,0,
00:10.1,0.004423141,0.000926971,0.01574707,0,
00:10.1,0.004388809,0.000864029,0.015769958,0,
00:10.1,0.004394531,0.000864029,0.015775681,0,
00:10.1,0.004394531,0.000886917,0.01574707,0,
00:10.1,0.004411697,0.000892639,0.01574707,0,
00:10.1,0.004377365,0.000892639,0.015769958,0,
00:10.1,0.004388809,0.000909805,0.015758514,0,
00:10.1,0.004394531,0.000892639,0.015752792,0,
00:10.1,0.004394531,0.000898361,0.015769958,0,
00:10.1,0.004394531,0.000904083,0.015769958,0,
00:10.1,0.004394531,0.000869751,0.015769958,0,
00:10.1,0.004411697,0.000898361,0.015752792,0,
00:10.2,0.004405975,0.000904083,0.015758514,0,
00:10.2,0.004383087,0.000904083,0.015752792,0,
00:10.2,0.004400253,0.000898361,0.015758514,0,
00:10.2,0.004405975,0.000909805,0.015764236,0,
00:10.2,0.004371643,0.000846863,0.015769958,0,
00:10.2,0.004423141,0.000904083,0.015781403,0,
00:10.2,0.004394531,0.000898361,0.015764236,0,
00:10.2,0.004388809,0.000869751,0.015758514,0,
00:10.2,0.004371643,0.000869751,0.015775681,0,
00:10.2,0.004394531,0.000898361,0.015764236,0,
00:10.2,0.004423141,0.000892639,0.015741348,0,
00:10.2,0.004405975,0.000886917,0.015758514,0,
00:10.2,0.004383087,0.000892639,0.015781403,0,
00:10.2,0.004411697,0.000892639,0.015752792,0,
00:10.2,0.004394531,0.000909805,0.015752792,0,
00:10.2,0.004388809,0.000881195,0.015769958,0,
00:10.2,0.004383087,0.000886917,0.015775681,0,
00:10.2,0.004411697,0.000915527,0.015769958,0,
00:10.2,0.004400253,0.000869751,0.015769958,0,
00:10.2,0.004394531,0.000864029,0.015781403,0,
00:10.2,0.004400253,0.000886917,0.015758514,0,
00:10.2,0.004411697,0.000926971,0.015758514,0,
00:10.2,0.004428864,0.000932693,0.015781403,0,
00:10.2,0.004371643,0.000864029,0.015764236,0,
00:10.2,0.004383087,0.000875473,0.015781403,0,
00:10.3,0.004405975,0.000909805,0.015764236,0,
