Elapsed_Time,EMG1,EMG2,EMG3,BioRadio Event,Unnamed: 5
00:00:00,0.004640579,0.00019455,0.010562897,0,
00:00.0,0.004720688,0.000211716,0.010540009,0,
00:00.0,0.004669189,0.000177383,0.010505676,0,
00:00.0,0.004674911,0.000188828,0.010482788,0,
00:00.0,0.004703522,0.000200272,0.010465622,0,
00:00.0,0.004629135,0.000131607,0.010505676,0,
00:00.0,0.004640579,0.000137329,0.010499954,0,
00:00.0,0.004692078,0.000177383,0.010471344,0,
00:00.0,0.004669189,0.000177383,0.01043129,0,
00:00.0,0.004703522,0.000160217,0.010437012,0,
00:00.0,0.004703522,0.000188828,0.010425568,0,
00:00.0,0.004674911,0.000165939,0.010442734,0,
00:00.0,0.004680634,0.000143051,0.010477066,0,
00:00.1,0.004680634,0.000154495,0.010465622,0,
00:00.1,0.004640579,0.000148773,0.010448456,0,
00:00.1,0.004692078,0.000143051,0.010425568,0,
00:00.1,0.004674911,0.000171661,0.010396957,0,
00:00.1,0.0046978,0.000171661,0.010408401,0,
00:00.1,0.004692078,0.000177383,0.010391235,0,
00:00.1,0.004657745,0.000183105,0.010328293,0,
00:00.1,0.004669189,0.000177383,0.010374069,0,
00:00.1,0.0046978,0.000165939,0.010362625,0,
00:00.1,0.004714966,0.000148773,0.010396957,0,
00:00.1,0.004629135,0.000131607,0.010379791,0,
00:00.1,0.004606247,0.000125885,0.010374069,0,
00:00.1,0.004629135,0.000165939,0.010351181,0,
00:00.1,0.004594803,0.00019455,0.010322571,0,
00:00.1,0.004720688,0.000200272,0.010305405,0,
00:00.1,0.004714966,0.000177383,0.010293961,0,
00:00.1,0.004646301,0.000171661,0.010305405,0,
00:00.1,0.004686356,0.000171661,0.010345459,0,
00:00.1,0.004709244,0.000183105,0.010316849,0,
00:00.1,0.004663467,0.000177383,0.010322571,0,
00:00.1,0.004652023,0.00019455,0.010271072,0,
00:00.1,0.004663467,0.000183105,0.010231018,0,
00:00.1,0.004657745,0.000165939,0.010253906,0,
00:00.1,0.0046978,0.000205994,0.010231018,0,
00:00.1,0.004646301,0.000177383,0.010271072,0,
00:00.2,0.004634857,0.000137329,0.010305405,0,
00:00.2,0.004577637,0.000143051,0.010242462,0,
00:00.2,0.004663467,0.000148773,0.01023674,0,
00:00.2,0.004634857,0.000171661,0.01023674,0,
00:00.2,0.004674911,0.000188828,0.010231018,0,
00:00.2,0.004606247,0.000171661,0.010242462,0,
00:00.2,0.004606247,0.000154495,0.010202408,0,
00:00.2,0.004623413,0.000154495,0.01017952,0,
00:00.2,0.004669189,0.000171661,0.010219574,0,
00:00.2,0.004611969,0.000177383,0.010202408,0,
00:00.2,0.004600525,0.000154495,0.010156631,0,
00:00.2,0.004589081,0.000120163,0.010162354,0,
00:00.2,0.004663467,0.000120163,0.010162354,0,
00:00.2,0.004634857,0.000143051,0.010150909,0,
00:00.2,0.004652023,0.000200272,0.010122299,0,
00:00.2,0.004629135,0.000211716,0.010122299,0,
00:00.2,0.004634857,0.000211716,0.010093689,0,
00:00.2,0.004589081,0.000200272,0.010116577,0,
00:00.2,0.004583359,0.000143051,0.010128021,0,
00:00.2,0.004629135,0.000160217,0.010122299,0,
00:00.2,0.004629135,0.00019455,0.010110855,0,
00:00.2,0.004629135,0.000211716,0.010099411,0,
00:00.2,0.004589081,0.000205994,0.010082245,0,
00:00.2,0.004611969,0.000177383,0.010070801,0,
00:00.2,0.004629135,0.000148773,0.010036469,0,
00:00.3,0.004629135,0.000137329,0.010036469,0,
00:00.3,0.004497528,0.000183105,0.010093689,0,
00:00.3,0.004611969,0.000217438,0.010070801,0,
00:00.3,0.004646301,0.000177383,0.010059357,0,
00:00.3,0.004663467,0.000165939,0.010047913,0,
00:00.3,0.004623413,0.000165939,0.010042191,0,
00:00.3,0.004514694,0.000131607,0.010036469,0,
00:00.3,0.004549026,0.000177383,0.010019302,0,
00:00.3,0.004663467,0.00025177,0.009990692,0,
00:00.3,0.004674911,0.00025177,0.009962082,0,
00:00.3,0.004617691,0.000200272,0.00998497,0,
00:00.3,0.004560471,0.000160217,0.00998497,0,
00:00.3,0.004497528,0.000148773,0.009990692,0,
00:00.3,0.004577637,0.000160217,0.009979248,0,
00:00.3,0.004634857,0.000188828,0.00995636,0,
00:00.3,0.004566193,0.000165939,0.009939194,0,
00:00.3,0.004583359,0.000125885,0.009944916,0,
00:00.3,0.004566193,0.000154495,0.009904861,0,
00:00.3,0.004583359,0.000217438,0.009904861,0,
00:00.3,0.004611969,0.000228882,0.00992775,0,
00:00.3,0.004566193,0.000177383,0.009893417,0,
00:00.3,0.004583359,0.000183105,0.009887695,0,
00:00.3,0.004566193,0.000183105,0.009870529,0,
00:00.3,0.004417419,0.000171661,0.009887695,0,
00:00.3,0.004508972,0.000165939,0.009847641,0,
00:00.4,0.004606247,0.000171661,0.009853363,0,
00:00.4,0.004589081,0.000183105,0.009830475,0,
00:00.4,0.004560471,0.000200272,0.009836197,0,
00:00.4,0.004486084,0.000183105,0.009841919,0,
00:00.4,0.004549026,0.000171661,0.009813309,0,
00:00.4,0.004526138,0.000160217,0.009807587,0,
00:00.4,0.004514694,0.000177383,0.009824753,0,
00:00.4,0.004543304,0.000188828,0.009796143,0,
00:00.4,0.004526138,0.000171661,0.009767532,0,
00:00.4,0.004526138,0.000188828,0.009801865,0,
00:00.4,0.004543304,0.000240326,0.009773254,0,
00:00.4,0.00453186,0.000228882,0.009738922,0,
00:00.4,0.004520416,0.000183105,0.009767532,0,
00:00.4,0.004514694,0.000148773,0.009750366,0,
00:00.4,0.004508972,0.000131607,0.009750366,0,
00:00.4,0.004457474,0.000143051,0.009727478,0,
00:00.4,0.004537582,0.000211716,0.00970459,0,
00:00.4,0.004554749,0.000268936,0.009698868,0,
00:00.4,0.004543304,0.000263214,0.00970459,0,
00:00.4,0.004537582,0.000211716,0.009687424,0,
00:00.4,0.004400253,0.000160217,0.009710312,0,
00:00.4,0.00450325,0.000183105,0.009698868,0,
00:00.4,0.00453186,0.00019455,0.009658813,0,
00:00.4,0.004486084,0.000160217,0.009641647,0,
00:00.4,0.004468918,0.000160217,0.009647369,0,
00:00.5,0.00447464,0.000183105,0.009693146,0,
00:00.5,0.004497528,0.000177383,0.009681702,0,
00:00.5,0.004520416,0.000183105,0.009653091,0,
00:00.5,0.004451752,0.000200272,0.009647369,0,
00:00.5,0.004537582,0.000240326,0.009653091,0,
00:00.5,0.004468918,0.000165939,0.009601593,0,
00:00.5,0.004428864,0.000143051,0.009618759,0,
00:00.5,0.004451752,0.00019455,0.009618759,0,
00:00.5,0.004497528,0.000171661,0.009584427,0,
00:00.5,0.004468918,0.000171661,0.009595871,0,
00:00.5,0.004423141,0.00022316,0.009595871,0,
00:00.5,0.004514694,0.000234604,0.009590149,0,
00:00.5,0.004520416,0.000217438,0.009595871,0,
00:00.5,0.00444603,0.000160217,0.009595871,0,
00:00.5,0.004423141,0.000120163,0.009572983,0,
00:00.5,0.004434586,0.000143051,0.009550095,0,
00:00.5,0.004514694,0.000143051,0.009550095,0,
00:00.5,0.004486084,0.000154495,0.009578705,0,
00:00.5,0.00447464,0.00019455,0.009555817,0,
00:00.5,0.004463196,0.00019455,0.009590149,0,
00:00.5,0.004486084,0.000200272,0.009550095,0,
00:00.5,0.004457474,0.000154495,0.009561539,0,
00:00.5,0.004417419,0.000154495,0.009532928,0,
00:00.5,0.004434586,0.000137329,0.009538651,0,
00:00.5,0.004411697,0.000143051,0.009527206,0,
00:00.6,0.004417419,0.000183105,0.009504318,0,
00:00.6,0.00450325,0.000205994,0.009487152,0,
00:00.6,0.004411697,0.000205994,0.009538651,0,
00:00.6,0.004417419,0.000143051,0.009515762,0,
00:00.6,0.004411697,0.000114441,0.009504318,0,
00:00.6,0.004423141,0.000154495,0.009492874,0,
00:00.6,0.004411697,0.000183105,0.00948143,0,
00:00.6,0.00447464,0.000165939,0.009492874,0,
00:00.6,0.004491806,0.000125885,0.009504318,0,
00:00.6,0.004463196,0.000165939,0.009469986,0,
00:00.6,0.004434586,0.000188828,0.009492874,0,
00:00.6,0.004377365,0.000160217,0.009475708,0,
00:00.6,0.004423141,0.000154495,0.00945282,0,
00:00.6,0.004480362,0.000154495,0.00945282,0,
00:00.6,0.004434586,0.000137329,0.009458542,0,
00:00.6,0.004377365,0.000120163,0.009458542,0,
00:00.6,0.004423141,0.000165939,0.009469986,0,
00:00.6,0.004468918,0.000188828,0.009458542,0,
00:00.6,0.004434586,0.000171661,0.009441376,0,
00:00.6,0.004428864,0.000148773,0.009458542,0,
00:00.6,0.004423141,0.000137329,0.009447098,0,
00:00.6,0.004417419,0.000171661,0.009429932,0,
00:00.6,0.004434586,0.000228882,0.009401321,0,
00:00.6,0.004451752,0.00022316,0.009441376,0,
00:00.6,0.004423141,0.000177383,0.009441376,0,
00:00.7,0.004434586,0.000120163,0.009429932,0,
00:00.7,0.004411697,0.000143051,0.009407043,0,
00:00.7,0.004411697,0.000154495,0.009401321,0,
00:00.7,0.004400253,0.000154495,0.009395599,0,
00:00.7,0.004411697,0.000131607,0.009418488,0,
00:00.7,0.004451752,0.000160217,0.009429932,0,
00:00.7,0.004411697,0.000165939,0.009418488,0,
00:00.7,0.004423141,0.000131607,0.009412766,0,
00:00.7,0.004405975,0.000148773,0.009401321,0,
00:00.7,0.004434586,0.000177383,0.009389877,0,
00:00.7,0.004337311,0.000125885,0.009389877,0,
00:00.7,0.004337311,0.000120163,0.009366989,0,
00:00.7,0.004417419,0.000188828,0.009355545,0,
00:00.7,0.004434586,0.000240326,0.009389877,0,
00:00.7,0.004417419,0.000183105,0.009407043,0,
00:00.7,0.004411697,0.000131607,0.00942421,0,
00:00.7,0.004383087,0.000143051,0.009395599,0,
00:00.7,0.004360199,0.00019455,0.009349823,0,
00:00.7,0.004343033,0.00019455,0.009361267,0,
00:00.7,0.004423141,0.000165939,0.009384155,0,
00:00.7,0.004405975,0.000148773,0.009407043,0,
00:00.7,0.004394531,0.000177383,0.009407043,0,
00:00.7,0.004394531,0.000177383,0.009366989,0,
00:00.7,0.004394531,0.000177383,0.009349823,0,
00:00.7,0.004417419,0.000183105,0.009366989,0,
00:00.8,0.004411697,0.000183105,0.009372711,0,
00:00.8,0.004405975,0.000165939,0.009361267,0,
00:00.8,0.004377365,0.000114441,0.009378433,0,
00:00.8,0.004394531,9.73E-05,0.009372711,0,
00:00.8,0.004383087,0.000137329,0.009361267,0,
00:00.8,0.004262924,0.000183105,0.009332657,0,
00:00.8,0.004360199,0.000188828,0.009309769,0,
00:00.8,0.004411697,0.000143051,0.009315491,0,
00:00.8,0.004400253,0.000154495,0.009366989,0,
00:00.8,0.004400253,0.000165939,0.009349823,0,
00:00.8,0.004365921,0.000148773,0.009349823,0,
00:00.8,0.004388809,0.000165939,0.009326935,0,
00:00.8,0.004343033,0.000114441,0.009332657,0,
00:00.8,0.004343033,0.000120163,0.009372711,0,
00:00.8,0.004314423,0.000177383,0.009384155,0,
00:00.8,0.004360199,0.000148773,0.009321213,0,
00:00.8,0.004308701,0.000200272,0.009309769,0,
00:00.8,0.004440308,0.00022316,0.009332657,0,
00:00.8,0.004388809,0.000171661,0.009332657,0,
00:00.8,0.004331589,0.000154495,0.009344101,0,
00:00.8,0.004377365,0.000143051,0.009355545,0,
00:00.8,0.004371643,0.000143051,0.009366989,0,
00:00.8,0.004388809,0.000160217,0.009326935,0,
00:00.8,0.004440308,0.00019455,0.009332657,0,
00:00.8,0.004388809,0.000165939,0.009321213,0,
00:00.9,0.004354477,0.000125885,0.009315491,0,
00:00.9,0.004348755,0.000154495,0.009355545,0,
00:00.9,0.004360199,0.000177383,0.009344101,0,
00:00.9,0.004360199,0.000154495,0.009349823,0,
00:00.9,0.004377365,0.000114441,0.009349823,0,
00:00.9,0.004365921,9.73E-05,0.009321213,0,
00:00.9,0.004343033,0.000131607,0.009315491,0,
00:00.9,0.004360199,0.000160217,0.009315491,0,
00:00.9,0.004348755,0.000125885,0.009309769,0,
00:00.9,0.004360199,0.000125885,0.009326935,0,
00:00.9,0.004325867,0.000148773,0.009326935,0,
00:00.9,0.004291534,0.000148773,0.009372711,0,
00:00.9,0.004331589,0.000165939,0.009338379,0,
00:00.9,0.004302979,0.000154495,0.009309769,0,
00:00.9,0.004343033,0.000131607,0.009349823,0,
00:00.9,0.004388809,0.000165939,0.009355545,0,
00:00.9,0.004377365,0.000137329,0.009332657,0,
00:00.9,0.004423141,0.000154495,0.009326935,0,
00:00.9,0.004360199,0.000171661,0.009361267,0,
00:00.9,0.004377365,0.000171661,0.009355545,0,
00:00.9,0.004365921,0.000154495,0.009344101,0,
00:00.9,0.004348755,0.000125885,0.009326935,0,
00:00.9,0.004354477,0.000148773,0.009326935,0,
00:00.9,0.004388809,0.000148773,0.009366989,0,
00:00.9,0.004377365,0.000165939,0.009372711,0,
00:01.0,0.004325867,0.000171661,0.009361267,0,
00:01.0,0.004308701,0.000137329,0.009344101,0,
00:01.0,0.004354477,0.000125885,0.009361267,0,
00:01.0,0.004320145,0.000137329,0.009372711,0,
00:01.0,0.004320145,0.000160217,0.009366989,0,
00:01.0,0.004371643,0.000137329,0.009349823,0,
00:01.0,0.004360199,0.000108719,0.009384155,0,
00:01.0,0.004377365,0.000137329,0.009372711,0,
00:01.0,0.004331589,0.000114441,0.009361267,0,
00:01.0,0.004371643,0.000131607,0.009361267,0,
00:01.0,0.004354477,0.000171661,0.009372711,0,
00:01.0,0.004394531,0.000188828,0.009361267,0,
00:00:01,0.004365921,0.000154495,0.009378433,0,
00:01.0,0.004343033,5.72E-05,0.009407043,0,
00:01.0,0.00428009,5.15E-05,0.009418488,0,
00:01.0,0.004325867,0.000165939,0.009407043,0,
00:01.0,0.004405975,0.000217438,0.009366989,0,
00:01.0,0.004400253,0.000205994,0.009372711,0,
00:01.0,0.004354477,0.000183105,0.009441376,0,
00:01.0,0.004360199,0.000177383,0.009441376,0,
00:01.0,0.004371643,0.000188828,0.009407043,0,
00:01.0,0.004337311,0.000165939,0.009435654,0,
00:01.0,0.004291534,0.000143051,0.009435654,0,
00:01.0,0.004388809,0.000137329,0.009435654,0,
00:01.0,0.004388809,0.000154495,0.009407043,0,
00:01.1,0.004383087,0.000177383,0.009389877,0,
00:01.1,0.004371643,0.000148773,0.009418488,0,
00:01.1,0.004365921,0.000125885,0.009435654,0,
00:01.1,0.004383087,0.000108719,0.009475708,0,
00:01.1,0.004371643,0.000125885,0.009487152,0,
00:01.1,0.004360199,0.000131607,0.00945282,0,
00:01.1,0.004360199,0.000131607,0.00945282,0,
00:01.1,0.004383087,0.000171661,0.009458542,0,
00:01.1,0.004377365,0.000160217,0.009447098,0,
00:01.1,0.004371643,0.000137329,0.009464264,0,
00:01.1,0.004360199,0.000137329,0.009492874,0,
00:01.1,0.004354477,0.000114441,0.009464264,0,
00:01.1,0.004343033,0.000102997,0.00948143,0,
00:01.1,0.004365921,0.000108719,0.009492874,0,
00:01.1,0.004371643,0.000120163,0.009469986,0,
00:01.1,0.004354477,0.000171661,0.009441376,0,
00:01.1,0.004337311,0.000131607,0.009458542,0,
00:01.1,0.00428009,0.000131607,0.009515762,0,
00:01.1,0.004325867,0.000137329,0.00951004,0,
00:01.1,0.004394531,0.000114441,0.009515762,0,
00:01.1,0.004360199,0.000120163,0.009527206,0,
00:01.1,0.004320145,0.000131607,0.009550095,0,
00:01.1,0.004405975,0.000154495,0.009532928,0,
00:01.1,0.004423141,0.000154495,0.009532928,0,
00:01.1,0.004388809,0.000125885,0.009527206,0,
00:01.2,0.004377365,0.000160217,0.009538651,0,
00:01.2,0.004388809,0.000154495,0.009538651,0,
00:01.2,0.004383087,0.000148773,0.009538651,0,
00:01.2,0.004365921,0.000120163,0.009550095,0,
00:01.2,0.004331589,0.000114441,0.009567261,0,
00:01.2,0.004417419,0.000154495,0.009567261,0,
00:01.2,0.004343033,0.000125885,0.009567261,0,
00:01.2,0.004383087,0.000160217,0.009538651,0,
00:01.2,0.004394531,0.000148773,0.009544373,0,
00:01.2,0.004388809,9.16E-05,0.009613037,0,
00:01.2,0.004400253,0.000120163,0.009618759,0,
00:01.2,0.004394531,0.000131607,0.009578705,0,
00:01.2,0.004365921,0.000108719,0.009590149,0,
00:01.2,0.004365921,9.73E-05,0.009624481,0,
00:01.2,0.004377365,0.000114441,0.009618759,0,
00:01.2,0.004400253,0.000137329,0.009607315,0,
00:01.2,0.004360199,0.000148773,0.009607315,0,
00:01.2,0.004320145,0.000137329,0.009624481,0,
00:01.2,0.004348755,0.000148773,0.009670258,0,
00:01.2,0.004371643,0.000154495,0.00967598,0,
00:01.2,0.004388809,0.000131607,0.009664536,0,
00:01.2,0.004371643,8.01E-05,0.009647369,0,
00:01.2,0.004371643,0.000102997,0.009647369,0,
00:01.2,0.004394531,0.000148773,0.009658813,0,
00:01.2,0.004348755,0.000165939,0.009658813,0,
00:01.3,0.004400253,0.000137329,0.009635925,0,
00:01.3,0.004411697,0.000137329,0.009641647,0,
00:01.3,0.004383087,0.000108719,0.00967598,0,
00:01.3,0.004354477,9.73E-05,0.009693146,0,
00:01.3,0.004371643,0.000108719,0.009698868,0,
00:01.3,0.004388809,0.000148773,0.00970459,0,
00:01.3,0.004314423,0.000143051,0.009698868,0,
00:01.3,0.004331589,0.000102997,0.00970459,0,
00:01.3,0.004417419,9.16E-05,0.009727478,0,
00:01.3,0.004434586,0.000154495,0.009721756,0,
00:01.3,0.004360199,0.000148773,0.00976181,0,
00:01.3,0.004417419,0.000108719,0.009756088,0,
00:01.3,0.004428864,0.000131607,0.009738922,0,
00:01.3,0.004405975,0.000143051,0.009744644,0,
00:01.3,0.004394531,0.000125885,0.009756088,0,
00:01.3,0.004377365,0.000102997,0.009773254,0,
00:01.3,0.004394531,6.87E-05,0.0097332,0,
00:01.3,0.004371643,6.29E-05,0.009778976,0,
00:01.3,0.004423141,0.000137329,0.009756088,0,
00:01.3,0.004388809,0.000137329,0.009756088,0,
00:01.3,0.004394531,0.000143051,0.009738922,0,
00:01.3,0.004394531,0.000143051,0.009790421,0,
00:01.3,0.004394531,0.000165939,0.009830475,0,
00:01.3,0.004405975,0.000143051,0.009841919,0,
00:01.3,0.004388809,8.01E-05,0.009841919,0,
00:01.4,0.004354477,6.29E-05,0.009830475,0,
00:01.4,0.004417419,0.000125885,0.009819031,0,
00:01.4,0.004388809,0.000160217,0.009807587,0,
00:01.4,0.004354477,0.000148773,0.009870529,0,
00:01.4,0.004405975,0.000148773,0.009859085,0,
00:01.4,0.00447464,0.000154495,0.009836197,0,
00:01.4,0.004451752,0.000125885,0.009841919,0,
00:01.4,0.004428864,8.58E-05,0.009881973,0,
00:01.4,0.004400253,0.000102997,0.009881973,0,
00:01.4,0.004365921,9.16E-05,0.009899139,0,
00:01.4,0.004411697,8.58E-05,0.009904861,0,
00:01.4,0.004411697,9.16E-05,0.009893417,0,
00:01.4,0.004383087,9.16E-05,0.00992775,0,
00:01.4,0.004434586,0.000143051,0.009916306,0,
00:01.4,0.004428864,0.000143051,0.009939194,0,
00:01.4,0.004394531,0.000137329,0.00992775,0,
00:01.4,0.004405975,0.000114441,0.009916306,0,
00:01.4,0.004463196,0.000102997,0.009899139,0,
00:01.4,0.004417419,0.000137329,0.009893417,0,
00:01.4,0.004428864,0.000131607,0.009967804,0,
00:01.4,0.004417419,0.000120163,0.010007858,0,
00:01.4,0.004428864,0.000148773,0.009973526,0,
00:01.4,0.004440308,0.000143051,0.009962082,0,
00:01.4,0.004388809,8.01E-05,0.010002136,0,
00:01.4,0.004457474,8.01E-05,0.010007858,0,
00:01.5,0.004463196,0.000154495,0.00998497,0,
00:01.5,0.004348755,0.000143051,0.009990692,0,
00:01.5,0.004371643,0.000131607,0.010042191,0,
00:01.5,0.004423141,0.000125885,0.01001358,0,
00:01.5,0.004411697,0.000102997,0.010007858,0,
00:01.5,0.004468918,7.44E-05,0.010047913,0,
00:01.5,0.004400253,0.000114441,0.010030746,0,
00:01.5,0.004423141,0.000137329,0.010025024,0,
00:01.5,0.004405975,9.73E-05,0.009996414,0,
00:01.5,0.004405975,0.000102997,0.010025024,0,
00:01.5,0.00447464,0.000120163,0.010053635,0,
00:01.5,0.004423141,9.16E-05,0.010076523,0,
00:01.5,0.004423141,5.15E-05,0.010076523,0,
00:01.5,0.004423141,0.000102997,0.010082245,0,
00:01.5,0.004440308,0.000131607,0.010087967,0,
00:01.5,0.004457474,0.000154495,0.010059357,0,
00:01.5,0.004428864,0.000125885,0.010105133,0,
00:01.5,0.004417419,0.000137329,0.010105133,0,
00:01.5,0.004451752,0.000114441,0.010139465,0,
00:01.5,0.004463196,6.29E-05,0.010162354,0,
00:01.5,0.004428864,5.72E-05,0.010156631,0,
00:01.5,0.004417419,0.000125885,0.010162354,0,
00:01.5,0.004491806,0.000171661,0.010168076,0,
00:01.5,0.004463196,0.000120163,0.010145187,0,
00:01.5,0.004423141,0.000102997,0.010185242,0,
00:01.6,0.004428864,0.000137329,0.010185242,0,
00:01.6,0.004428864,9.16E-05,0.010185242,0,
00:01.6,0.004423141,5.72E-05,0.010185242,0,
00:01.6,0.004434586,4.58E-05,0.010185242,0,
00:01.6,0.004440308,7.44E-05,0.01017952,0,
00:01.6,0.004468918,0.000143051,0.010213852,0,
00:01.6,0.004440308,0.000148773,0.010202408,0,
00:01.6,0.004434586,0.000102997,0.010242462,0,
00:01.6,0.004388809,9.73E-05,0.010248184,0,
00:01.6,0.004377365,9.16E-05,0.010248184,0,
00:01.6,0.004440308,8.58E-05,0.010288239,0,
00:01.6,0.00444603,8.58E-05,0.010259628,0,
00:01.6,0.004411697,0.000131607,0.010253906,0,
00:01.6,0.00444603,0.000125885,0.01026535,0,
00:01.6,0.004491806,0.000114441,0.010293961,0,
00:01.6,0.004434586,7.44E-05,0.010299683,0,
00:01.6,0.004440308,9.16E-05,0.010305405,0,
00:01.6,0.004457474,9.73E-05,0.010293961,0,
00:01.6,0.004411697,8.01E-05,0.010316849,0,
00:01.6,0.004468918,9.16E-05,0.010328293,0,
00:01.6,0.004417419,0.000125885,0.010328293,0,
00:01.6,0.004423141,0.000108719,0.010322571,0,
00:01.6,0.004451752,5.72E-05,0.010345459,0,
00:01.6,0.00447464,3.43E-05,0.010351181,0,
00:01.6,0.004440308,9.16E-05,0.010374069,0,
00:01.7,0.00447464,0.000102997,0.010379791,0,
00:01.7,0.00444603,8.58E-05,0.010379791,0,
00:01.7,0.004463196,0.000125885,0.010379791,0,
00:01.7,0.004417419,0.000160217,0.010339737,0,
00:01.7,0.004440308,9.73E-05,0.010408401,0,
00:01.7,0.004440308,5.72E-05,0.010454178,0,
00:01.7,0.004491806,0.000108719,0.010419846,0,
00:01.7,0.004486084,0.000114441,0.010385513,0,
00:01.7,0.004457474,6.29E-05,0.010408401,0,
00:01.7,0.004457474,8.01E-05,0.010471344,0,
00:01.7,0.004468918,9.16E-05,0.010425568,0,
00:01.7,0.004423141,8.58E-05,0.010385513,0,
00:01.7,0.004440308,8.01E-05,0.010454178,0,
00:01.7,0.004480362,9.16E-05,0.010482788,0,
00:01.7,0.00447464,5.72E-05,0.010477066,0,
00:01.7,0.004491806,6.87E-05,0.010477066,0,
00:01.7,0.004468918,8.01E-05,0.010499954,0,
00:01.7,0.004428864,6.29E-05,0.010499954,0,
00:01.7,0.004468918,8.01E-05,0.01048851,0,
00:01.7,0.004480362,9.73E-05,0.010499954,0,
00:01.7,0.004451752,0.000102997,0.010494232,0,
00:01.7,0.004468918,0.000102997,0.01051712,0,
00:01.7,0.004457474,9.73E-05,0.010540009,0,
00:01.7,0.004486084,7.44E-05,0.010574341,0,
00:01.7,0.004480362,9.73E-05,0.010557175,0,
00:01.8,0.004497528,0.000102997,0.010551453,0,
00:01.8,0.00453186,0.000114441,0.010562897,0,
00:01.8,0.004480362,7.44E-05,0.010585785,0,
00:01.8,0.004400253,2.29E-05,0.010602951,0,
00:01.8,0.00447464,1.14E-05,0.010602951,0,
00:01.8,0.00450325,6.87E-05,0.010585785,0,
00:01.8,0.004508972,0.000125885,0.010574341,0,
00:01.8,0.004497528,0.000102997,0.010625839,0,
00:01.8,0.004468918,8.58E-05,0.010614395,0,
00:01.8,0.004468918,9.73E-05,0.010637283,0,
00:01.8,0.004520416,0.000108719,0.010631561,0,
00:01.8,0.004497528,6.29E-05,0.010614395,0,
00:01.8,0.00444603,1.72E-05,0.010660172,0,
00:01.8,0.004468918,5.72E-05,0.010700226,0,
00:01.8,0.004486084,6.29E-05,0.010677338,0,
00:01.8,0.004457474,6.29E-05,0.010660172,0,
00:01.8,0.004508972,7.44E-05,0.010654449,0,
00:01.8,0.004451752,5.15E-05,0.01068306,0,
00:01.8,0.004491806,6.87E-05,0.010728836,0,
00:01.8,0.004520416,0.000108719,0.010717392,0,
00:01.8,0.00450325,0.000102997,0.010705948,0,
00:01.8,0.004514694,8.01E-05,0.01074028,0,
00:01.8,0.004514694,8.58E-05,0.010734558,0,
00:01.8,0.00453186,8.01E-05,0.010734558,0,
00:01.8,0.004491806,6.87E-05,0.010746002,0,
00:01.9,0.004480362,8.58E-05,0.010746002,0,
00:01.9,0.004497528,7.44E-05,0.010751724,0,
00:01.9,0.00453186,6.87E-05,0.010757446,0,
00:01.9,0.004520416,6.29E-05,0.010780334,0,
00:01.9,0.004468918,7.44E-05,0.010820389,0,
00:01.9,0.004486084,3.43E-05,0.010786057,0,
00:01.9,0.004514694,5.15E-05,0.010774612,0,
00:01.9,0.00453186,6.29E-05,0.010808945,0,
00:01.9,0.004508972,5.72E-05,0.010803223,0,
00:01.9,0.00447464,8.01E-05,0.010797501,0,
00:01.9,0.00447464,8.01E-05,0.010826111,0,
00:01.9,0.00450325,8.58E-05,0.010837555,0,
00:01.9,0.004543304,9.16E-05,0.010860443,0,
00:01.9,0.004560471,6.29E-05,0.010883331,0,
00:01.9,0.004491806,5.72E-05,0.010894775,0,
00:01.9,0.004537582,5.15E-05,0.010877609,0,
00:01.9,0.00453186,6.87E-05,0.010877609,0,
00:01.9,0.00453186,8.01E-05,0.010883331,0,
00:01.9,0.004520416,3.43E-05,0.010877609,0,
00:01.9,0.004497528,0,0.010929108,0,
00:01.9,0.004554749,6.87E-05,0.010906219,0,
00:01.9,0.004554749,0.000114441,0.010894775,0,
00:01.9,0.004486084,0.000114441,0.010940552,0,
00:01.9,0.004577637,0.000114441,0.010929108,0,
00:01.9,0.004549026,9.73E-05,0.010946274,0,
00:02.0,0.00450325,8.01E-05,0.01093483,0,
00:02.0,0.004543304,5.72E-05,0.010940552,0,
00:02.0,0.004560471,3.43E-05,0.01093483,0,
00:02.0,0.004543304,1.14E-05,0.010957718,0,
00:02.0,0.004508972,1.14E-05,0.01102066,0,
00:02.0,0.00450325,7.44E-05,0.01099205,0,
00:02.0,0.004560471,9.16E-05,0.010969162,0,
00:02.0,0.004577637,0.000102997,0.010980606,0,
00:02.0,0.004508972,6.29E-05,0.01099205,0,
00:02.0,0.00450325,2.29E-05,0.011003494,0,
00:02.0,0.004566193,7.44E-05,0.011032104,0,
00:02.0,0.004589081,0.000114441,0.011014938,0,
00:00:02,0.00453186,6.29E-05,0.011054993,0,
00:02.0,0.004520416,5.15E-05,0.011083603,0,
00:02.0,0.004497528,7.44E-05,0.011054993,0,
00:02.0,0.004537582,9.73E-05,0.011037827,0,
00:02.0,0.004571915,0.000108719,0.011049271,0,
00:02.0,0.004577637,5.72E-05,0.011043549,0,
00:02.0,0.004571915,2.86E-05,0.011072159,0,
00:02.0,0.004606247,5.15E-05,0.011117935,0,
00:02.0,0.004543304,0.000102997,0.011089325,0,
00:02.0,0.004554749,9.16E-05,0.011112213,0,
00:02.0,0.004600525,0.000108719,0.011140823,0,
00:02.0,0.004571915,8.01E-05,0.011095047,0,
00:02.0,0.004526138,5.72E-06,0.011129379,0,
00:02.1,0.004508972,4.01E-05,0.011135101,0,
00:02.1,0.004520416,8.58E-05,0.01115799,0,
00:02.1,0.004566193,6.29E-05,0.011140823,0,
00:02.1,0.004606247,5.72E-05,0.011152267,0,
00:02.1,0.004520416,5.15E-05,0.011180878,0,
00:02.1,0.004486084,5.15E-05,0.011163712,0,
00:02.1,0.004497528,5.15E-05,0.011198044,0,
00:02.1,0.004571915,4.58E-05,0.011209488,0,
00:02.1,0.004594803,6.87E-05,0.0111866,0,
00:02.1,0.004606247,9.16E-05,0.011198044,0,
00:02.1,0.004600525,0.000102997,0.01121521,0,
00:02.1,0.004571915,7.44E-05,0.011232376,0,
00:02.1,0.004566193,4.58E-05,0.011192322,0,
00:02.1,0.004526138,5.72E-05,0.011238098,0,
00:02.1,0.004549026,9.16E-05,0.011255264,0,
00:02.1,0.004549026,0.000114441,0.011232376,0,
00:02.1,0.00453186,8.01E-05,0.011232376,0,
00:02.1,0.004577637,5.72E-05,0.011255264,0,
00:02.1,0.004560471,1.72E-05,0.011266708,0,
00:02.1,0.004549026,1.72E-05,0.011289597,0,
00:02.1,0.004571915,8.58E-05,0.011306763,0,
00:02.1,0.004526138,9.73E-05,0.011301041,0,
00:02.1,0.004623413,0.000125885,0.011295319,0,
00:02.1,0.004600525,9.16E-05,0.011301041,0,
00:02.1,0.004566193,5.72E-06,0.011312485,0,
00:02.2,0.004560471,4.01E-05,0.011323929,0,
00:02.2,0.004617691,0.000102997,0.011323929,0,
00:02.2,0.004606247,9.73E-05,0.011341095,0,
00:02.2,0.004594803,5.72E-05,0.011335373,0,
00:02.2,0.004537582,6.29E-05,0.011363983,0,
00:02.2,0.00453186,6.87E-05,0.011381149,0,
00:02.2,0.004594803,5.15E-05,0.011358261,0,
00:02.2,0.004577637,1.72E-05,0.011346817,0,
00:02.2,0.004571915,4.58E-05,0.011392593,0,
00:02.2,0.004560471,8.58E-05,0.011386871,0,
00:02.2,0.004566193,0.000125885,0.011404037,0,
00:02.2,0.004520416,0.000108719,0.011392593,0,
00:02.2,0.004583359,0.000102997,0.011426926,0,
00:02.2,0.004589081,0.000108719,0.011415482,0,
00:02.2,0.004583359,7.44E-05,0.011444092,0,
00:02.2,0.004571915,4.01E-05,0.011426926,0,
00:02.2,0.004589081,5.15E-05,0.011415482,0,
00:02.2,0.004594803,7.44E-05,0.011472702,0,
00:02.2,0.004600525,9.16E-05,0.011478424,0,
00:02.2,0.004577637,0.000102997,0.011444092,0,
00:02.2,0.004577637,7.44E-05,0.011444092,0,
00:02.2,0.004611969,6.87E-05,0.011507034,0,
00:02.2,0.004571915,4.01E-05,0.011512756,0,
00:02.2,0.004526138,-5.72E-06,0.01149559,0,
00:02.2,0.004589081,5.72E-06,0.011507034,0,
00:02.3,0.004623413,8.58E-05,0.011472702,0,
00:02.3,0.004571915,0.000114441,0.011478424,0,
00:02.3,0.004623413,9.16E-05,0.011507034,0,
00:02.3,0.004560471,9.16E-05,0.0115242,0,
00:02.3,0.004606247,6.29E-05,0.011541367,0,
00:02.3,0.004617691,6.87E-05,0.011518478,0,
00:02.3,0.004560471,7.44E-05,0.011552811,0,
00:02.3,0.004600525,6.29E-05,0.011535645,0,
00:02.3,0.004606247,6.87E-05,0.011547089,0,
00:02.3,0.004571915,8.01E-05,0.0115242,0,
00:02.3,0.004549026,8.01E-05,0.011569977,0,
00:02.3,0.004629135,5.72E-05,0.011587143,0,
00:02.3,0.004617691,3.43E-05,0.011615753,0,
00:02.3,0.004560471,0,0.011627197,0,
00:02.3,0.004571915,4.58E-05,0.011604309,0,
00:02.3,0.004560471,0.000114441,0.011569977,0,
00:02.3,0.004600525,7.44E-05,0.011604309,0,
00:02.3,0.004629135,3.43E-05,0.011610031,0,
00:02.3,0.004623413,9.16E-05,0.011610031,0,
00:02.3,0.004566193,0.000102997,0.011627197,0,
00:02.3,0.004566193,9.16E-05,0.011638641,0,
00:02.3,0.004657745,6.87E-05,0.011627197,0,
00:02.3,0.004657745,6.29E-05,0.011655807,0,
00:02.3,0.004560471,5.15E-05,0.01166153,0,
00:02.3,0.00453186,6.29E-05,0.011644363,0,
00:02.4,0.004634857,5.15E-05,0.011650085,0,
00:02.4,0.004606247,-5.72E-06,0.011667252,0,
00:02.4,0.004549026,2.86E-05,0.011655807,0,
00:02.4,0.004606247,6.29E-05,0.011650085,0,
00:02.4,0.004623413,6.87E-05,0.011678696,0,
00:02.4,0.004594803,7.44E-05,0.011650085,0,
00:02.4,0.004589081,9.16E-05,0.011713028,0,
00:02.4,0.004611969,7.44E-05,0.011735916,0,
00:02.4,0.004623413,5.15E-05,0.011713028,0,
00:02.4,0.004652023,8.58E-05,0.011707306,0,
00:02.4,0.004606247,9.16E-05,0.011741638,0,
00:02.4,0.004486084,6.29E-05,0.011764526,0,
00:02.4,0.004600525,4.58E-05,0.011735916,0,
00:02.4,0.004669189,8.01E-05,0.01171875,0,
00:02.4,0.004617691,6.87E-05,0.011758804,0,
00:02.4,0.004629135,7.44E-05,0.011753082,0,
00:02.4,0.004623413,4.01E-05,0.011764526,0,
00:02.4,0.004606247,3.43E-05,0.011770248,0,
00:02.4,0.004549026,3.43E-05,0.011787415,0,
00:02.4,0.004560471,5.15E-05,0.011781693,0,
00:02.4,0.004617691,4.01E-05,0.011793137,0,
00:02.4,0.004629135,8.01E-05,0.011798859,0,
00:02.4,0.004617691,0.000120163,0.011781693,0,
00:02.4,0.004629135,0.000114441,0.011798859,0,
00:02.4,0.004606247,8.01E-05,0.011810303,0,
00:02.5,0.004629135,5.15E-05,0.011804581,0,
00:02.5,0.004594803,5.15E-05,0.011787415,0,
00:02.5,0.004583359,9.16E-05,0.011821747,0,
00:02.5,0.004611969,9.73E-05,0.011827469,0,
00:02.5,0.004657745,7.44E-05,0.011850357,0,
00:02.5,0.004611969,6.29E-05,0.011861801,0,
00:02.5,0.004583359,6.29E-05,0.011856079,0,
00:02.5,0.004640579,7.44E-05,0.011833191,0,
00:02.5,0.004600525,6.87E-05,0.011798859,0,
00:02.5,0.004657745,9.73E-05,0.011833191,0,
00:02.5,0.004594803,4.58E-05,0.011878967,0,
00:02.5,0.004617691,5.15E-05,0.011890411,0,
00:02.5,0.004634857,1.14E-05,0.011896133,0,
00:02.5,0.004623413,8.58E-05,0.011896133,0,
00:02.5,0.004640579,0.000125885,0.011884689,0,
00:02.5,0.004589081,7.44E-05,0.011884689,0,
00:02.5,0.004594803,7.44E-05,0.011907578,0,
00:02.5,0.004600525,7.44E-05,0.011896133,0,
00:02.5,0.004629135,4.01E-05,0.011884689,0,
00:02.5,0.004663467,9.73E-05,0.011930466,0,
00:02.5,0.004652023,9.73E-05,0.01194191,0,
00:02.5,0.004663467,5.72E-05,0.011930466,0,
00:02.5,0.004617691,5.72E-05,0.011936188,0,
00:02.5,0.004543304,6.87E-05,0.011936188,0,
00:02.5,0.004634857,6.29E-05,0.011947632,0,
00:02.6,0.004663467,9.73E-05,0.011930466,0,
00:02.6,0.004652023,6.87E-05,0.011964798,0,
00:02.6,0.004600525,4.58E-05,0.01197052,0,
00:02.6,0.004594803,3.43E-05,0.01197052,0,
00:02.6,0.004611969,3.43E-05,0.011976242,0,
00:02.6,0.004634857,8.58E-05,0.011976242,0,
00:02.6,0.004600525,0.000114441,0.011976242,0,
00:02.6,0.004623413,9.16E-05,0.012010574,0,
00:02.6,0.004657745,9.73E-05,0.012010574,0,
00:02.6,0.004634857,8.58E-05,0.012010574,0,
00:02.6,0.004640579,5.15E-05,0.012022018,0,
00:02.6,0.004634857,5.72E-05,0.012022018,0,
00:02.6,0.004657745,0.000108719,0.01199913,0,
00:02.6,0.004634857,6.87E-05,0.012044907,0,
00:02.6,0.004640579,6.29E-05,0.012039185,0,
00:02.6,0.004617691,5.72E-05,0.012044907,0,
00:02.6,0.004594803,4.01E-05,0.012062073,0,
00:02.6,0.004629135,9.16E-05,0.012056351,0,
00:02.6,0.004629135,0.000102997,0.012067795,0,
00:02.6,0.004640579,7.44E-05,0.012096405,0,
00:02.6,0.004669189,9.16E-05,0.012090683,0,
00:02.6,0.004623413,9.16E-05,0.012062073,0,
00:02.6,0.004634857,0.000102997,0.012067795,0,
00:02.6,0.004571915,6.29E-05,0.012056351,0,
00:02.6,0.004634857,4.58E-05,0.012073517,0,
00:02.7,0.004680634,8.01E-05,0.012102127,0,
00:02.7,0.004640579,8.58E-05,0.012090683,0,
00:02.7,0.004686356,6.87E-05,0.012096405,0,
00:02.7,0.004674911,8.01E-05,0.012130737,0,
00:02.7,0.004663467,6.87E-05,0.012090683,0,
00:02.7,0.004629135,5.72E-05,0.012130737,0,
00:02.7,0.004657745,9.16E-05,0.012142181,0,
00:02.7,0.004652023,0.000114441,0.012147903,0,
00:02.7,0.004634857,7.44E-05,0.012130737,0,
00:02.7,0.004611969,7.44E-05,0.012102127,0,
00:02.7,0.004652023,6.29E-05,0.012142181,0,
00:02.7,0.004680634,6.29E-05,0.012159348,0,
00:02.7,0.004680634,9.73E-05,0.012153625,0,
00:02.7,0.004629135,0.000114441,0.012176514,0,
00:02.7,0.004629135,9.73E-05,0.01216507,0,
00:02.7,0.004663467,9.73E-05,0.012147903,0,
00:02.7,0.004629135,0.000108719,0.012130737,0,
00:02.7,0.004692078,0.000108719,0.012147903,0,
00:02.7,0.004709244,6.87E-05,0.012182236,0,
00:02.7,0.004657745,6.87E-05,0.01222229,0,
00:02.7,0.004640579,6.29E-05,0.012205124,0,
00:02.7,0.004657745,5.15E-05,0.012199402,0,
00:02.7,0.004640579,6.29E-05,0.01219368,0,
00:02.7,0.004680634,0.000131607,0.012210846,0,
00:02.7,0.004709244,9.16E-05,0.012216568,0,
00:02.8,0.004680634,6.29E-05,0.012199402,0,
00:02.8,0.004680634,0.000108719,0.01219368,0,
00:02.8,0.004663467,4.58E-05,0.012199402,0,
00:02.8,0.004611969,4.01E-05,0.012239456,0,
00:02.8,0.004623413,0.000114441,0.012262344,0,
00:02.8,0.00472641,0.000143051,0.012245178,0,
00:02.8,0.0046978,9.16E-05,0.012256622,0,
00:02.8,0.004669189,9.16E-05,0.012262344,0,
00:02.8,0.004686356,9.73E-05,0.012268066,0,
00:02.8,0.004674911,7.44E-05,0.012245178,0,
00:02.8,0.004611969,6.29E-05,0.012256622,0,
00:02.8,0.004663467,4.01E-05,0.012290955,0,
00:02.8,0.004669189,0.000108719,0.012268066,0,
00:02.8,0.004703522,0.000114441,0.01227951,0,
00:02.8,0.004692078,7.44E-05,0.0122509,0,
00:02.8,0.0046978,0.000102997,0.012262344,0,
00:02.8,0.004714966,0.000120163,0.012268066,0,
00:02.8,0.004692078,0.000108719,0.012331009,0,
00:02.8,0.004652023,9.73E-05,0.012342453,0,
00:02.8,0.004657745,8.01E-05,0.012348175,0,
00:02.8,0.004686356,4.58E-05,0.012325287,0,
00:02.8,0.004680634,6.87E-05,0.012302399,0,
00:02.8,0.004640579,0.000120163,0.012319565,0,
00:02.8,0.004674911,0.000137329,0.012290955,0,
00:02.8,0.004743576,0.000102997,0.012336731,0,
00:02.9,0.004692078,0.000108719,0.012348175,0,
00:02.9,0.004686356,8.01E-05,0.012348175,0,
00:02.9,0.004646301,-1.72E-05,0.012371063,0,
00:02.9,0.004589081,2.29E-05,0.012371063,0,
00:02.9,0.004709244,0.000120163,0.012371063,0,
00:02.9,0.004703522,0.000143051,0.012365341,0,
00:02.9,0.004732132,0.000143051,0.012325287,0,
00:02.9,0.004674911,0.000108719,0.012353897,0,
00:02.9,0.004674911,9.73E-05,0.012348175,0,
00:02.9,0.004692078,0.000102997,0.012353897,0,
00:02.9,0.004657745,5.72E-05,0.012376785,0,
00:02.9,0.004703522,8.01E-05,0.012359619,0,
00:02.9,0.004720688,0.000102997,0.012393951,0,
00:02.9,0.0046978,0.000102997,0.012411118,0,
00:02.9,0.00472641,0.000125885,0.012405396,0,
00:02.9,0.004674911,0.000131607,0.012405396,0,
00:02.9,0.004680634,9.16E-05,0.012422562,0,
00:02.9,0.0046978,8.01E-05,0.012393951,0,
00:02.9,0.004749298,0.000102997,0.01244545,0,
00:02.9,0.004703522,9.73E-05,0.012439728,0,
00:02.9,0.004674911,0.000114441,0.01241684,0,
00:02.9,0.004674911,0.000125885,0.012411118,0,
00:02.9,0.004680634,0.000114441,0.012411118,0,
00:02.9,0.0046978,0.000108719,0.01244545,0,
00:02.9,0.0046978,0.000108719,0.012439728,0,
00:03.0,0.004766464,9.73E-05,0.012434006,0,
00:03.0,0.004709244,6.29E-05,0.012456894,0,
00:03.0,0.004703522,6.29E-05,0.012456894,0,
00:03.0,0.004663467,9.73E-05,0.012468338,0,
00:03.0,0.004629135,0.000114441,0.012462616,0,
00:03.0,0.004760742,0.000102997,0.012496948,0,
00:03.0,0.004692078,6.29E-05,0.012479782,0,
00:03.0,0.004669189,8.58E-05,0.012491226,0,
00:03.0,0.004703522,9.16E-05,0.01250267,0,
00:03.0,0.004669189,8.58E-05,0.012491226,0,
00:03.0,0.004674911,0.000114441,0.012479782,0,
00:03.0,0.004629135,0.000114441,0.012451172,0,
00:00:03,0.004692078,0.000125885,0.012479782,0,
00:03.0,0.004737854,0.000143051,0.012456894,0,
00:03.0,0.004737854,0.000131607,0.012519836,0,
00:03.0,0.004732132,7.44E-05,0.012565613,0,
00:03.0,0.004714966,5.72E-05,0.012537003,0,
00:03.0,0.004674911,0.000108719,0.012542725,0,
00:03.0,0.0046978,0.000143051,0.012531281,0,
00:03.0,0.004737854,0.000102997,0.012531281,0,
00:03.0,0.0046978,9.16E-05,0.012537003,0,
00:03.0,0.004720688,0.000137329,0.012531281,0,
00:03.0,0.0046978,0.000125885,0.012537003,0,
00:03.0,0.004692078,0.000108719,0.012514114,0,
00:03.0,0.004686356,0.000114441,0.012496948,0,
00:03.1,0.004714966,0.000148773,0.012565613,0,
00:03.1,0.004714966,0.000108719,0.012577057,0,
00:03.1,0.004686356,9.73E-05,0.012582779,0,
00:03.1,0.004669189,8.01E-05,0.012565613,0,
00:03.1,0.004680634,9.73E-05,0.012577057,0,
00:03.1,0.004640579,0.000131607,0.012559891,0,
00:03.1,0.004652023,8.58E-05,0.012554169,0,
00:03.1,0.00472641,5.72E-05,0.012617111,0,
00:03.1,0.004663467,9.73E-05,0.012605667,0,
00:03.1,0.004686356,0.000114441,0.012582779,0,
00:03.1,0.004743576,9.73E-05,0.012565613,0,
00:03.1,0.004732132,0.000137329,0.012599945,0,
00:03.1,0.004732132,0.000148773,0.012617111,0,
00:03.1,0.004709244,0.000114441,0.012559891,0,
00:03.1,0.004714966,0.000120163,0.012611389,0,
00:03.1,0.004674911,9.16E-05,0.012657166,0,
00:03.1,0.004652023,9.73E-05,0.012622833,0,
00:03.1,0.0046978,0.000120163,0.012594223,0,
00:03.1,0.0046978,9.16E-05,0.012628555,0,
00:03.1,0.004766464,0.000108719,0.012645721,0,
00:03.1,0.004737854,0.000148773,0.012617111,0,
00:03.1,0.004720688,0.000114441,0.012594223,0,
00:03.1,0.004692078,8.01E-05,0.012639999,0,
00:03.1,0.004714966,0.000120163,0.012651443,0,
00:03.1,0.004709244,0.000102997,0.012645721,0,
00:03.2,0.004652023,0.000102997,0.012628555,0,
00:03.2,0.004709244,0.000137329,0.012639999,0,
00:03.2,0.00475502,0.000120163,0.012645721,0,
00:03.2,0.004709244,0.000160217,0.012657166,0,
00:03.2,0.004674911,0.000114441,0.012674332,0,
00:03.2,0.004714966,0.000108719,0.012674332,0,
00:03.2,0.0046978,0.000131607,0.01266861,0,
00:03.2,0.004709244,0.000125885,0.012628555,0,
00:03.2,0.00475502,0.000125885,0.012634277,0,
00:03.2,0.004663467,0.000137329,0.01266861,0,
00:03.2,0.004669189,6.87E-05,0.012714386,0,
00:03.2,0.004720688,5.72E-05,0.012714386,0,
00:03.2,0.00472641,8.01E-05,0.01269722,0,
00:03.2,0.004692078,0.000154495,0.01269722,0,
00:03.2,0.0046978,0.000154495,0.012691498,0,
00:03.2,0.004703522,0.000108719,0.012708664,0,
00:03.2,0.004692078,0.000120163,0.012720108,0,
00:03.2,0.004732132,0.000120163,0.012720108,0,
00:03.2,0.004743576,0.000108719,0.012685776,0,
00:03.2,0.004732132,0.000125885,0.012702942,0,
00:03.2,0.004680634,0.000143051,0.012720108,0,
00:03.2,0.00472641,0.000114441,0.012708664,0,
00:03.2,0.004732132,0.000108719,0.012742996,0,
00:03.2,0.004709244,0.000114441,0.012731552,0,
00:03.2,0.004657745,0.000148773,0.01272583,0,
00:03.3,0.004732132,0.000177383,0.012720108,0,
00:03.3,0.004749298,0.000154495,0.012737274,0,
00:03.3,0.004732132,0.000102997,0.012720108,0,
00:03.3,0.004714966,9.16E-05,0.01272583,0,
00:03.3,0.0046978,0.000120163,0.012760162,0,
00:03.3,0.004749298,0.000165939,0.012742996,0,
00:03.3,0.004737854,0.000171661,0.012742996,0,
00:03.3,0.004652023,0.000114441,0.012760162,0,
00:03.3,0.0046978,6.29E-05,0.012765884,0,
00:03.3,0.004720688,5.72E-05,0.012794495,0,
00:03.3,0.004714966,0.000102997,0.012760162,0,
00:03.3,0.004703522,0.000125885,0.012771606,0,
00:03.3,0.00472641,0.000143051,0.012777328,0,
00:03.3,0.004652023,0.000125885,0.012783051,0,
00:03.3,0.004611969,0.000160217,0.012777328,0,
00:03.3,0.004714966,0.000143051,0.012777328,0,
00:03.3,0.004777908,0.000154495,0.012765884,0,
00:03.3,0.004789352,0.000165939,0.012805939,0,
00:03.3,0.004760742,0.000148773,0.012788773,0,
00:03.3,0.004663467,0.000125885,0.012765884,0,
00:03.3,0.004703522,0.000120163,0.012783051,0,
00:03.3,0.004732132,0.000108719,0.012828827,0,
00:03.3,0.00472641,8.58E-05,0.012817383,0,
00:03.3,0.00472641,0.000108719,0.012794495,0,
00:03.3,0.004652023,0.000148773,0.012817383,0,
00:03.4,0.004743576,0.000165939,0.012840271,0,
00:03.4,0.004772186,0.000148773,0.012805939,0,
00:03.4,0.004692078,0.000114441,0.012817383,0,
00:03.4,0.004692078,0.000143051,0.012823105,0,
00:03.4,0.004692078,0.000137329,0.012840271,0,
00:03.4,0.004703522,0.000125885,0.012828827,0,
00:03.4,0.004749298,0.000131607,0.012828827,0,
00:03.4,0.004766464,0.000120163,0.012840271,0,
00:03.4,0.004720688,0.000137329,0.012828827,0,
00:03.4,0.004703522,0.000148773,0.012845993,0,
00:03.4,0.004692078,0.000148773,0.012863159,0,
00:03.4,0.00472641,0.000125885,0.012845993,0,
00:03.4,0.004766464,0.000102997,0.012840271,0,
00:03.4,0.004732132,0.000125885,0.012811661,0,
00:03.4,0.0046978,0.000114441,0.012834549,0,
00:03.4,0.004646301,9.73E-05,0.012857437,0,
00:03.4,0.004737854,0.000125885,0.012891769,0,
00:03.4,0.004737854,0.000177383,0.012903214,0,
00:03.4,0.004703522,0.000171661,0.012874603,0,
00:03.4,0.00478363,0.000148773,0.012845993,0,
00:03.4,0.004732132,0.000120163,0.012857437,0,
00:03.4,0.004732132,0.000131607,0.012874603,0,
00:03.4,0.004674911,0.000125885,0.012914658,0,
00:03.4,0.004686356,0.000125885,0.012891769,0,
00:03.4,0.004737854,0.000114441,0.012868881,0,
00:03.5,0.004720688,0.000120163,0.012886047,0,
00:03.5,0.00472641,0.000160217,0.012903214,0,
00:03.5,0.004720688,0.000160217,0.012931824,0,
00:03.5,0.004772186,0.000160217,0.012914658,0,
00:03.5,0.004669189,7.44E-05,0.012908936,0,
00:03.5,0.004766464,0.000114441,0.012891769,0,
00:03.5,0.004743576,0.00019455,0.012874603,0,
00:03.5,0.004760742,0.000183105,0.01292038,0,
00:03.5,0.004732132,0.000177383,0.012926102,0,
00:03.5,0.0046978,0.000177383,0.012937546,0,
00:03.5,0.004732132,0.000137329,0.012914658,0,
00:03.5,0.004772186,0.000131607,0.012903214,0,
00:03.5,0.00475502,0.000137329,0.012914658,0,
00:03.5,0.004749298,0.000154495,0.012937546,0,
00:03.5,0.004709244,0.000143051,0.012931824,0,
00:03.5,0.004657745,8.01E-05,0.012937546,0,
00:03.5,0.004617691,0.000102997,0.012931824,0,
00:03.5,0.00475502,0.000154495,0.012908936,0,
00:03.5,0.004760742,9.73E-05,0.012954712,0,
00:03.5,0.004732132,0.000114441,0.012960434,0,
00:03.5,0.004743576,0.000137329,0.0129776,0,
00:03.5,0.004749298,0.000137329,0.012960434,0,
00:03.5,0.004737854,0.000160217,0.012960434,0,
00:03.5,0.004749298,0.000148773,0.01294899,0,
00:03.5,0.0046978,0.000165939,0.012943268,0,
00:03.6,0.004743576,0.000188828,0.0129776,0,
00:03.6,0.004777908,0.000148773,0.01294899,0,
00:03.6,0.004749298,0.000148773,0.012960434,0,
00:03.6,0.004686356,0.000143051,0.012960434,0,
00:03.6,0.004766464,0.000148773,0.012954712,0,
00:03.6,0.004720688,0.000154495,0.012971878,0,
00:03.6,0.00478363,0.000177383,0.012966156,0,
00:03.6,0.00472641,0.000125885,0.0129776,0,
00:03.6,0.004737854,9.73E-05,0.012966156,0,
00:03.6,0.004737854,0.000148773,0.013011932,0,
00:03.6,0.00472641,0.000183105,0.013029099,0,
00:03.6,0.004669189,0.000148773,0.013017654,0,
00:03.6,0.00475502,0.000120163,0.012989044,0,
00:03.6,0.004806519,0.000125885,0.01300621,0,
00:03.6,0.004743576,0.000160217,0.013000488,0,
00:03.6,0.004720688,0.000200272,0.01300621,0,
00:03.6,0.004732132,0.000154495,0.013011932,0,
00:03.6,0.0046978,0.000148773,0.013029099,0,
00:03.6,0.00475502,0.000154495,0.013046265,0,
00:03.6,0.00472641,0.000120163,0.013023376,0,
00:03.6,0.004760742,0.000131607,0.013011932,0,
00:03.6,0.004766464,0.000143051,0.013000488,0,
00:03.6,0.004743576,0.000160217,0.013000488,0,
00:03.6,0.004652023,0.000120163,0.01300621,0,
00:03.6,0.004732132,9.16E-05,0.013040543,0,
00:03.7,0.00475502,0.000160217,0.013074875,0,
00:03.7,0.004732132,0.00019455,0.013051987,0,
00:03.7,0.004789352,0.00019455,0.013023376,0,
00:03.7,0.004777908,0.000171661,0.013029099,0,
00:03.7,0.00475502,0.000131607,0.013057709,0,
00:03.7,0.004714966,0.000120163,0.013080597,0,
00:03.7,0.0046978,0.000143051,0.013069153,0,
00:03.7,0.00472641,0.000183105,0.013040543,0,
00:03.7,0.004800797,0.000171661,0.013069153,0,
00:03.7,0.004737854,0.000148773,0.013074875,0,
00:03.7,0.004766464,0.000143051,0.013069153,0,
00:03.7,0.004743576,0.000137329,0.013051987,0,
00:03.7,0.004760742,0.000131607,0.013057709,0,
00:03.7,0.004772186,0.000148773,0.013040543,0,
00:03.7,0.004709244,0.000165939,0.013092041,0,
00:03.7,0.0046978,0.000183105,0.013097763,0,
00:03.7,0.00478363,0.000183105,0.013109207,0,
00:03.7,0.004766464,0.000171661,0.013092041,0,
00:03.7,0.004760742,0.000165939,0.013120651,0,
00:03.7,0.00472641,0.000148773,0.013109207,0,
00:03.7,0.004714966,0.000131607,0.013074875,0,
00:03.7,0.004766464,0.000120163,0.013103485,0,
00:03.7,0.004732132,0.000143051,0.013114929,0,
00:03.7,0.004692078,0.000143051,0.013103485,0,
00:03.7,0.004749298,0.000177383,0.013092041,0,
00:03.8,0.004749298,0.000177383,0.013103485,0,
00:03.8,0.00472641,0.000143051,0.013137817,0,
00:03.8,0.004760742,0.000137329,0.013103485,0,
00:03.8,0.004749298,0.000125885,0.013103485,0,
00:03.8,0.004709244,0.000154495,0.013143539,0,
00:03.8,0.004800797,0.000205994,0.013132095,0,
00:03.8,0.004743576,0.000200272,0.013109207,0,
00:03.8,0.004703522,0.000171661,0.013109207,0,
00:03.8,0.004737854,0.000177383,0.013137817,0,
00:03.8,0.00478363,0.000171661,0.013143539,0,
00:03.8,0.004766464,0.000177383,0.013126373,0,
00:03.8,0.004737854,0.000160217,0.013132095,0,
00:03.8,0.004732132,0.000125885,0.013160706,0,
00:03.8,0.0046978,0.000102997,0.013166428,0,
00:03.8,0.00472641,0.000114441,0.01317215,0,
00:03.8,0.004789352,0.00022316,0.013137817,0,
00:03.8,0.004732132,0.000211716,0.013160706,0,
00:03.8,0.004766464,0.000165939,0.013154984,0,
00:03.8,0.004806519,0.000171661,0.013166428,0,
00:03.8,0.004766464,0.000137329,0.013149261,0,
00:03.8,0.004709244,0.000102997,0.013183594,0,
00:03.8,0.0046978,0.000165939,0.013195038,0,
00:03.8,0.004760742,0.000205994,0.013149261,0,
00:03.8,0.004720688,0.000177383,0.013160706,0,
00:03.8,0.004732132,0.000143051,0.01317215,0,
00:03.9,0.004772186,0.000148773,0.013166428,0,
00:03.9,0.004760742,0.000177383,0.01317215,0,
00:03.9,0.004772186,0.000188828,0.013177872,0,
00:03.9,0.004766464,0.000183105,0.013189316,0,
00:03.9,0.004732132,0.000131607,0.013189316,0,
00:03.9,0.00472641,0.000114441,0.013177872,0,
00:03.9,0.004760742,0.000143051,0.013212204,0,
00:03.9,0.00472641,0.000177383,0.013195038,0,
00:03.9,0.004714966,0.000160217,0.013189316,0,
00:03.9,0.00472641,0.000171661,0.013183594,0,
00:03.9,0.004743576,0.000165939,0.013183594,0,
00:03.9,0.00478363,0.000137329,0.013195038,0,
00:03.9,0.00478363,0.000131607,0.013217926,0,
00:03.9,0.004743576,0.000165939,0.013223648,0,
00:03.9,0.00475502,0.000200272,0.013217926,0,
00:03.9,0.004737854,0.00019455,0.013223648,0,
00:03.9,0.004760742,0.000205994,0.013235092,0,
00:03.9,0.004789352,0.00019455,0.013195038,0,
00:03.9,0.004766464,0.00019455,0.013166428,0,
00:03.9,0.004709244,0.000165939,0.013223648,0,
00:03.9,0.00475502,0.000171661,0.013223648,0,
00:03.9,0.004772186,0.00022316,0.013217926,0,
00:03.9,0.004737854,0.000188828,0.01322937,0,
00:03.9,0.004772186,0.000125885,0.013286591,0,
00:03.9,0.004749298,0.000165939,0.013246536,0,
00:04.0,0.004749298,0.000171661,0.013217926,0,
00:04.0,0.004737854,0.000171661,0.013269424,0,
00:04.0,0.004772186,0.000177383,0.013246536,0,
00:04.0,0.0046978,0.000165939,0.013217926,0,
00:04.0,0.004720688,0.000154495,0.013246536,0,
00:04.0,0.004743576,0.000154495,0.013235092,0,
00:04.0,0.004743576,0.000137329,0.013240814,0,
00:04.0,0.004749298,0.000137329,0.01322937,0,
00:04.0,0.004737854,0.000165939,0.013223648,0,
00:04.0,0.004789352,0.000211716,0.013195038,0,
00:04.0,0.004777908,0.00019455,0.013246536,0,
00:04.0,0.004749298,0.00019455,0.013275146,0,
00:00:04,0.004760742,0.000171661,0.01325798,0,
00:04.0,0.004760742,0.000131607,0.013280869,0,
00:04.0,0.00478363,0.000165939,0.013280869,0,
00:04.0,0.004777908,0.000205994,0.013252258,0,
00:04.0,0.004772186,0.000234604,0.013263702,0,
00:04.0,0.004772186,0.000177383,0.013280869,0,
00:04.0,0.004743576,0.000165939,0.013263702,0,
00:04.0,0.004743576,0.000171661,0.013263702,0,
00:04.0,0.00475502,0.000171661,0.013303757,0,
00:04.0,0.004737854,0.000183105,0.013303757,0,
00:04.0,0.004772186,0.000171661,0.013263702,0,
00:04.0,0.004777908,0.000171661,0.013269424,0,
00:04.0,0.004714966,0.000183105,0.013280869,0,
00:04.1,0.004692078,0.000183105,0.013298035,0,
00:04.1,0.004766464,0.000165939,0.013269424,0,
00:04.1,0.00475502,0.000108719,0.013298035,0,
00:04.1,0.004749298,0.000102997,0.013332367,0,
00:04.1,0.004709244,0.000143051,0.013303757,0,
00:04.1,0.004789352,0.000200272,0.013298035,0,
00:04.1,0.00475502,0.00022316,0.013303757,0,
00:04.1,0.00478363,0.000217438,0.013275146,0,
00:04.1,0.004766464,0.00019455,0.013275146,0,
00:04.1,0.004766464,0.000188828,0.013360977,0,
00:04.1,0.004749298,0.000183105,0.013338089,0,
00:04.1,0.004743576,0.000165939,0.013298035,0,
00:04.1,0.004777908,0.00019455,0.013263702,0,
00:04.1,0.004800797,0.000200272,0.013280869,0,
00:04.1,0.00472641,0.000131607,0.013355255,0,
00:04.1,0.004749298,0.000177383,0.013303757,0,
00:04.1,0.004749298,0.00019455,0.013343811,0,
00:04.1,0.004714966,0.000188828,0.013326645,0,
00:04.1,0.00472641,0.000183105,0.013303757,0,
00:04.1,0.004795074,0.000188828,0.013338089,0,
00:04.1,0.004789352,0.000177383,0.013343811,0,
00:04.1,0.00475502,0.000154495,0.013338089,0,
00:04.1,0.004777908,0.000154495,0.013332367,0,
00:04.1,0.004714966,0.000188828,0.013303757,0,
00:04.1,0.00475502,0.000183105,0.013338089,0,
00:04.2,0.004772186,0.000143051,0.013343811,0,
00:04.2,0.004766464,0.000177383,0.013366699,0,
00:04.2,0.004760742,0.000200272,0.013332367,0,
00:04.2,0.004720688,0.000205994,0.013320923,0,
00:04.2,0.004772186,0.000177383,0.013355255,0,
00:04.2,0.004772186,0.000183105,0.013309479,0,
00:04.2,0.004714966,0.000165939,0.013389587,0,
00:04.2,0.004709244,0.00019455,0.013355255,0,
00:04.2,0.004680634,0.000177383,0.013349533,0,
00:04.2,0.00478363,0.00019455,0.013360977,0,
00:04.2,0.004846573,0.000228882,0.013309479,0,
00:04.2,0.004749298,0.000160217,0.013332367,0,
00:04.2,0.004777908,0.000183105,0.013389587,0,
00:04.2,0.004743576,0.000188828,0.013383865,0,
00:04.2,0.004749298,0.000165939,0.013401031,0,
00:04.2,0.004749298,0.000183105,0.013366699,0,
00:04.2,0.004703522,0.000200272,0.013360977,0,
00:04.2,0.004817963,0.000211716,0.013349533,0,
00:04.2,0.004760742,0.000200272,0.013355255,0,
00:04.2,0.004789352,0.000183105,0.013332367,0,
00:04.2,0.004760742,0.000160217,0.013349533,0,
00:04.2,0.004766464,0.000165939,0.013395309,0,
00:04.2,0.004760742,0.000217438,0.013349533,0,
00:04.2,0.004703522,0.000165939,0.013366699,0,
00:04.2,0.004737854,0.000183105,0.013406754,0,
00:04.3,0.004720688,0.000200272,0.013372421,0,
00:04.3,0.004760742,0.000211716,0.013378143,0,
00:04.3,0.004766464,0.00019455,0.013372421,0,
00:04.3,0.004737854,0.00019455,0.013378143,0,
00:04.3,0.004800797,0.000171661,0.013389587,0,
00:04.3,0.004760742,0.000131607,0.013366699,0,
00:04.3,0.00475502,0.000160217,0.013395309,0,
00:04.3,0.004766464,0.000228882,0.013389587,0,
00:04.3,0.004760742,0.000205994,0.013412476,0,
00:04.3,0.004743576,0.000200272,0.013401031,0,
00:04.3,0.004743576,0.00019455,0.013366699,0,
00:04.3,0.004743576,0.000183105,0.013401031,0,
00:04.3,0.004772186,0.000165939,0.013389587,0,
00:04.3,0.004795074,0.000183105,0.013406754,0,
00:04.3,0.004743576,0.00019455,0.01342392,0,
00:04.3,0.00472641,0.000177383,0.013418198,0,
00:04.3,0.004772186,0.000200272,0.013418198,0,
00:04.3,0.00478363,0.000211716,0.013378143,0,
00:04.3,0.004709244,0.000188828,0.013429642,0,
00:04.3,0.004800797,0.000188828,0.01342392,0,
00:04.3,0.004760742,0.000200272,0.013435364,0,
00:04.3,0.004760742,0.000177383,0.01342392,0,
00:04.3,0.004766464,0.00019455,0.013412476,0,
00:04.3,0.004749298,0.000177383,0.013418198,0,
00:04.3,0.004777908,0.000200272,0.013412476,0,
00:04.4,0.004760742,0.000200272,0.013441086,0,
00:04.4,0.004766464,0.00019455,0.013412476,0,
00:04.4,0.004766464,0.000137329,0.013418198,0,
00:04.4,0.004760742,0.000165939,0.013406754,0,
00:04.4,0.004714966,0.000177383,0.013435364,0,
00:04.4,0.00472641,0.000217438,0.013475418,0,
00:04.4,0.004766464,0.000217438,0.013441086,0,
00:04.4,0.004743576,0.000160217,0.013429642,0,
00:04.4,0.004749298,0.000171661,0.01345253,0,
00:04.4,0.004720688,0.000234604,0.013429642,0,
00:04.4,0.004749298,0.000188828,0.013441086,0,
00:04.4,0.004823685,0.000188828,0.013401031,0,
00:04.4,0.004772186,0.000160217,0.013486862,0,
00:04.4,0.004766464,0.000160217,0.013504028,0,
00:04.4,0.004737854,0.000211716,0.013475418,0,
00:04.4,0.004789352,0.00025177,0.01342392,0,
00:04.4,0.004789352,0.000228882,0.013429642,0,
00:04.4,0.00478363,0.000211716,0.01345253,0,
00:04.4,0.004760742,0.000188828,0.013441086,0,
00:04.4,0.004669189,0.000131607,0.013498306,0,
00:04.4,0.004749298,0.000183105,0.013475418,0,
00:04.4,0.004795074,0.000183105,0.01350975,0,
00:04.4,0.004737854,0.000148773,0.013492584,0,
00:04.4,0.004743576,0.000188828,0.013463974,0,
00:04.4,0.004789352,0.000234604,0.013463974,0,
00:04.5,0.00478363,0.000200272,0.013446808,0,
00:04.5,0.00478363,0.000165939,0.013435364,0,
00:04.5,0.004732132,0.00019455,0.013498306,0,
00:04.5,0.004737854,0.000200272,0.013469696,0,
00:04.5,0.004772186,0.000188828,0.013475418,0,
00:04.5,0.00478363,0.000200272,0.013486862,0,
00:04.5,0.004737854,0.00019455,0.013475418,0,
00:04.5,0.004743576,0.000200272,0.013469696,0,
00:04.5,0.004714966,0.000217438,0.01350975,0,
00:04.5,0.004760742,0.000217438,0.013504028,0,
00:04.5,0.004760742,0.000160217,0.013492584,0,
00:04.5,0.00478363,0.000177383,0.013475418,0,
00:04.5,0.004772186,0.000188828,0.013492584,0,
00:04.5,0.004737854,0.00019455,0.013515472,0,
00:04.5,0.004737854,0.000200272,0.013492584,0,
00:04.5,0.004812241,0.000211716,0.013498306,0,
00:04.5,0.004749298,0.000200272,0.013521194,0,
00:04.5,0.00478363,0.00019455,0.013515472,0,
00:04.5,0.00475502,0.000143051,0.01348114,0,
00:04.5,0.004703522,0.000137329,0.013498306,0,
00:04.5,0.004766464,0.000200272,0.013526917,0,
00:04.5,0.004777908,0.000240326,0.013538361,0,
00:04.5,0.004772186,0.000234604,0.01350975,0,
00:04.5,0.004800797,0.000246048,0.013492584,0,
00:04.5,0.004789352,0.000205994,0.01348114,0,
00:04.6,0.004732132,0.000148773,0.013549805,0,
00:04.6,0.004760742,0.000177383,0.013526917,0,
00:04.6,0.00478363,0.000200272,0.013555527,0,
00:04.6,0.004760742,0.000183105,0.013538361,0,
00:04.6,0.004714966,0.000188828,0.013538361,0,
00:04.6,0.00475502,0.000177383,0.013544083,0,
00:04.6,0.004823685,0.000165939,0.013526917,0,
00:04.6,0.00478363,0.000211716,0.013526917,0,
00:04.6,0.004720688,0.000211716,0.013549805,0,
00:04.6,0.00475502,0.000205994,0.01350975,0,
00:04.6,0.004800797,0.000205994,0.013555527,0,
00:04.6,0.004743576,0.000211716,0.013532639,0,
00:04.6,0.004795074,0.000257492,0.013498306,0,
00:04.6,0.004686356,0.000183105,0.013544083,0,
00:04.6,0.004692078,0.000177383,0.013578415,0,
00:04.6,0.00472641,0.000205994,0.013555527,0,
00:04.6,0.00475502,0.000205994,0.013515472,0,
00:04.6,0.004852295,0.000217438,0.013584137,0,
00:04.6,0.004766464,0.000205994,0.013538361,0,
00:04.6,0.004823685,0.000200272,0.013555527,0,
00:04.6,0.00478363,0.000165939,0.013572693,0,
00:04.6,0.004732132,0.000188828,0.013561249,0,
00:04.6,0.00475502,0.000246048,0.013566971,0,
00:04.6,0.00478363,0.00030899,0.013504028,0,
00:04.6,0.004806519,0.000263214,0.013561249,0,
00:04.7,0.004686356,0.000154495,0.013664246,0,
00:04.7,0.004766464,0.000177383,0.013612747,0,
00:04.7,0.004812241,0.000217438,0.013584137,0,
00:04.7,0.00475502,0.000205994,0.013601303,0,
00:04.7,0.00475502,0.000183105,0.013612747,0,
00:04.7,0.004749298,0.000171661,0.013601303,0,
00:04.7,0.004709244,0.000205994,0.013549805,0,
00:04.7,0.004789352,0.00022316,0.013572693,0,
00:04.7,0.004789352,0.000217438,0.013544083,0,
00:04.7,0.004720688,0.000257492,0.013544083,0,
00:04.7,0.004766464,0.00025177,0.013561249,0,
00:04.7,0.004760742,0.000171661,0.013612747,0,
00:04.7,0.00478363,0.000177383,0.013618469,0,
00:04.7,0.004789352,0.000217438,0.013589859,0,
00:04.7,0.004772186,0.000228882,0.013584137,0,
00:04.7,0.004766464,0.000211716,0.013566971,0,
00:04.7,0.00478363,0.000200272,0.013555527,0,
00:04.7,0.004777908,0.00019455,0.013578415,0,
00:04.7,0.00475502,0.00019455,0.013566971,0,
00:04.7,0.0046978,0.000171661,0.013555527,0,
00:04.7,0.004720688,0.000148773,0.013561249,0,
00:04.7,0.004737854,0.000154495,0.013589859,0,
00:04.7,0.004749298,0.000205994,0.013601303,0,
00:04.7,0.004795074,0.000274658,0.013566971,0,
00:04.7,0.004766464,0.000240326,0.013595581,0,
00:04.8,0.004806519,0.00019455,0.013618469,0,
00:04.8,0.004777908,0.000183105,0.013618469,0,
00:04.8,0.004800797,0.000240326,0.013595581,0,
00:04.8,0.0046978,0.000257492,0.013578415,0,
00:04.8,0.004817963,0.000217438,0.013601303,0,
00:04.8,0.004806519,0.00025177,0.013589859,0,
00:04.8,0.004743576,0.000211716,0.013624191,0,
00:04.8,0.004720688,0.000217438,0.013635635,0,
00:04.8,0.004840851,0.00022316,0.013624191,0,
00:04.8,0.004789352,0.000217438,0.013629913,0,
00:04.8,0.004772186,0.000205994,0.013618469,0,
00:04.8,0.004772186,0.00022316,0.013595581,0,
00:04.8,0.004749298,0.000257492,0.013624191,0,
00:04.8,0.00478363,0.000200272,0.013618469,0,
00:04.8,0.004732132,0.000131607,0.013624191,0,
00:04.8,0.004772186,0.000154495,0.013647079,0,
00:04.8,0.004777908,0.000165939,0.013641357,0,
00:04.8,0.004737854,0.000200272,0.013641357,0,
00:04.8,0.00475502,0.000240326,0.013618469,0,
00:04.8,0.004766464,0.00025177,0.013629913,0,
00:04.8,0.004766464,0.00022316,0.013624191,0,
00:04.8,0.004795074,0.000234604,0.013652802,0,
00:04.8,0.004772186,0.00025177,0.013647079,0,
00:04.8,0.004800797,0.00022316,0.013601303,0,
00:04.8,0.004720688,0.000148773,0.013664246,0,
00:04.9,0.004686356,0.000205994,0.013652802,0,
00:04.9,0.004800797,0.000234604,0.013612747,0,
00:04.9,0.004817963,0.000217438,0.013624191,0,
00:04.9,0.004749298,0.000188828,0.013669968,0,
00:04.9,0.00475502,0.000137329,0.013664246,0,
00:04.9,0.004749298,0.000143051,0.013669968,0,
00:04.9,0.004789352,0.000228882,0.013629913,0,
00:04.9,0.004789352,0.000246048,0.013607025,0,
00:04.9,0.004777908,0.00022316,0.013624191,0,
00:04.9,0.004806519,0.000246048,0.013612747,0,
00:04.9,0.004766464,0.000228882,0.013629913,0,
00:04.9,0.004772186,0.000211716,0.013669968,0,
00:04.9,0.004749298,0.000217438,0.013652802,0,
00:04.9,0.004743576,0.000205994,0.013624191,0,
00:04.9,0.004800797,0.000234604,0.013624191,0,
00:04.9,0.004795074,0.000240326,0.01367569,0,
00:04.9,0.004743576,0.00025177,0.013652802,0,
00:04.9,0.004732132,0.000246048,0.013629913,0,
00:04.9,0.004806519,0.000246048,0.01367569,0,
00:04.9,0.004766464,0.000205994,0.013607025,0,
00:04.9,0.00475502,0.000154495,0.01367569,0,
00:04.9,0.004714966,0.000165939,0.013687134,0,
00:04.9,0.004760742,0.000257492,0.013669968,0,
00:04.9,0.004795074,0.000286102,0.013607025,0,
00:04.9,0.004806519,0.000211716,0.013669968,0,
00:05.0,0.004777908,0.000165939,0.01367569,0,
00:05.0,0.004714966,0.000114441,0.013692856,0,
00:05.0,0.004714966,0.000160217,0.013687134,0,
00:05.0,0.00472641,0.000234604,0.013681412,0,
00:05.0,0.004812241,0.000205994,0.013692856,0,
00:05.0,0.00478363,0.000211716,0.01367569,0,
00:05.0,0.004789352,0.000240326,0.013635635,0,
00:05.0,0.004743576,0.00025177,0.013635635,0,
00:05.0,0.004777908,0.000234604,0.013681412,0,
00:05.0,0.004812241,0.000257492,0.013607025,0,
00:05.0,0.004686356,0.00022316,0.013710022,0,
00:05.0,0.004772186,0.000211716,0.013692856,0,
00:00:05,0.004777908,0.000200272,0.013698578,0,
00:05.0,0.00478363,0.000188828,0.0137043,0,
00:05.0,0.004772186,0.000211716,0.013658524,0,
00:05.0,0.004800797,0.000234604,0.013681412,0,
00:05.0,0.004817963,0.000286102,0.013721466,0,
00:05.0,0.004749298,0.000217438,0.013698578,0,
00:05.0,0.004772186,0.000217438,0.013658524,0,
00:05.0,0.004714966,0.000165939,0.013669968,0,
00:05.0,0.004749298,0.000171661,0.013698578,0,
00:05.0,0.004806519,0.00022316,0.013687134,0,
00:05.0,0.004777908,0.00025177,0.013692856,0,
00:05.0,0.004703522,0.000228882,0.013681412,0,
00:05.0,0.004692078,0.00019455,0.013681412,0,
00:05.1,0.004823685,0.000183105,0.013692856,0,
00:05.1,0.004823685,0.000211716,0.01367569,0,
00:05.1,0.004777908,0.000217438,0.013681412,0,
00:05.1,0.004760742,0.000274658,0.013641357,0,
00:05.1,0.004703522,0.000234604,0.013687134,0,
00:05.1,0.004720688,0.000188828,0.013767242,0,
00:05.1,0.004812241,0.000200272,0.01376152,0,
00:05.1,0.004812241,0.000200272,0.013698578,0,
00:05.1,0.004777908,0.000211716,0.013710022,0,
00:05.1,0.004777908,0.000217438,0.01367569,0,
00:05.1,0.00475502,0.000183105,0.013692856,0,
00:05.1,0.004737854,0.000211716,0.01373291,0,
00:05.1,0.004766464,0.000240326,0.013715744,0,
00:05.1,0.004766464,0.000246048,0.013669968,0,
00:05.1,0.004703522,0.000228882,0.013698578,0,
00:05.1,0.004823685,0.000205994,0.013698578,0,
00:05.1,0.004777908,0.000228882,0.0137043,0,
00:05.1,0.004766464,0.000228882,0.013721466,0,
00:05.1,0.00475502,0.00025177,0.01373291,0,
00:05.1,0.004760742,0.000234604,0.01373291,0,
00:05.1,0.004777908,0.000228882,0.013715744,0,
00:05.1,0.004777908,0.000257492,0.013715744,0,
00:05.1,0.004789352,0.000240326,0.013721466,0,
00:05.1,0.00475502,0.000183105,0.013681412,0,
00:05.1,0.004789352,0.000234604,0.01367569,0,
00:05.2,0.004766464,0.000263214,0.013710022,0,
00:05.2,0.004737854,0.000217438,0.013750076,0,
00:05.2,0.004772186,0.000205994,0.013738632,0,
00:05.2,0.004743576,0.000171661,0.013744354,0,
00:05.2,0.00478363,0.000183105,0.013727188,0,
00:05.2,0.00475502,0.000171661,0.0137043,0,
00:05.2,0.004749298,0.000211716,0.013767242,0,
00:05.2,0.004703522,0.000268936,0.013750076,0,
00:05.2,0.004749298,0.000228882,0.013738632,0,
00:05.2,0.004772186,0.000200272,0.013727188,0,
00:05.2,0.004777908,0.00022316,0.0137043,0,
00:05.2,0.004766464,0.000274658,0.013710022,0,
00:05.2,0.004743576,0.000246048,0.013767242,0,
00:05.2,0.004743576,0.000240326,0.013744354,0,
00:05.2,0.004749298,0.000211716,0.013778687,0,
00:05.2,0.00478363,0.00022316,0.013738632,0,
00:05.2,0.004777908,0.00022316,0.013710022,0,
00:05.2,0.004760742,0.00022316,0.013755798,0,
00:05.2,0.004743576,0.000211716,0.013744354,0,
00:05.2,0.004772186,0.000228882,0.013767242,0,
00:05.2,0.004743576,0.000228882,0.013727188,0,
00:05.2,0.004737854,0.00022316,0.01376152,0,
00:05.2,0.004732132,0.000211716,0.01373291,0,
00:05.2,0.004743576,0.00022316,0.013750076,0,
00:05.2,0.00478363,0.000240326,0.013767242,0,
00:05.3,0.004777908,0.00025177,0.013750076,0,
00:05.3,0.004766464,0.000246048,0.013744354,0,
00:05.3,0.004732132,0.00025177,0.013744354,0,
00:05.3,0.004806519,0.000257492,0.01376152,0,
00:05.3,0.004737854,0.000234604,0.01376152,0,
00:05.3,0.004686356,0.000165939,0.013790131,0,
00:05.3,0.004766464,0.000183105,0.013778687,0,
00:05.3,0.004766464,0.00022316,0.013744354,0,
00:05.3,0.004737854,0.000211716,0.013755798,0,
00:05.3,0.00475502,0.000217438,0.013744354,0,
00:05.3,0.00472641,0.000205994,0.013755798,0,
00:05.3,0.004766464,0.00022316,0.013784409,0,
00:05.3,0.004772186,0.000240326,0.013784409,0,
00:05.3,0.00472641,0.00022316,0.01376152,0,
00:05.3,0.00475502,0.00022316,0.013744354,0,
00:05.3,0.004760742,0.000263214,0.013784409,0,
00:05.3,0.004772186,0.00028038,0.013772964,0,
00:05.3,0.004686356,0.00022316,0.013807297,0,
00:05.3,0.00475502,0.000240326,0.013790131,0,
00:05.3,0.004743576,0.000234604,0.013755798,0,
00:05.3,0.004743576,0.000205994,0.013784409,0,
00:05.3,0.004766464,0.000211716,0.013801575,0,
00:05.3,0.00472641,0.000240326,0.013801575,0,
00:05.3,0.004766464,0.000234604,0.013807297,0,
00:05.3,0.004737854,0.000228882,0.013807297,0,
00:05.4,0.004766464,0.00025177,0.013784409,0,
00:05.4,0.004760742,0.000228882,0.013807297,0,
00:05.4,0.004749298,0.000200272,0.013772964,0,
00:05.4,0.004777908,0.000205994,0.013767242,0,
00:05.4,0.00475502,0.000217438,0.013835907,0,
00:05.4,0.004766464,0.000228882,0.013727188,0,
00:05.4,0.004766464,0.000240326,0.013835907,0,
00:05.4,0.004720688,0.000234604,0.013830185,0,
00:05.4,0.004663467,0.00022316,0.013801575,0,
00:05.4,0.004789352,0.000240326,0.013841629,0,
00:05.4,0.004732132,0.000188828,0.013813019,0,
00:05.4,0.004703522,0.00019455,0.013784409,0,
00:05.4,0.004720688,0.000240326,0.013801575,0,
00:05.4,0.004777908,0.000257492,0.013795853,0,
00:05.4,0.004777908,0.00025177,0.013830185,0,
00:05.4,0.004714966,0.000188828,0.013830185,0,
00:05.4,0.004646301,0.000200272,0.013801575,0,
00:05.4,0.004795074,0.000240326,0.013824463,0,
00:05.4,0.004772186,0.000257492,0.013841629,0,
00:05.4,0.00478363,0.000240326,0.013864517,0,
00:05.4,0.004772186,0.000183105,0.013847351,0,
00:05.4,0.004772186,0.000205994,0.013824463,0,
00:05.4,0.00478363,0.000257492,0.013835907,0,
00:05.4,0.004777908,0.000263214,0.013790131,0,
00:05.4,0.004760742,0.000234604,0.013853073,0,
00:05.5,0.004749298,0.000234604,0.013853073,0,
00:05.5,0.00475502,0.000268936,0.013824463,0,
00:05.5,0.004720688,0.00025177,0.013835907,0,
00:05.5,0.004766464,0.000234604,0.013858795,0,
00:05.5,0.00478363,0.000228882,0.013893127,0,
00:05.5,0.004743576,0.000177383,0.013830185,0,
00:05.5,0.004737854,0.00019455,0.013841629,0,
00:05.5,0.004749298,0.000234604,0.013858795,0,
00:05.5,0.004743576,0.000257492,0.013841629,0,
00:05.5,0.004669189,0.000234604,0.013875961,0,
00:05.5,0.004674911,0.000200272,0.013864517,0,
00:05.5,0.004766464,0.00022316,0.013893127,0,
00:05.5,0.00478363,0.000257492,0.013875961,0,
00:05.5,0.004777908,0.000240326,0.013858795,0,
00:05.5,0.00475502,0.000188828,0.013853073,0,
00:05.5,0.004760742,0.000131607,0.013847351,0,
00:05.5,0.004709244,0.00019455,0.013864517,0,
00:05.5,0.00472641,0.000257492,0.013870239,0,
00:05.5,0.004749298,0.000268936,0.013898849,0,
00:05.5,0.004772186,0.000228882,0.013864517,0,
00:05.5,0.004817963,0.000205994,0.013893127,0,
00:05.5,0.004777908,0.00025177,0.013904572,0,
00:05.5,0.004789352,0.00025177,0.013887405,0,
00:05.5,0.004772186,0.000240326,0.013853073,0,
00:05.5,0.004737854,0.000257492,0.013893127,0,
00:05.6,0.004732132,0.00025177,0.013910294,0,
00:05.6,0.004732132,0.000217438,0.013916016,0,
00:05.6,0.004749298,0.000228882,0.013904572,0,
00:05.6,0.004795074,0.000263214,0.013858795,0,
00:05.6,0.004749298,0.000217438,0.013910294,0,
00:05.6,0.004732132,0.000205994,0.013933182,0,
00:05.6,0.004743576,0.000234604,0.013933182,0,
00:05.6,0.004795074,0.000217438,0.013933182,0,
00:05.6,0.004777908,0.000171661,0.013921738,0,
00:05.6,0.004795074,0.00022316,0.013910294,0,
00:05.6,0.00478363,0.00028038,0.013916016,0,
00:05.6,0.004709244,0.000246048,0.013881683,0,
00:05.6,0.004760742,0.00022316,0.013893127,0,
00:05.6,0.004789352,0.000228882,0.013916016,0,
00:05.6,0.004743576,0.000200272,0.01392746,0,
00:05.6,0.004732132,0.000200272,0.013933182,0,
00:05.6,0.004732132,0.000211716,0.01392746,0,
00:05.6,0.004766464,0.00025177,0.01392746,0,
00:05.6,0.004714966,0.000291824,0.01392746,0,
00:05.6,0.004777908,0.00025177,0.013904572,0,
00:05.6,0.004806519,0.000228882,0.013961792,0,
00:05.6,0.004743576,0.00022316,0.013996124,0,
00:05.6,0.004760742,0.000217438,0.013973236,0,
00:05.6,0.004789352,0.000205994,0.013944626,0,
00:05.6,0.004800797,0.00022316,0.013944626,0,
00:05.7,0.004714966,0.000217438,0.01395607,0,
00:05.7,0.0046978,0.000240326,0.01398468,0,
00:05.7,0.004835129,0.000246048,0.01398468,0,
00:05.7,0.004829407,0.00025177,0.013944626,0,
00:05.7,0.004800797,0.000234604,0.013967514,0,
00:05.7,0.004795074,0.000268936,0.013978958,0,
00:05.7,0.004709244,0.000240326,0.013950348,0,
00:05.7,0.004777908,0.000211716,0.01398468,0,
00:05.7,0.004806519,0.000200272,0.013990402,0,
00:05.7,0.004760742,0.000200272,0.01398468,0,
00:05.7,0.004766464,0.000240326,0.014007568,0,
00:05.7,0.00475502,0.000240326,0.014024734,0,
00:05.7,0.004772186,0.000205994,0.013996124,0,
00:05.7,0.00478363,0.000234604,0.013961792,0,
00:05.7,0.00475502,0.000234604,0.013996124,0,
00:05.7,0.004800797,0.000228882,0.013990402,0,
00:05.7,0.00478363,0.000217438,0.014001846,0,
00:05.7,0.004772186,0.000211716,0.014019012,0,
00:05.7,0.004732132,0.00022316,0.01401329,0,
00:05.7,0.004714966,0.000200272,0.014019012,0,
00:05.7,0.004777908,0.000211716,0.013990402,0,
00:05.7,0.004795074,0.000217438,0.01401329,0,
00:05.7,0.004709244,0.000217438,0.014019012,0,
00:05.7,0.004720688,0.000246048,0.01398468,0,
00:05.7,0.004806519,0.000246048,0.013967514,0,
00:05.8,0.004852295,0.000240326,0.014036179,0,
00:05.8,0.004840851,0.00022316,0.014007568,0,
00:05.8,0.004772186,0.000200272,0.014024734,0,
00:05.8,0.004760742,0.00025177,0.014053345,0,
00:05.8,0.004789352,0.000286102,0.014059067,0,
00:05.8,0.004772186,0.000240326,0.014041901,0,
00:05.8,0.004795074,0.000205994,0.014047623,0,
00:05.8,0.004777908,0.000200272,0.014047623,0,
00:05.8,0.004772186,0.000205994,0.014036179,0,
00:05.8,0.004743576,0.000211716,0.01401329,0,
00:05.8,0.00478363,0.00025177,0.01401329,0,
00:05.8,0.00478363,0.000240326,0.014019012,0,
00:05.8,0.00478363,0.000240326,0.014001846,0,
00:05.8,0.004772186,0.000228882,0.014047623,0,
00:05.8,0.004806519,0.000171661,0.014070511,0,
00:05.8,0.004772186,0.000200272,0.014104843,0,
00:05.8,0.004777908,0.000257492,0.014093399,0,
00:05.8,0.00478363,0.000246048,0.014081955,0,
00:05.8,0.004800797,0.00025177,0.014053345,0,
00:05.8,0.004772186,0.000205994,0.014053345,0,
00:05.8,0.004777908,0.000165939,0.014070511,0,
00:05.8,0.004766464,0.000211716,0.014047623,0,
00:05.8,0.004777908,0.00022316,0.014059067,0,
00:05.8,0.00478363,0.000211716,0.014070511,0,
00:05.8,0.00475502,0.000205994,0.014070511,0,
00:05.9,0.004795074,0.000228882,0.014070511,0,
00:05.9,0.004789352,0.00025177,0.014093399,0,
00:05.9,0.004772186,0.000228882,0.014104843,0,
00:05.9,0.004777908,0.000188828,0.014087677,0,
00:05.9,0.004800797,0.000205994,0.014087677,0,
00:05.9,0.004772186,0.000240326,0.014047623,0,
00:05.9,0.004789352,0.000246048,0.014064789,0,
00:05.9,0.004795074,0.00025177,0.014087677,0,
00:05.9,0.004795074,0.000268936,0.014070511,0,
00:05.9,0.004829407,0.000246048,0.014070511,0,
00:05.9,0.004760742,0.000240326,0.014104843,0,
00:05.9,0.004777908,0.000200272,0.014070511,0,
00:05.9,0.004743576,0.00019455,0.014099121,0,
00:05.9,0.004766464,0.000234604,0.01415062,0,
00:05.9,0.004772186,0.000240326,0.014099121,0,
00:05.9,0.004795074,0.000211716,0.014099121,0,
00:05.9,0.004795074,0.000183105,0.014110565,0,
00:05.9,0.004806519,0.000171661,0.014087677,0,
00:05.9,0.004840851,0.000211716,0.014093399,0,
00:05.9,0.004795074,0.000188828,0.014093399,0,
00:05.9,0.00478363,0.000188828,0.014087677,0,
00:05.9,0.004777908,0.000263214,0.014110565,0,
00:05.9,0.004777908,0.000234604,0.014104843,0,
00:05.9,0.00478363,0.000200272,0.014122009,0,
00:05.9,0.004749298,0.00019455,0.014127731,0,
00:06.0,0.004800797,0.000217438,0.014099121,0,
00:06.0,0.004777908,0.00022316,0.014099121,0,
00:06.0,0.004806519,0.000240326,0.014093399,0,
00:06.0,0.004777908,0.000246048,0.014116287,0,
00:06.0,0.004777908,0.000240326,0.014133453,0,
00:06.0,0.004737854,0.000177383,0.014127731,0,
00:06.0,0.004795074,0.000171661,0.014139175,0,
00:06.0,0.004760742,0.000217438,0.014116287,0,
00:06.0,0.004766464,0.000246048,0.014076233,0,
00:06.0,0.004766464,0.00019455,0.014110565,0,
00:06.0,0.004829407,0.000205994,0.014116287,0,
00:06.0,0.004823685,0.00025177,0.014116287,0,
00:00:06,0.004829407,0.000268936,0.014081955,0,
00:06.0,0.004789352,0.000240326,0.014116287,0,
00:06.0,0.004800797,0.000234604,0.014122009,0,
00:06.0,0.004743576,0.00022316,0.014139175,0,
00:06.0,0.004749298,0.000211716,0.014133453,0,
00:06.0,0.004800797,0.00022316,0.014110565,0,
00:06.0,0.004806519,0.00022316,0.014110565,0,
00:06.0,0.004760742,0.000200272,0.014093399,0,
00:06.0,0.004800797,0.000205994,0.014099121,0,
00:06.0,0.004789352,0.000200272,0.014127731,0,
00:06.0,0.004766464,0.00019455,0.014133453,0,
00:06.0,0.004817963,0.000211716,0.014110565,0,
00:06.0,0.004789352,0.000234604,0.014110565,0,
00:06.1,0.004732132,0.000228882,0.014099121,0,
00:06.1,0.004795074,0.000228882,0.014104843,0,
00:06.1,0.004823685,0.000205994,0.014110565,0,
00:06.1,0.004772186,0.000183105,0.014076233,0,
00:06.1,0.004737854,0.000177383,0.014139175,0,
00:06.1,0.004709244,0.000240326,0.014139175,0,
00:06.1,0.004760742,0.000263214,0.014099121,0,
00:06.1,0.004777908,0.000257492,0.014162064,0,
00:06.1,0.004846573,0.000234604,0.014173508,0,
00:06.1,0.004800797,0.000211716,0.01415062,0,
00:06.1,0.004800797,0.000234604,0.014127731,0,
00:06.1,0.004806519,0.00022316,0.014110565,0,
00:06.1,0.004795074,0.000211716,0.014133453,0,
00:06.1,0.00478363,0.000211716,0.014144897,0,
00:06.1,0.004749298,0.000217438,0.014122009,0,
00:06.1,0.004720688,0.000217438,0.014104843,0,
00:06.1,0.004812241,0.000205994,0.014104843,0,
00:06.1,0.004777908,0.000177383,0.014144897,0,
00:06.1,0.004800797,0.000240326,0.014139175,0,
00:06.1,0.00475502,0.000205994,0.014127731,0,
00:06.1,0.004749298,0.000177383,0.014110565,0,
00:06.1,0.004743576,0.00022316,0.014104843,0,
00:06.1,0.004806519,0.000234604,0.014133453,0,
00:06.1,0.004777908,0.000228882,0.014110565,0,
00:06.1,0.004777908,0.000246048,0.014099121,0,
00:06.2,0.004789352,0.000240326,0.014099121,0,
00:06.2,0.004817963,0.000228882,0.014127731,0,
00:06.2,0.004829407,0.000240326,0.014104843,0,
00:06.2,0.004777908,0.000228882,0.014144897,0,
00:06.2,0.004789352,0.000211716,0.014133453,0,
00:06.2,0.00478363,0.00022316,0.014110565,0,
00:06.2,0.004772186,0.000246048,0.014099121,0,
00:06.2,0.004777908,0.000228882,0.014133453,0,
00:06.2,0.004766464,0.000211716,0.014127731,0,
00:06.2,0.004766464,0.000183105,0.014122009,0,
00:06.2,0.004800797,0.000200272,0.014104843,0,
00:06.2,0.004772186,0.000177383,0.014122009,0,
00:06.2,0.004777908,0.000217438,0.014104843,0,
00:06.2,0.004720688,0.000234604,0.014099121,0,
00:06.2,0.004760742,0.00022316,0.014093399,0,
00:06.2,0.004800797,0.000234604,0.014076233,0,
00:06.2,0.00475502,0.000257492,0.014099121,0,
00:06.2,0.004732132,0.000240326,0.014081955,0,
00:06.2,0.004720688,0.000205994,0.014081955,0,
00:06.2,0.004800797,0.000211716,0.014116287,0,
00:06.2,0.004812241,0.000217438,0.014116287,0,
00:06.2,0.004823685,0.000205994,0.014110565,0,
00:06.2,0.004800797,0.000205994,0.014110565,0,
00:06.2,0.004743576,0.000234604,0.014081955,0,
00:06.2,0.004749298,0.000257492,0.014076233,0,
00:06.3,0.004795074,0.000257492,0.014076233,0,
00:06.3,0.004789352,0.000177383,0.014104843,0,
00:06.3,0.004812241,0.000205994,0.014133453,0,
00:06.3,0.004772186,0.000234604,0.014110565,0,
00:06.3,0.004777908,0.000234604,0.014093399,0,
00:06.3,0.004777908,0.000228882,0.014081955,0,
00:06.3,0.004789352,0.00025177,0.014047623,0,
00:06.3,0.004760742,0.000217438,0.014053345,0,
00:06.3,0.00478363,0.000183105,0.014133453,0,
00:06.3,0.004766464,0.000200272,0.014104843,0,
00:06.3,0.004760742,0.000211716,0.014064789,0,
00:06.3,0.004766464,0.000205994,0.014087677,0,
00:06.3,0.004795074,0.000217438,0.014064789,0,
00:06.3,0.00478363,0.000240326,0.014064789,0,
00:06.3,0.004795074,0.000240326,0.014093399,0,
00:06.3,0.00475502,0.000234604,0.014081955,0,
00:06.3,0.004749298,0.000234604,0.014081955,0,
00:06.3,0.004777908,0.000205994,0.014064789,0,
00:06.3,0.004760742,0.000211716,0.014064789,0,
00:06.3,0.00472641,0.000200272,0.014064789,0,
00:06.3,0.004806519,0.000200272,0.014099121,0,
00:06.3,0.004800797,0.00025177,0.014076233,0,
00:06.3,0.004789352,0.000268936,0.014053345,0,
00:06.3,0.004772186,0.000200272,0.014059067,0,
00:06.3,0.004789352,0.00019455,0.014093399,0,
00:06.4,0.004772186,0.000188828,0.014064789,0,
00:06.4,0.00472641,0.000200272,0.014059067,0,
00:06.4,0.004795074,0.000188828,0.014059067,0,
00:06.4,0.004766464,0.00025177,0.014059067,0,
00:06.4,0.004795074,0.00028038,0.014019012,0,
00:06.4,0.004766464,0.000268936,0.014030457,0,
00:06.4,0.004789352,0.000240326,0.014070511,0,
00:06.4,0.004812241,0.000217438,0.014064789,0,
00:06.4,0.004743576,0.00022316,0.014064789,0,
00:06.4,0.004777908,0.000205994,0.014093399,0,
00:06.4,0.004800797,0.000211716,0.014059067,0,
00:06.4,0.004766464,0.000228882,0.014064789,0,
00:06.4,0.004800797,0.000234604,0.014047623,0,
00:06.4,0.004772186,0.000205994,0.014064789,0,
00:06.4,0.004760742,0.000205994,0.014030457,0,
00:06.4,0.004795074,0.000188828,0.014001846,0,
00:06.4,0.004766464,0.000177383,0.014030457,0,
00:06.4,0.004789352,0.000234604,0.014059067,0,
00:06.4,0.004789352,0.000246048,0.014064789,0,
00:06.4,0.004777908,0.000228882,0.014053345,0,
00:06.4,0.004732132,0.000234604,0.014036179,0,
00:06.4,0.004812241,0.000228882,0.014041901,0,
00:06.4,0.004777908,0.000171661,0.014036179,0,
00:06.4,0.004743576,0.000188828,0.014041901,0,
00:06.4,0.004772186,0.00025177,0.014024734,0,
00:06.5,0.00478363,0.000263214,0.014030457,0,
00:06.5,0.004789352,0.000228882,0.014036179,0,
00:06.5,0.00472641,0.000234604,0.014030457,0,
00:06.5,0.004749298,0.000234604,0.014019012,0,
00:06.5,0.004743576,0.000217438,0.014030457,0,
00:06.5,0.004800797,0.000217438,0.014047623,0,
00:06.5,0.004795074,0.00022316,0.014047623,0,
00:06.5,0.004777908,0.000205994,0.014024734,0,
00:06.5,0.004789352,0.000205994,0.014041901,0,
00:06.5,0.004766464,0.000211716,0.014024734,0,
00:06.5,0.00478363,0.00019455,0.014036179,0,
00:06.5,0.004800797,0.000188828,0.01401329,0,
00:06.5,0.004766464,0.00022316,0.01401329,0,
00:06.5,0.00472641,0.000205994,0.013990402,0,
00:06.5,0.004737854,0.000200272,0.013996124,0,
00:06.5,0.00478363,0.000205994,0.014019012,0,
00:06.5,0.004760742,0.00025177,0.014041901,0,
00:06.5,0.004800797,0.000263214,0.014001846,0,
00:06.5,0.004823685,0.000240326,0.013996124,0,
00:06.5,0.004777908,0.000228882,0.013990402,0,
00:06.5,0.004766464,0.000205994,0.013978958,0,
00:06.5,0.004789352,0.000211716,0.01398468,0,
00:06.5,0.00478363,0.000211716,0.01401329,0,
00:06.5,0.004772186,0.000217438,0.01401329,0,
00:06.5,0.00478363,0.000234604,0.013996124,0,
00:06.6,0.004766464,0.000257492,0.013978958,0,
00:06.6,0.004777908,0.000240326,0.01395607,0,
00:06.6,0.004709244,0.000217438,0.014001846,0,
00:06.6,0.004749298,0.000188828,0.014024734,0,
00:06.6,0.004777908,0.000188828,0.013990402,0,
00:06.6,0.004743576,0.000200272,0.013990402,0,
00:06.6,0.00475502,0.000217438,0.013990402,0,
00:06.6,0.004789352,0.000268936,0.013967514,0,
00:06.6,0.004800797,0.000257492,0.013967514,0,
00:06.6,0.004800797,0.000228882,0.013944626,0,
00:06.6,0.004749298,0.000200272,0.013973236,0,
00:06.6,0.004789352,0.000200272,0.013967514,0,
00:06.6,0.004777908,0.000228882,0.014001846,0,
00:06.6,0.004772186,0.000217438,0.013978958,0,
00:06.6,0.004737854,0.000171661,0.013961792,0,
00:06.6,0.004789352,0.000200272,0.013978958,0,
00:06.6,0.004795074,0.000234604,0.013961792,0,
00:06.6,0.004795074,0.000246048,0.01395607,0,
00:06.6,0.004766464,0.000246048,0.013938904,0,
00:06.6,0.004772186,0.00025177,0.013938904,0,
00:06.6,0.004789352,0.000240326,0.013967514,0,
00:06.6,0.00478363,0.000234604,0.013967514,0,
00:06.6,0.004772186,0.000217438,0.013973236,0,
00:06.6,0.004737854,0.000165939,0.013961792,0,
00:06.6,0.004669189,0.00019455,0.013973236,0,
00:06.7,0.004766464,0.000274658,0.013944626,0,
00:06.7,0.004772186,0.000257492,0.013938904,0,
00:06.7,0.004806519,0.000217438,0.013973236,0,
00:06.7,0.004772186,0.000211716,0.013973236,0,
00:06.7,0.004777908,0.00022316,0.013944626,0,
00:06.7,0.004789352,0.000200272,0.013950348,0,
00:06.7,0.004789352,0.00022316,0.013973236,0,
00:06.7,0.00478363,0.00022316,0.013944626,0,
00:06.7,0.004749298,0.000211716,0.013938904,0,
00:06.7,0.004760742,0.000205994,0.013961792,0,
00:06.7,0.004766464,0.000177383,0.013944626,0,
00:06.7,0.00478363,0.000188828,0.01392746,0,
00:06.7,0.004777908,0.000228882,0.013904572,0,
00:06.7,0.004789352,0.000240326,0.013938904,0,
00:06.7,0.004795074,0.00022316,0.013967514,0,
00:06.7,0.004743576,0.00022316,0.013933182,0,
00:06.7,0.004772186,0.000234604,0.013938904,0,
00:06.7,0.004772186,0.000234604,0.013921738,0,
00:06.7,0.004743576,0.000205994,0.013938904,0,
00:06.7,0.004777908,0.000257492,0.013921738,0,
00:06.7,0.00475502,0.00025177,0.013921738,0,
00:06.7,0.004720688,0.000205994,0.013950348,0,
00:06.7,0.004652023,0.000246048,0.013933182,0,
00:06.7,0.004817963,0.000246048,0.013916016,0,
00:06.7,0.004835129,0.000240326,0.013916016,0,
00:06.8,0.004795074,0.000240326,0.013916016,0,
00:06.8,0.004760742,0.000217438,0.013950348,0,
00:06.8,0.004766464,0.000205994,0.013938904,0,
00:06.8,0.004800797,0.00022316,0.013910294,0,
00:06.8,0.004772186,0.000228882,0.013916016,0,
00:06.8,0.004772186,0.000217438,0.013938904,0,
00:06.8,0.004766464,0.000183105,0.013916016,0,
00:06.8,0.004766464,0.000200272,0.013893127,0,
00:06.8,0.004777908,0.000246048,0.013904572,0,
00:06.8,0.004777908,0.00025177,0.013904572,0,
00:06.8,0.004737854,0.000183105,0.013933182,0,
00:06.8,0.004743576,0.000183105,0.013933182,0,
00:06.8,0.004777908,0.000205994,0.013921738,0,
00:06.8,0.004766464,0.000240326,0.013910294,0,
00:06.8,0.004789352,0.000274658,0.013881683,0,
00:06.8,0.00478363,0.00022316,0.013921738,0,
00:06.8,0.004760742,0.000240326,0.013910294,0,
00:06.8,0.004720688,0.000257492,0.013898849,0,
00:06.8,0.004743576,0.000205994,0.013904572,0,
00:06.8,0.004760742,0.000188828,0.013916016,0,
00:06.8,0.004714966,0.000200272,0.013887405,0,
00:06.8,0.004737854,0.000205994,0.013893127,0,
00:06.8,0.004760742,0.00022316,0.013893127,0,
00:06.8,0.00472641,0.000246048,0.013898849,0,
00:06.8,0.004737854,0.00025177,0.013870239,0,
00:06.9,0.004772186,0.000205994,0.013898849,0,
00:06.9,0.00478363,0.000217438,0.013881683,0,
00:06.9,0.004743576,0.000234604,0.013887405,0,
00:06.9,0.004743576,0.000211716,0.013875961,0,
00:06.9,0.00478363,0.000200272,0.013898849,0,
00:06.9,0.004766464,0.00019455,0.013875961,0,
00:06.9,0.004777908,0.000263214,0.013898849,0,
00:06.9,0.004737854,0.000268936,0.013898849,0,
00:06.9,0.004749298,0.000257492,0.013893127,0,
00:06.9,0.00472641,0.000228882,0.013898849,0,
00:06.9,0.004743576,0.000211716,0.013916016,0,
00:06.9,0.0046978,0.000188828,0.013893127,0,
00:06.9,0.004732132,0.000217438,0.013881683,0,
00:06.9,0.00472641,0.000217438,0.013887405,0,
00:06.9,0.004812241,0.000234604,0.013875961,0,
00:06.9,0.004789352,0.000200272,0.013870239,0,
00:06.9,0.004760742,0.00022316,0.013893127,0,
00:06.9,0.00475502,0.000263214,0.013864517,0,
00:06.9,0.004709244,0.000240326,0.013858795,0,
00:06.9,0.004737854,0.00025177,0.013864517,0,
00:06.9,0.00478363,0.000211716,0.013875961,0,
00:06.9,0.004737854,0.00019455,0.013893127,0,
00:06.9,0.004743576,0.000183105,0.013881683,0,
00:06.9,0.004749298,0.000234604,0.013847351,0,
00:06.9,0.004692078,0.00022316,0.013870239,0,
00:07.0,0.004674911,0.000217438,0.013870239,0,
00:07.0,0.004732132,0.000205994,0.013847351,0,
00:07.0,0.004766464,0.00022316,0.013875961,0,
00:07.0,0.004760742,0.00025177,0.013875961,0,
00:07.0,0.004680634,0.000217438,0.013841629,0,
00:07.0,0.004737854,0.000165939,0.013875961,0,
00:07.0,0.004766464,0.000205994,0.013870239,0,
00:07.0,0.00478363,0.000246048,0.013864517,0,
00:07.0,0.004749298,0.000246048,0.013847351,0,
00:07.0,0.004766464,0.00025177,0.013807297,0,
00:07.0,0.004743576,0.000240326,0.013830185,0,
00:07.0,0.004714966,0.00022316,0.013858795,0,
00:00:07,0.004749298,0.000228882,0.013853073,0,
00:07.0,0.004766464,0.000211716,0.013853073,0,
00:07.0,0.004732132,0.00019455,0.013853073,0,
00:07.0,0.004703522,0.000234604,0.013847351,0,
00:07.0,0.004749298,0.00025177,0.013813019,0,
00:07.0,0.004720688,0.000240326,0.013875961,0,
00:07.0,0.004714966,0.000234604,0.013870239,0,
00:07.0,0.004737854,0.000205994,0.013847351,0,
00:07.0,0.004737854,0.000211716,0.013853073,0,
00:07.0,0.004749298,0.000246048,0.013813019,0,
00:07.0,0.004737854,0.00022316,0.013870239,0,
00:07.0,0.004714966,0.000171661,0.013847351,0,
00:07.0,0.004720688,0.000205994,0.013853073,0,
00:07.1,0.004749298,0.000268936,0.013841629,0,
00:07.1,0.00478363,0.000268936,0.013795853,0,
00:07.1,0.004703522,0.000234604,0.013864517,0,
00:07.1,0.004709244,0.000188828,0.013875961,0,
00:07.1,0.004714966,0.000160217,0.013864517,0,
00:07.1,0.0046978,0.000234604,0.013847351,0,
00:07.1,0.004760742,0.00028038,0.013835907,0,
00:07.1,0.004760742,0.000263214,0.013818741,0,
00:07.1,0.004737854,0.00022316,0.013830185,0,
00:07.1,0.004743576,0.000205994,0.013853073,0,
00:07.1,0.004737854,0.000228882,0.013847351,0,
00:07.1,0.004732132,0.000234604,0.013864517,0,
00:07.1,0.004737854,0.000234604,0.013841629,0,
00:07.1,0.004737854,0.000211716,0.013830185,0,
00:07.1,0.004720688,0.00019455,0.013858795,0,
00:07.1,0.004743576,0.000228882,0.013835907,0,
00:07.1,0.00472641,0.000268936,0.013847351,0,
00:07.1,0.004737854,0.000257492,0.013841629,0,
00:07.1,0.0046978,0.00025177,0.013847351,0,
00:07.1,0.004732132,0.000234604,0.013870239,0,
00:07.1,0.00472641,0.000234604,0.013847351,0,
00:07.1,0.00472641,0.000200272,0.013864517,0,
00:07.1,0.004646301,0.000183105,0.013870239,0,
00:07.1,0.00475502,0.000234604,0.013853073,0,
00:07.1,0.004772186,0.000240326,0.013830185,0,
00:07.2,0.004737854,0.00022316,0.013847351,0,
00:07.2,0.004743576,0.000211716,0.013818741,0,
00:07.2,0.004743576,0.00022316,0.013813019,0,
00:07.2,0.004714966,0.000240326,0.013858795,0,
00:07.2,0.004743576,0.000240326,0.013835907,0,
00:07.2,0.00472641,0.00025177,0.013824463,0,
00:07.2,0.004743576,0.00025177,0.013841629,0,
00:07.2,0.00475502,0.000234604,0.013875961,0,
00:07.2,0.004737854,0.000240326,0.013875961,0,
00:07.2,0.004703522,0.000246048,0.013841629,0,
00:07.2,0.0046978,0.000228882,0.013835907,0,
00:07.2,0.004714966,0.00022316,0.013858795,0,
00:07.2,0.004692078,0.000228882,0.013847351,0,
00:07.2,0.004720688,0.000234604,0.013824463,0,
00:07.2,0.004760742,0.000200272,0.013864517,0,
00:07.2,0.004743576,0.000188828,0.013847351,0,
00:07.2,0.004709244,0.000228882,0.013835907,0,
00:07.2,0.004709244,0.00025177,0.013841629,0,
00:07.2,0.004766464,0.000240326,0.013801575,0,
00:07.2,0.004749298,0.000211716,0.013824463,0,
00:07.2,0.004709244,0.000177383,0.013835907,0,
00:07.2,0.00472641,0.000234604,0.013841629,0,
00:07.2,0.00472641,0.000274658,0.013853073,0,
00:07.2,0.004703522,0.000274658,0.013841629,0,
00:07.2,0.004760742,0.000274658,0.013830185,0,
00:07.3,0.004720688,0.000228882,0.013841629,0,
00:07.3,0.004720688,0.00025177,0.013853073,0,
00:07.3,0.004703522,0.000228882,0.013841629,0,
00:07.3,0.004680634,0.000211716,0.013818741,0,
00:07.3,0.004709244,0.000228882,0.013830185,0,
00:07.3,0.004709244,0.000246048,0.013830185,0,
00:07.3,0.004760742,0.000268936,0.013847351,0,
00:07.3,0.00478363,0.00025177,0.013824463,0,
00:07.3,0.004760742,0.000228882,0.013853073,0,
00:07.3,0.004714966,0.000183105,0.013864517,0,
00:07.3,0.004720688,0.000205994,0.013847351,0,
00:07.3,0.0046978,0.000205994,0.013835907,0,
00:07.3,0.004686356,0.000205994,0.013830185,0,
00:07.3,0.00472641,0.000234604,0.013807297,0,
00:07.3,0.00475502,0.000263214,0.013818741,0,
00:07.3,0.004749298,0.000268936,0.013824463,0,
00:07.3,0.004737854,0.000246048,0.013841629,0,
00:07.3,0.004709244,0.000217438,0.013853073,0,
00:07.3,0.004663467,0.00022316,0.013813019,0,
00:07.3,0.0046978,0.000234604,0.013858795,0,
00:07.3,0.004686356,0.00025177,0.013841629,0,
00:07.3,0.004737854,0.000257492,0.013801575,0,
00:07.3,0.004709244,0.000257492,0.013807297,0,
00:07.3,0.004714966,0.000240326,0.013870239,0,
00:07.3,0.004772186,0.000246048,0.013853073,0,
00:07.4,0.004743576,0.000228882,0.013824463,0,
00:07.4,0.00472641,0.000217438,0.013824463,0,
00:07.4,0.004703522,0.00022316,0.013813019,0,
00:07.4,0.004737854,0.000228882,0.013853073,0,
00:07.4,0.00472641,0.00022316,0.013813019,0,
00:07.4,0.004669189,0.000211716,0.013835907,0,
00:07.4,0.004737854,0.000234604,0.013824463,0,
00:07.4,0.0046978,0.000257492,0.013824463,0,
00:07.4,0.004737854,0.000240326,0.013864517,0,
00:07.4,0.00475502,0.000246048,0.013841629,0,
00:07.4,0.004692078,0.000268936,0.013841629,0,
00:07.4,0.0046978,0.000274658,0.013830185,0,
00:07.4,0.004749298,0.000257492,0.013830185,0,
00:07.4,0.004709244,0.000217438,0.013847351,0,
00:07.4,0.004703522,0.00022316,0.013835907,0,
00:07.4,0.0046978,0.000234604,0.013830185,0,
00:07.4,0.004714966,0.000228882,0.013858795,0,
00:07.4,0.004760742,0.00025177,0.013835907,0,
00:07.4,0.004743576,0.00025177,0.013841629,0,
00:07.4,0.004720688,0.000211716,0.013824463,0,
00:07.4,0.004720688,0.000246048,0.013841629,0,
00:07.4,0.00472641,0.00025177,0.013841629,0,
00:07.4,0.004657745,0.000200272,0.013853073,0,
00:07.4,0.0046978,0.000188828,0.013841629,0,
00:07.4,0.004686356,0.000228882,0.013813019,0,
00:07.5,0.004709244,0.000257492,0.013830185,0,
00:07.5,0.00472641,0.00025177,0.013835907,0,
00:07.5,0.004732132,0.000268936,0.013847351,0,
00:07.5,0.004709244,0.00028038,0.013847351,0,
00:07.5,0.004686356,0.00025177,0.013835907,0,
00:07.5,0.004749298,0.000205994,0.013835907,0,
00:07.5,0.004686356,0.000205994,0.013841629,0,
00:07.5,0.004743576,0.000228882,0.013853073,0,
00:07.5,0.004686356,0.00025177,0.013835907,0,
00:07.5,0.004732132,0.000268936,0.013847351,0,
00:07.5,0.004743576,0.000268936,0.013835907,0,
00:07.5,0.004680634,0.000228882,0.013847351,0,
00:07.5,0.00472641,0.00022316,0.013818741,0,
00:07.5,0.004737854,0.000234604,0.013835907,0,
00:07.5,0.004709244,0.000257492,0.013875961,0,
00:07.5,0.004703522,0.00025177,0.013870239,0,
00:07.5,0.004743576,0.000246048,0.013847351,0,
00:07.5,0.00472641,0.000228882,0.013847351,0,
00:07.5,0.004692078,0.000228882,0.013835907,0,
00:07.5,0.004623413,0.000234604,0.013835907,0,
00:07.5,0.00472641,0.000263214,0.013824463,0,
00:07.5,0.004720688,0.000263214,0.013830185,0,
00:07.5,0.004692078,0.000234604,0.013841629,0,
00:07.5,0.004680634,0.000205994,0.013824463,0,
00:07.5,0.004686356,0.000177383,0.013870239,0,
00:07.6,0.004720688,0.00025177,0.013870239,0,
00:07.6,0.0046978,0.00028038,0.013864517,0,
00:07.6,0.00475502,0.000268936,0.013847351,0,
00:07.6,0.004703522,0.00022316,0.013875961,0,
00:07.6,0.004669189,0.000228882,0.013853073,0,
00:07.6,0.004737854,0.00025177,0.013835907,0,
00:07.6,0.0046978,0.000257492,0.013847351,0,
00:07.6,0.004720688,0.000268936,0.013830185,0,
00:07.6,0.004680634,0.000240326,0.013824463,0,
00:07.6,0.004692078,0.000234604,0.013830185,0,
00:07.6,0.004737854,0.000257492,0.013864517,0,
00:07.6,0.004714966,0.00022316,0.013847351,0,
00:07.6,0.004720688,0.00025177,0.013870239,0,
00:07.6,0.004680634,0.000257492,0.013864517,0,
00:07.6,0.004669189,0.000240326,0.013841629,0,
00:07.6,0.004686356,0.000234604,0.013864517,0,
00:07.6,0.004737854,0.000228882,0.013858795,0,
00:07.6,0.00472641,0.000234604,0.013853073,0,
00:07.6,0.004674911,0.00025177,0.013841629,0,
00:07.6,0.004709244,0.000246048,0.013835907,0,
00:07.6,0.00475502,0.000240326,0.013853073,0,
00:07.6,0.00472641,0.000240326,0.013858795,0,
00:07.6,0.004720688,0.000268936,0.013853073,0,
00:07.6,0.004709244,0.000246048,0.013853073,0,
00:07.6,0.004714966,0.000228882,0.013847351,0,
00:07.7,0.004692078,0.000240326,0.013835907,0,
00:07.7,0.004674911,0.000246048,0.013870239,0,
00:07.7,0.004692078,0.000268936,0.013824463,0,
00:07.7,0.0046978,0.000268936,0.013824463,0,
00:07.7,0.004703522,0.000257492,0.013870239,0,
00:07.7,0.004720688,0.000257492,0.013841629,0,
00:07.7,0.004652023,0.000228882,0.013858795,0,
00:07.7,0.004686356,0.00022316,0.013875961,0,
00:07.7,0.004714966,0.000228882,0.013835907,0,
00:07.7,0.004657745,0.00022316,0.013818741,0,
00:07.7,0.00478363,0.00022316,0.013864517,0,
00:07.7,0.004714966,0.000263214,0.013875961,0,
00:07.7,0.00472641,0.000297546,0.013870239,0,
00:07.7,0.0046978,0.000263214,0.013858795,0,
00:07.7,0.004686356,0.000240326,0.013870239,0,
00:07.7,0.0046978,0.000246048,0.013847351,0,
00:07.7,0.004737854,0.000246048,0.013847351,0,
00:07.7,0.004652023,0.000240326,0.013841629,0,
00:07.7,0.004680634,0.00022316,0.013870239,0,
00:07.7,0.00472641,0.000217438,0.013864517,0,
00:07.7,0.004703522,0.000240326,0.013847351,0,
00:07.7,0.004709244,0.000286102,0.013853073,0,
00:07.7,0.004703522,0.000274658,0.013881683,0,
00:07.7,0.004652023,0.000246048,0.013875961,0,
00:07.7,0.004686356,0.00025177,0.013858795,0,
00:07.8,0.004720688,0.000234604,0.013864517,0,
00:07.8,0.004686356,0.000228882,0.013853073,0,
00:07.8,0.0046978,0.00028038,0.013841629,0,
00:07.8,0.004709244,0.000303268,0.013824463,0,
00:07.8,0.004743576,0.000291824,0.013813019,0,
00:07.8,0.004703522,0.000263214,0.013875961,0,
00:07.8,0.004680634,0.000246048,0.013875961,0,
00:07.8,0.0046978,0.000211716,0.013870239,0,
00:07.8,0.004714966,0.000217438,0.013898849,0,
00:07.8,0.004714966,0.000257492,0.013887405,0,
00:07.8,0.004714966,0.00028038,0.013864517,0,
00:07.8,0.004732132,0.00028038,0.013853073,0,
00:07.8,0.004652023,0.000257492,0.013870239,0,
00:07.8,0.004686356,0.00022316,0.013875961,0,
00:07.8,0.004686356,0.000200272,0.013841629,0,
00:07.8,0.004709244,0.000228882,0.013835907,0,
00:07.8,0.00472641,0.000286102,0.013858795,0,
00:07.8,0.004714966,0.000240326,0.013881683,0,
00:07.8,0.004663467,0.000228882,0.013864517,0,
00:07.8,0.004703522,0.000257492,0.013870239,0,
00:07.8,0.0046978,0.00028038,0.013864517,0,
00:07.8,0.004709244,0.000303268,0.013841629,0,
00:07.8,0.004692078,0.000268936,0.013870239,0,
00:07.8,0.004669189,0.000240326,0.013887405,0,
00:07.8,0.00472641,0.000257492,0.013830185,0,
00:07.9,0.004732132,0.000274658,0.013853073,0,
00:07.9,0.004646301,0.000240326,0.013916016,0,
00:07.9,0.004606247,0.000234604,0.013881683,0,
00:07.9,0.004720688,0.00025177,0.013875961,0,
00:07.9,0.00472641,0.000234604,0.013875961,0,
00:07.9,0.0046978,0.000257492,0.013875961,0,
00:07.9,0.004714966,0.000268936,0.013870239,0,
00:07.9,0.004732132,0.000234604,0.013870239,0,
00:07.9,0.004720688,0.000257492,0.013853073,0,
00:07.9,0.004703522,0.000286102,0.013830185,0,
00:07.9,0.004703522,0.00025177,0.013858795,0,
00:07.9,0.004692078,0.000240326,0.013881683,0,
00:07.9,0.004680634,0.00028038,0.013875961,0,
00:07.9,0.004680634,0.000286102,0.013870239,0,
00:07.9,0.004703522,0.000263214,0.013858795,0,
00:07.9,0.00472641,0.000274658,0.013870239,0,
00:07.9,0.0046978,0.000274658,0.013853073,0,
00:07.9,0.004669189,0.000257492,0.013858795,0,
00:07.9,0.004669189,0.00022316,0.013893127,0,
00:07.9,0.004692078,0.000263214,0.013875961,0,
00:07.9,0.004720688,0.000268936,0.013870239,0,
00:07.9,0.004720688,0.00022316,0.013870239,0,
00:07.9,0.004611969,0.00019455,0.013898849,0,
00:07.9,0.004674911,0.000217438,0.013881683,0,
00:07.9,0.004703522,0.000246048,0.013858795,0,
00:08.0,0.0046978,0.000286102,0.013864517,0,
00:08.0,0.004720688,0.000268936,0.013870239,0,
00:08.0,0.004703522,0.00022316,0.013853073,0,
00:08.0,0.0046978,0.000257492,0.013875961,0,
00:08.0,0.004720688,0.000314713,0.013887405,0,
00:08.0,0.004709244,0.000268936,0.013870239,0,
00:08.0,0.004703522,0.000257492,0.013870239,0,
00:08.0,0.004692078,0.000268936,0.013898849,0,
00:08.0,0.004686356,0.000286102,0.013887405,0,
00:08.0,0.004652023,0.00028038,0.013881683,0,
00:08.0,0.004686356,0.00025177,0.013893127,0,
00:08.0,0.004703522,0.000234604,0.013887405,0,
00:00:08,0.004709244,0.000263214,0.013916016,0,
00:08.0,0.004692078,0.00028038,0.013875961,0,
00:08.0,0.004709244,0.000268936,0.013881683,0,
00:08.0,0.004703522,0.000274658,0.013881683,0,
00:08.0,0.004680634,0.000263214,0.013870239,0,
00:08.0,0.004703522,0.000263214,0.013875961,0,
00:08.0,0.004674911,0.000268936,0.013893127,0,
00:08.0,0.004686356,0.000268936,0.013875961,0,
00:08.0,0.004703522,0.000240326,0.013898849,0,
00:08.0,0.004703522,0.000268936,0.013893127,0,
00:08.0,0.004686356,0.000286102,0.013898849,0,
00:08.0,0.004669189,0.000268936,0.013898849,0,
00:08.0,0.004709244,0.00022316,0.013893127,0,
00:08.1,0.004692078,0.000240326,0.013887405,0,
00:08.1,0.004646301,0.000257492,0.013875961,0,
00:08.1,0.004674911,0.000268936,0.013887405,0,
00:08.1,0.004709244,0.000274658,0.013881683,0,
00:08.1,0.004714966,0.000234604,0.013881683,0,
00:08.1,0.004703522,0.00025177,0.013881683,0,
00:08.1,0.004703522,0.00028038,0.013893127,0,
00:08.1,0.0046978,0.000257492,0.013887405,0,
00:08.1,0.004680634,0.000228882,0.013898849,0,
00:08.1,0.004640579,0.000240326,0.013933182,0,
00:08.1,0.004686356,0.000291824,0.013910294,0,
00:08.1,0.004680634,0.000320435,0.013898849,0,
00:08.1,0.004680634,0.000286102,0.013887405,0,
00:08.1,0.00472641,0.000257492,0.013870239,0,
00:08.1,0.0046978,0.000257492,0.013875961,0,
00:08.1,0.004714966,0.000268936,0.013893127,0,
00:08.1,0.0046978,0.000257492,0.013893127,0,
00:08.1,0.004634857,0.000274658,0.013904572,0,
00:08.1,0.004669189,0.000274658,0.013916016,0,
00:08.1,0.004674911,0.000274658,0.013898849,0,
00:08.1,0.004703522,0.000286102,0.013898849,0,
00:08.1,0.004714966,0.00028038,0.013898849,0,
00:08.1,0.004680634,0.00025177,0.013875961,0,
00:08.1,0.004692078,0.000228882,0.013887405,0,
00:08.1,0.004692078,0.00022316,0.013904572,0,
00:08.2,0.0046978,0.000246048,0.013887405,0,
00:08.2,0.004714966,0.000274658,0.013898849,0,
00:08.2,0.004686356,0.000268936,0.013921738,0,
00:08.2,0.004646301,0.000274658,0.013916016,0,
00:08.2,0.004652023,0.00028038,0.013887405,0,
00:08.2,0.0046978,0.000240326,0.013898849,0,
00:08.2,0.004709244,0.000234604,0.013904572,0,
00:08.2,0.004709244,0.000268936,0.013893127,0,
00:08.2,0.004686356,0.000286102,0.013881683,0,
00:08.2,0.004703522,0.000291824,0.013904572,0,
00:08.2,0.004669189,0.000303268,0.013904572,0,
00:08.2,0.004657745,0.000297546,0.013893127,0,
00:08.2,0.004629135,0.000268936,0.013910294,0,
00:08.2,0.004720688,0.000268936,0.013938904,0,
00:08.2,0.004686356,0.00022316,0.01392746,0,
00:08.2,0.004692078,0.00025177,0.013893127,0,
00:08.2,0.004674911,0.000297546,0.013910294,0,
00:08.2,0.004703522,0.000274658,0.013881683,0,
00:08.2,0.004720688,0.000268936,0.013887405,0,
00:08.2,0.0046978,0.000286102,0.013933182,0,
00:08.2,0.004657745,0.000257492,0.013921738,0,
00:08.2,0.004663467,0.000257492,0.013881683,0,
00:08.2,0.004669189,0.000268936,0.013898849,0,
00:08.2,0.004703522,0.000268936,0.01392746,0,
00:08.2,0.00472641,0.00028038,0.013910294,0,
00:08.3,0.004720688,0.000286102,0.013898849,0,
00:08.3,0.0046978,0.000228882,0.013921738,0,
00:08.3,0.004657745,0.000228882,0.013904572,0,
00:08.3,0.004674911,0.000274658,0.013910294,0,
00:08.3,0.004720688,0.000320435,0.013893127,0,
00:08.3,0.004709244,0.00028038,0.013893127,0,
00:08.3,0.004646301,0.000263214,0.013904572,0,
00:08.3,0.004634857,0.00028038,0.013898849,0,
00:08.3,0.004657745,0.000286102,0.013916016,0,
00:08.3,0.004640579,0.000286102,0.013921738,0,
00:08.3,0.004657745,0.000257492,0.013881683,0,
00:08.3,0.004686356,0.000263214,0.013870239,0,
00:08.3,0.004709244,0.000286102,0.013898849,0,
00:08.3,0.004703522,0.000286102,0.013870239,0,
00:08.3,0.004669189,0.000240326,0.013933182,0,
00:08.3,0.004703522,0.00028038,0.013921738,0,
00:08.3,0.004680634,0.000297546,0.013898849,0,
00:08.3,0.004674911,0.000291824,0.013910294,0,
00:08.3,0.004686356,0.000291824,0.013875961,0,
00:08.3,0.004669189,0.000257492,0.013904572,0,
00:08.3,0.004703522,0.00022316,0.013904572,0,
00:08.3,0.004680634,0.000211716,0.013921738,0,
00:08.3,0.004674911,0.000297546,0.013910294,0,
00:08.3,0.004686356,0.000320435,0.013910294,0,
00:08.3,0.0046978,0.000291824,0.013921738,0,
00:08.4,0.004680634,0.000291824,0.01392746,0,
00:08.4,0.004646301,0.000263214,0.013898849,0,
00:08.4,0.004680634,0.000246048,0.013887405,0,
00:08.4,0.004669189,0.000274658,0.013961792,0,
00:08.4,0.004674911,0.000291824,0.013916016,0,
00:08.4,0.004686356,0.000291824,0.013910294,0,
00:08.4,0.004657745,0.000297546,0.01392746,0,
00:08.4,0.004583359,0.000263214,0.013910294,0,
00:08.4,0.004680634,0.000234604,0.013916016,0,
00:08.4,0.004663467,0.00025177,0.013910294,0,
00:08.4,0.004692078,0.000297546,0.013904572,0,
00:08.4,0.004634857,0.00025177,0.013916016,0,
00:08.4,0.004663467,0.000240326,0.013916016,0,
00:08.4,0.004674911,0.00028038,0.013910294,0,
00:08.4,0.004709244,0.000297546,0.013921738,0,
00:08.4,0.004709244,0.000303268,0.013910294,0,
00:08.4,0.004692078,0.000286102,0.013938904,0,
00:08.4,0.004663467,0.000303268,0.013910294,0,
00:08.4,0.004629135,0.00028038,0.013921738,0,
00:08.4,0.004692078,0.000263214,0.013938904,0,
00:08.4,0.004680634,0.000286102,0.013916016,0,
00:08.4,0.004714966,0.000314713,0.013904572,0,
00:08.4,0.004674911,0.00025177,0.01392746,0,
00:08.4,0.004657745,0.00022316,0.013938904,0,
00:08.4,0.004646301,0.000263214,0.01392746,0,
00:08.5,0.004674911,0.00030899,0.013921738,0,
00:08.5,0.004652023,0.000291824,0.013921738,0,
00:08.5,0.004680634,0.000274658,0.013916016,0,
00:08.5,0.004692078,0.000268936,0.013933182,0,
00:08.5,0.004686356,0.000274658,0.013910294,0,
00:08.5,0.004686356,0.00030899,0.013898849,0,
00:08.5,0.004646301,0.000297546,0.013904572,0,
00:08.5,0.004600525,0.000274658,0.013933182,0,
00:08.5,0.004629135,0.00025177,0.013933182,0,
00:08.5,0.004709244,0.00025177,0.013933182,0,
00:08.5,0.004640579,0.000246048,0.013898849,0,
00:08.5,0.004606247,0.000263214,0.013921738,0,
00:08.5,0.0046978,0.000320435,0.013938904,0,
00:08.5,0.004680634,0.000303268,0.013921738,0,
00:08.5,0.004680634,0.000268936,0.013944626,0,
00:08.5,0.004657745,0.000246048,0.013933182,0,
00:08.5,0.004640579,0.000257492,0.013921738,0,
00:08.5,0.004674911,0.000263214,0.013944626,0,
00:08.5,0.004680634,0.000320435,0.013916016,0,
00:08.5,0.004657745,0.000360489,0.013898849,0,
00:08.5,0.004652023,0.00030899,0.013938904,0,
00:08.5,0.004669189,0.000286102,0.013916016,0,
00:08.5,0.004703522,0.00028038,0.013950348,0,
00:08.5,0.004669189,0.000274658,0.013944626,0,
00:08.5,0.004640579,0.000274658,0.013933182,0,
00:08.6,0.004646301,0.000268936,0.01395607,0,
00:08.6,0.004652023,0.000263214,0.013944626,0,
00:08.6,0.0046978,0.000286102,0.013921738,0,
00:08.6,0.004680634,0.000274658,0.013938904,0,
00:08.6,0.004663467,0.000286102,0.013938904,0,
00:08.6,0.004646301,0.000303268,0.013916016,0,
00:08.6,0.004663467,0.000291824,0.013933182,0,
00:08.6,0.004652023,0.000240326,0.013950348,0,
00:08.6,0.004646301,0.000211716,0.013938904,0,
00:08.6,0.004634857,0.000274658,0.013904572,0,
00:08.6,0.004634857,0.000337601,0.013933182,0,
00:08.6,0.004709244,0.000331879,0.01392746,0,
00:08.6,0.004720688,0.000331879,0.01392746,0,
00:08.6,0.004669189,0.000291824,0.013944626,0,
00:08.6,0.004646301,0.000274658,0.013944626,0,
00:08.6,0.004577637,0.000246048,0.013933182,0,
00:08.6,0.004669189,0.00025177,0.013944626,0,
00:08.6,0.004674911,0.000291824,0.013944626,0,
00:08.6,0.004652023,0.000286102,0.01395607,0,
00:08.6,0.004634857,0.000286102,0.01395607,0,
00:08.6,0.004680634,0.000246048,0.013921738,0,
00:08.6,0.004692078,0.00022316,0.013950348,0,
00:08.6,0.004669189,0.00028038,0.013938904,0,
00:08.6,0.004646301,0.000314713,0.013938904,0,
00:08.6,0.004606247,0.000314713,0.013938904,0,
00:08.7,0.004663467,0.00030899,0.013938904,0,
00:08.7,0.004657745,0.000291824,0.013933182,0,
00:08.7,0.004634857,0.000291824,0.013938904,0,
00:08.7,0.004692078,0.000297546,0.013950348,0,
00:08.7,0.004686356,0.000326157,0.01395607,0,
00:08.7,0.004646301,0.000303268,0.013910294,0,
00:08.7,0.004640579,0.00028038,0.013933182,0,
00:08.7,0.004652023,0.000274658,0.013961792,0,
00:08.7,0.004674911,0.000257492,0.013944626,0,
00:08.7,0.004634857,0.000257492,0.013938904,0,
00:08.7,0.004634857,0.000228882,0.013967514,0,
00:08.7,0.004634857,0.000257492,0.013916016,0,
00:08.7,0.004669189,0.000303268,0.01392746,0,
00:08.7,0.004646301,0.000320435,0.013938904,0,
00:08.7,0.004657745,0.00028038,0.01395607,0,
00:08.7,0.004640579,0.000268936,0.013961792,0,
00:08.7,0.004623413,0.00028038,0.013950348,0,
00:08.7,0.004663467,0.000291824,0.013950348,0,
00:08.7,0.004646301,0.000303268,0.013921738,0,
00:08.7,0.004657745,0.000291824,0.013944626,0,
00:08.7,0.004640579,0.000263214,0.013973236,0,
00:08.7,0.004674911,0.000286102,0.013961792,0,
00:08.7,0.004663467,0.000303268,0.013916016,0,
00:08.7,0.004646301,0.000291824,0.013950348,0,
00:08.7,0.004692078,0.000320435,0.01395607,0,
00:08.8,0.004634857,0.000274658,0.013961792,0,
00:08.8,0.004640579,0.000263214,0.013950348,0,
00:08.8,0.004623413,0.000234604,0.013944626,0,
00:08.8,0.004680634,0.000268936,0.013938904,0,
00:08.8,0.004657745,0.000314713,0.013938904,0,
00:08.8,0.004646301,0.000286102,0.01392746,0,
00:08.8,0.004663467,0.000297546,0.013938904,0,
00:08.8,0.004646301,0.000326157,0.013938904,0,
00:08.8,0.004640579,0.000303268,0.013961792,0,
00:08.8,0.004640579,0.000274658,0.013967514,0,
00:08.8,0.004686356,0.000297546,0.013944626,0,
00:08.8,0.004686356,0.00030899,0.013933182,0,
00:08.8,0.004600525,0.00025177,0.013933182,0,
00:08.8,0.004589081,0.000228882,0.013933182,0,
00:08.8,0.004629135,0.000286102,0.013944626,0,
00:08.8,0.00475502,0.000343323,0.013910294,0,
00:08.8,0.004680634,0.000326157,0.013938904,0,
00:08.8,0.004611969,0.000274658,0.013967514,0,
00:08.8,0.004646301,0.00022316,0.013973236,0,
00:08.8,0.004611969,0.000211716,0.013950348,0,
00:08.8,0.004657745,0.000263214,0.013944626,0,
00:08.8,0.0046978,0.000326157,0.013950348,0,
00:08.8,0.004652023,0.000331879,0.013944626,0,
00:08.8,0.004669189,0.000320435,0.01398468,0,
00:08.8,0.004669189,0.000303268,0.013933182,0,
00:08.9,0.004657745,0.000297546,0.01395607,0,
00:08.9,0.004640579,0.000303268,0.013978958,0,
00:08.9,0.004629135,0.000274658,0.013967514,0,
00:08.9,0.004606247,0.000257492,0.013950348,0,
00:08.9,0.004657745,0.000291824,0.013938904,0,
00:08.9,0.004657745,0.000314713,0.013921738,0,
00:08.9,0.004657745,0.000303268,0.013944626,0,
00:08.9,0.004652023,0.000268936,0.013950348,0,
00:08.9,0.004652023,0.000217438,0.013944626,0,
00:08.9,0.004594803,0.000246048,0.013944626,0,
00:08.9,0.004657745,0.000320435,0.013961792,0,
00:08.9,0.004686356,0.000297546,0.01395607,0,
00:08.9,0.004646301,0.00028038,0.013961792,0,
00:08.9,0.004583359,0.000268936,0.013944626,0,
00:08.9,0.004657745,0.000297546,0.013944626,0,
00:08.9,0.0046978,0.00030899,0.01395607,0,
00:08.9,0.004709244,0.000314713,0.013910294,0,
00:08.9,0.004652023,0.000297546,0.01398468,0,
00:08.9,0.004617691,0.000314713,0.01398468,0,
00:08.9,0.004606247,0.000326157,0.01395607,0,
00:08.9,0.004669189,0.000274658,0.013944626,0,
00:08.9,0.004652023,0.000240326,0.01395607,0,
00:08.9,0.004646301,0.000274658,0.013950348,0,
00:08.9,0.004686356,0.00030899,0.013950348,0,
00:08.9,0.004674911,0.00028038,0.013916016,0,
00:09.0,0.004646301,0.000268936,0.013944626,0,
00:09.0,0.004617691,0.000291824,0.013961792,0,
00:09.0,0.004646301,0.00030899,0.013967514,0,
00:09.0,0.004634857,0.000286102,0.013950348,0,
00:09.0,0.004634857,0.000274658,0.013950348,0,
00:09.0,0.004629135,0.000286102,0.013944626,0,
00:09.0,0.004589081,0.000297546,0.013950348,0,
00:09.0,0.0046978,0.000303268,0.013938904,0,
00:09.0,0.004663467,0.000297546,0.013944626,0,
00:09.0,0.004657745,0.00030899,0.01395607,0,
00:09.0,0.004652023,0.000263214,0.013967514,0,
00:09.0,0.004629135,0.000286102,0.01395607,0,
00:00:09,0.004663467,0.000337601,0.013950348,0,
00:09.0,0.004640579,0.000326157,0.01395607,0,
00:09.0,0.004611969,0.000297546,0.013990402,0,
00:09.0,0.004634857,0.000246048,0.013990402,0,
00:09.0,0.004663467,0.00022316,0.013961792,0,
00:09.0,0.004634857,0.000286102,0.01395607,0,
00:09.0,0.004606247,0.000314713,0.013944626,0,
00:09.0,0.004629135,0.000303268,0.013933182,0,
00:09.0,0.004652023,0.00028038,0.013916016,0,
00:09.0,0.004623413,0.000268936,0.013973236,0,
00:09.0,0.004623413,0.00028038,0.01395607,0,
00:09.0,0.004629135,0.000303268,0.01398468,0,
00:09.0,0.004640579,0.00028038,0.013973236,0,
00:09.1,0.004611969,0.000274658,0.013990402,0,
00:09.1,0.004646301,0.000303268,0.013973236,0,
00:09.1,0.004686356,0.000314713,0.013944626,0,
00:09.1,0.004663467,0.00030899,0.013973236,0,
00:09.1,0.004640579,0.00030899,0.013967514,0,
00:09.1,0.004617691,0.000303268,0.01395607,0,
00:09.1,0.004669189,0.000320435,0.013938904,0,
00:09.1,0.004640579,0.000303268,0.013961792,0,
00:09.1,0.004606247,0.000257492,0.01398468,0,
00:09.1,0.004611969,0.000234604,0.013961792,0,
00:09.1,0.004623413,0.000274658,0.01395607,0,
00:09.1,0.004634857,0.000326157,0.013990402,0,
00:09.1,0.004623413,0.000303268,0.013973236,0,
00:09.1,0.004640579,0.00028038,0.013967514,0,
00:09.1,0.004623413,0.000263214,0.013950348,0,
00:09.1,0.004566193,0.000268936,0.01395607,0,
00:09.1,0.004571915,0.000286102,0.013933182,0,
00:09.1,0.004714966,0.000326157,0.01395607,0,
00:09.1,0.004709244,0.000343323,0.013978958,0,
00:09.1,0.004629135,0.000314713,0.013916016,0,
00:09.1,0.004606247,0.000257492,0.013996124,0,
00:09.1,0.004634857,0.000263214,0.014001846,0,
00:09.1,0.004606247,0.000291824,0.013967514,0,
00:09.1,0.004611969,0.000291824,0.01395607,0,
00:09.1,0.004640579,0.000274658,0.014001846,0,
00:09.2,0.004629135,0.000286102,0.013990402,0,
00:09.2,0.004611969,0.000320435,0.013973236,0,
00:09.2,0.004680634,0.000349045,0.013961792,0,
00:09.2,0.004640579,0.00030899,0.013950348,0,
00:09.2,0.004646301,0.000297546,0.014007568,0,
00:09.2,0.004623413,0.000297546,0.013967514,0,
00:09.2,0.004594803,0.000303268,0.01392746,0,
00:09.2,0.004629135,0.000297546,0.013996124,0,
00:09.2,0.004537582,0.000320435,0.013996124,0,
00:09.2,0.004652023,0.000314713,0.013967514,0,
00:09.2,0.004663467,0.000286102,0.01398468,0,
00:09.2,0.004594803,0.000291824,0.013990402,0,
00:09.2,0.004617691,0.000291824,0.013973236,0,
00:09.2,0.004663467,0.000268936,0.013961792,0,
00:09.2,0.004646301,0.000263214,0.013944626,0,
00:09.2,0.004611969,0.000286102,0.013944626,0,
00:09.2,0.004617691,0.000314713,0.013967514,0,
00:09.2,0.004577637,0.000257492,0.01398468,0,
00:09.2,0.004611969,0.00022316,0.014001846,0,
00:09.2,0.004634857,0.000274658,0.013973236,0,
00:09.2,0.004657745,0.000349045,0.013944626,0,
00:09.2,0.004646301,0.000331879,0.013973236,0,
00:09.2,0.004600525,0.000326157,0.01398468,0,
00:09.2,0.004594803,0.000331879,0.013978958,0,
00:09.2,0.004663467,0.000331879,0.013950348,0,
00:09.3,0.004594803,0.00030899,0.013990402,0,
00:09.3,0.004611969,0.000291824,0.013996124,0,
00:09.3,0.004606247,0.000286102,0.014024734,0,
00:09.3,0.004646301,0.000291824,0.013967514,0,
00:09.3,0.004571915,0.000297546,0.013973236,0,
00:09.3,0.004657745,0.000314713,0.013973236,0,
00:09.3,0.004657745,0.000314713,0.013973236,0,
00:09.3,0.004623413,0.000314713,0.01398468,0,
00:09.3,0.004617691,0.00028038,0.01401329,0,
00:09.3,0.004629135,0.000274658,0.013990402,0,
00:09.3,0.004589081,0.000274658,0.013978958,0,
00:09.3,0.004594803,0.000211716,0.013973236,0,
00:09.3,0.004577637,0.000217438,0.013990402,0,
00:09.3,0.004577637,0.000314713,0.013961792,0,
00:09.3,0.004611969,0.000320435,0.013973236,0,
00:09.3,0.004657745,0.00030899,0.013973236,0,
00:09.3,0.004617691,0.000337601,0.013996124,0,
00:09.3,0.004629135,0.000343323,0.014019012,0,
00:09.3,0.004617691,0.000314713,0.013996124,0,
00:09.3,0.004554749,0.00028038,0.013973236,0,
00:09.3,0.004629135,0.000286102,0.01398468,0,
00:09.3,0.004646301,0.00030899,0.013973236,0,
00:09.3,0.004634857,0.000297546,0.01398468,0,
00:09.3,0.004606247,0.000291824,0.014001846,0,
00:09.3,0.004594803,0.00030899,0.013973236,0,
00:09.4,0.004571915,0.000303268,0.013996124,0,
00:09.4,0.004674911,0.000297546,0.013996124,0,
00:09.4,0.004606247,0.000291824,0.013996124,0,
00:09.4,0.004577637,0.000268936,0.013967514,0,
00:09.4,0.004560471,0.000257492,0.014001846,0,
00:09.4,0.004646301,0.000326157,0.014024734,0,
00:09.4,0.004640579,0.000343323,0.013996124,0,
00:09.4,0.004623413,0.000326157,0.013996124,0,
00:09.4,0.004611969,0.00028038,0.01401329,0,
00:09.4,0.004617691,0.000286102,0.013990402,0,
00:09.4,0.004629135,0.000291824,0.013990402,0,
00:09.4,0.004617691,0.000314713,0.013990402,0,
00:09.4,0.004583359,0.000320435,0.013990402,0,
00:09.4,0.004606247,0.000331879,0.013978958,0,
00:09.4,0.004589081,0.00030899,0.01398468,0,
00:09.4,0.004583359,0.00030899,0.013996124,0,
00:09.4,0.004646301,0.000303268,0.014001846,0,
00:09.4,0.004611969,0.000297546,0.014030457,0,
00:09.4,0.004583359,0.000274658,0.01401329,0,
00:09.4,0.004594803,0.000274658,0.014001846,0,
00:09.4,0.004560471,0.000263214,0.013996124,0,
00:09.4,0.004571915,0.000297546,0.013996124,0,
00:09.4,0.004657745,0.000320435,0.013996124,0,
00:09.4,0.004629135,0.000297546,0.01398468,0,
00:09.4,0.004611969,0.000286102,0.013996124,0,
00:09.5,0.004623413,0.00028038,0.013967514,0,
00:09.5,0.004617691,0.000274658,0.01401329,0,
00:09.5,0.004617691,0.000297546,0.014019012,0,
00:09.5,0.004623413,0.000320435,0.01401329,0,
00:09.5,0.004623413,0.000314713,0.014001846,0,
00:09.5,0.004623413,0.000291824,0.014001846,0,
00:09.5,0.004577637,0.00030899,0.01401329,0,
00:09.5,0.004606247,0.000337601,0.014007568,0,
00:09.5,0.004606247,0.000326157,0.014019012,0,
00:09.5,0.004600525,0.00030899,0.014007568,0,
00:09.5,0.004606247,0.000303268,0.013996124,0,
00:09.5,0.004634857,0.00030899,0.013990402,0,
00:09.5,0.004623413,0.000286102,0.014007568,0,
00:09.5,0.004566193,0.000297546,0.013990402,0,
00:09.5,0.004554749,0.000303268,0.01401329,0,
00:09.5,0.004606247,0.00030899,0.01401329,0,
00:09.5,0.004652023,0.000314713,0.01398468,0,
00:09.5,0.004594803,0.000314713,0.014007568,0,
00:09.5,0.004571915,0.000297546,0.014047623,0,
00:09.5,0.004646301,0.000291824,0.014007568,0,
00:09.5,0.004617691,0.000246048,0.013996124,0,
00:09.5,0.004600525,0.000240326,0.014036179,0,
00:09.5,0.004560471,0.000286102,0.014007568,0,
00:09.5,0.004571915,0.000320435,0.014036179,0,
00:09.5,0.004623413,0.000320435,0.014041901,0,
00:09.6,0.004623413,0.000297546,0.014001846,0,
00:09.6,0.004560471,0.000291824,0.014019012,0,
00:09.6,0.004611969,0.000337601,0.014036179,0,
00:09.6,0.004617691,0.00030899,0.014019012,0,
00:09.6,0.004577637,0.000286102,0.013990402,0,
00:09.6,0.004537582,0.000314713,0.014024734,0,
00:09.6,0.004617691,0.000320435,0.014064789,0,
00:09.6,0.004680634,0.000297546,0.014036179,0,
00:09.6,0.004594803,0.000320435,0.014036179,0,
00:09.6,0.004606247,0.000331879,0.014001846,0,
00:09.6,0.004571915,0.00030899,0.014019012,0,
00:09.6,0.004589081,0.000291824,0.01401329,0,
00:09.6,0.004600525,0.000274658,0.014036179,0,
00:09.6,0.004589081,0.000297546,0.014024734,0,
00:09.6,0.004606247,0.000303268,0.013990402,0,
00:09.6,0.004600525,0.000274658,0.01401329,0,
00:09.6,0.004594803,0.00028038,0.01401329,0,
00:09.6,0.004526138,0.000263214,0.014030457,0,
00:09.6,0.004600525,0.000286102,0.014047623,0,
00:09.6,0.004600525,0.00030899,0.014053345,0,
00:09.6,0.004583359,0.000337601,0.014047623,0,
00:09.6,0.004611969,0.000314713,0.014030457,0,
00:09.6,0.004577637,0.00028038,0.014036179,0,
00:09.6,0.00453186,0.000303268,0.014041901,0,
00:09.6,0.004566193,0.000343323,0.014019012,0,
00:09.7,0.004611969,0.000337601,0.013990402,0,
00:09.7,0.004623413,0.000297546,0.014036179,0,
00:09.7,0.004600525,0.000291824,0.013996124,0,
00:09.7,0.004589081,0.000286102,0.014036179,0,
00:09.7,0.004566193,0.000240326,0.014036179,0,
00:09.7,0.004606247,0.000246048,0.014036179,0,
00:09.7,0.004600525,0.000337601,0.014024734,0,
00:09.7,0.004606247,0.000331879,0.014024734,0,
00:09.7,0.004589081,0.000297546,0.014036179,0,
00:09.7,0.004594803,0.000314713,0.014024734,0,
00:09.7,0.004600525,0.000303268,0.014019012,0,
00:09.7,0.004543304,0.000291824,0.014019012,0,
00:09.7,0.004571915,0.000343323,0.014024734,0,
00:09.7,0.004623413,0.000331879,0.014030457,0,
00:09.7,0.004611969,0.00030899,0.014041901,0,
00:09.7,0.004629135,0.000331879,0.014007568,0,
00:09.7,0.004589081,0.000291824,0.014041901,0,
00:09.7,0.004560471,0.000286102,0.014047623,0,
00:09.7,0.004554749,0.000297546,0.014036179,0,
00:09.7,0.004560471,0.00030899,0.014024734,0,
00:09.7,0.004549026,0.000314713,0.014019012,0,
00:09.7,0.004611969,0.000326157,0.014019012,0,
00:09.7,0.004594803,0.000274658,0.01401329,0,
00:09.7,0.004600525,0.000286102,0.014036179,0,
00:09.7,0.004606247,0.000291824,0.014059067,0,
00:09.8,0.004537582,0.000257492,0.014070511,0,
00:09.8,0.004543304,0.00028038,0.014024734,0,
00:09.8,0.004606247,0.000343323,0.014036179,0,
00:09.8,0.004600525,0.000331879,0.014030457,0,
00:09.8,0.004594803,0.000286102,0.014024734,0,
00:09.8,0.00453186,0.000257492,0.014036179,0,
00:09.8,0.004606247,0.000331879,0.014041901,0,
00:09.8,0.004611969,0.000331879,0.014030457,0,
00:09.8,0.004600525,0.000303268,0.014036179,0,
00:09.8,0.004606247,0.000331879,0.014053345,0,
00:09.8,0.004571915,0.000331879,0.014036179,0,
00:09.8,0.004560471,0.000291824,0.014030457,0,
00:09.8,0.004571915,0.000263214,0.014047623,0,
00:09.8,0.004571915,0.000286102,0.014024734,0,
00:09.8,0.004617691,0.000337601,0.014024734,0,
00:09.8,0.004606247,0.000337601,0.014041901,0,
00:09.8,0.004594803,0.000303268,0.014030457,0,
00:09.8,0.004600525,0.000297546,0.014030457,0,
00:09.8,0.004583359,0.00030899,0.014019012,0,
00:09.8,0.004560471,0.000314713,0.014024734,0,
00:09.8,0.004566193,0.000314713,0.014036179,0,
00:09.8,0.004623413,0.000326157,0.014001846,0,
00:09.8,0.004554749,0.00028038,0.014047623,0,
00:09.8,0.00453186,0.000268936,0.014064789,0,
00:09.8,0.004537582,0.000240326,0.014053345,0,
00:09.9,0.004577637,0.000297546,0.014007568,0,
00:09.9,0.004508972,0.000320435,0.014019012,0,
00:09.9,0.004554749,0.000286102,0.014030457,0,
00:09.9,0.004566193,0.00030899,0.014041901,0,
00:09.9,0.004623413,0.000320435,0.014041901,0,
00:09.9,0.004629135,0.000320435,0.014047623,0,
00:09.9,0.004583359,0.000326157,0.014036179,0,
00:09.9,0.004594803,0.000337601,0.014036179,0,
00:09.9,0.004611969,0.000286102,0.014047623,0,
00:09.9,0.004543304,0.00028038,0.014041901,0,
00:09.9,0.004577637,0.00030899,0.014030457,0,
00:09.9,0.004589081,0.00030899,0.014030457,0,
00:09.9,0.004600525,0.000326157,0.014030457,0,
00:09.9,0.004594803,0.000326157,0.014036179,0,
00:09.9,0.004606247,0.000343323,0.014030457,0,
00:09.9,0.004589081,0.000331879,0.014001846,0,
00:09.9,0.004577637,0.00030899,0.014059067,0,
00:09.9,0.004583359,0.000303268,0.014059067,0,
00:09.9,0.004566193,0.000297546,0.014036179,0,
00:09.9,0.004589081,0.000291824,0.014041901,0,
00:09.9,0.004549026,0.000268936,0.014053345,0,
00:09.9,0.004549026,0.00028038,0.014053345,0,
00:09.9,0.004571915,0.000297546,0.014041901,0,
00:09.9,0.004583359,0.000320435,0.014024734,0,
00:09.9,0.004560471,0.000291824,0.014041901,0,
00:10.0,0.004589081,0.000263214,0.014059067,0,
00:10.0,0.004577637,0.00028038,0.014059067,0,
00:10.0,0.004589081,0.000326157,0.014030457,0,
00:10.0,0.004560471,0.000349045,0.014041901,0,
00:10.0,0.004543304,0.000337601,0.014030457,0,
00:10.0,0.004560471,0.000343323,0.014036179,0,
00:10.0,0.004589081,0.000320435,0.014019012,0,
00:10.0,0.004571915,0.000274658,0.014053345,0,
00:10.0,0.004554749,0.000286102,0.014036179,0,
00:10.0,0.004549026,0.000320435,0.014030457,0,
00:10.0,0.004583359,0.000320435,0.014019012,0,
00:10.0,0.004600525,0.000286102,0.014064789,0,
00:00:10,0.004560471,0.000286102,0.014064789,0,
00:10.0,0.004577637,0.00030899,0.014053345,0,
00:10.0,0.004589081,0.00028038,0.014059067,0,
00:10.0,0.004623413,0.00030899,0.014053345,0,
00:10.0,0.004549026,0.000349045,0.014036179,0,
00:10.0,0.004554749,0.000354767,0.014024734,0,
00:10.0,0.004594803,0.000331879,0.014019012,0,
00:10.0,0.004577637,0.000320435,0.014064789,0,
00:10.0,0.004554749,0.000337601,0.014059067,0,
00:10.0,0.004566193,0.000286102,0.014036179,0,
00:10.0,0.004554749,0.000268936,0.014030457,0,
00:10.0,0.004577637,0.000274658,0.014076233,0,
00:10.0,0.004617691,0.000326157,0.014036179,0,
00:10.1,0.004577637,0.000320435,0.014036179,0,
00:10.1,0.004543304,0.000291824,0.014064789,0,
00:10.1,0.004583359,0.000303268,0.014059067,0,
00:10.1,0.004571915,0.000320435,0.014036179,0,
00:10.1,0.004577637,0.000337601,0.014041901,0,
00:10.1,0.004583359,0.000314713,0.014036179,0,
00:10.1,0.004486084,0.000274658,0.014030457,0,
00:10.1,0.004571915,0.000228882,0.014053345,0,
00:10.1,0.004583359,0.000274658,0.014053345,0,
00:10.1,0.004583359,0.000314713,0.014059067,0,
00:10.1,0.004554749,0.000314713,0.014047623,0,
00:10.1,0.00450325,0.00030899,0.014047623,0,
00:10.1,0.004554749,0.000337601,0.014041901,0,
00:10.1,0.004577637,0.000320435,0.014036179,0,
00:10.1,0.004583359,0.000331879,0.014064789,0,
00:10.1,0.004566193,0.000337601,0.014030457,0,
00:10.1,0.004606247,0.000331879,0.014041901,0,
00:10.1,0.004571915,0.000320435,0.014041901,0,
00:10.1,0.004577637,0.00030899,0.014059067,0,
00:10.1,0.004566193,0.000297546,0.014076233,0,
00:10.1,0.004583359,0.000326157,0.014053345,0,
00:10.1,0.004571915,0.000320435,0.014030457,0,
00:10.1,0.004577637,0.000314713,0.014036179,0,
00:10.1,0.004583359,0.000331879,0.014036179,0,
00:10.1,0.004566193,0.00030899,0.014059067,0,
00:10.2,0.004520416,0.000263214,0.014041901,0,
00:10.2,0.004571915,0.000274658,0.014064789,0,
00:10.2,0.004549026,0.000320435,0.014087677,0,
00:10.2,0.004566193,0.000331879,0.014041901,0,
00:10.2,0.004583359,0.00030899,0.014030457,0,
00:10.2,0.004543304,0.000303268,0.014036179,0,
00:10.2,0.004508972,0.000291824,0.014036179,0,
00:10.2,0.004577637,0.000314713,0.014076233,0,
00:10.2,0.004549026,0.000291824,0.014059067,0,
00:10.2,0.004560471,0.000291824,0.014047623,0,
00:10.2,0.00453186,0.00030899,0.014024734,0,
00:10.2,0.004577637,0.00030899,0.014047623,0,
00:10.2,0.00453186,0.000331879,0.014041901,0,
00:10.2,0.004566193,0.000331879,0.014064789,0,
00:10.2,0.004549026,0.000320435,0.014053345,0,
00:10.2,0.004623413,0.00030899,0.014064789,0,
00:10.2,0.004583359,0.00030899,0.014064789,0,
00:10.2,0.004560471,0.000297546,0.014070511,0,
00:10.2,0.004526138,0.000274658,0.014030457,0,
00:10.2,0.00453186,0.000320435,0.014036179,0,
00:10.2,0.004543304,0.000326157,0.014059067,0,
00:10.2,0.004554749,0.000331879,0.014036179,0,
00:10.2,0.00453186,0.000326157,0.014053345,0,
00:10.2,0.004594803,0.00030899,0.014047623,0,
00:10.2,0.004560471,0.00030899,0.014064789,0,
00:10.3,0.004549026,0.000303268,0.014036179,0,
00:10.3,0.004583359,0.000314713,0.014007568,0,
00:10.3,0.004583359,0.00030899,0.014059067,0,
00:10.3,0.004560471,0.000326157,0.014041901,0,
00:10.3,0.004549026,0.00030899,0.014059067,0,
00:10.3,0.004560471,0.00030899,0.014070511,0,
00:10.3,0.004549026,0.00030899,0.014081955,0,
00:10.3,0.004549026,0.00028038,0.014059067,0,
00:10.3,0.004571915,0.000320435,0.014041901,0,
00:10.3,0.004566193,0.000326157,0.014024734,0,
00:10.3,0.004508972,0.000291824,0.014059067,0,
00:10.3,0.004497528,0.000291824,0.014070511,0,
00:10.3,0.004606247,0.00030899,0.014041901,0,
00:10.3,0.004600525,0.000337601,0.014076233,0,
00:10.3,0.004566193,0.000314713,0.014064789,0,
00:10.3,0.004526138,0.000303268,0.014047623,0,
00:10.3,0.004543304,0.000314713,0.014036179,0,
00:10.3,0.004508972,0.00028038,0.014053345,0,
00:10.3,0.004554749,0.000286102,0.014076233,0,
00:10.3,0.004554749,0.00028038,0.014059067,0,
00:10.3,0.004554749,0.00028038,0.014024734,0,
00:10.3,0.004554749,0.000320435,0.014053345,0,
00:10.3,0.004571915,0.000377655,0.014041901,0,
00:10.3,0.004589081,0.000371933,0.014059067,0,
00:10.3,0.004560471,0.000331879,0.014081955,0,
00:10.4,0.004594803,0.000326157,0.014047623,0,
00:10.4,0.004549026,0.000314713,0.014041901,0,
00:10.4,0.004457474,0.000274658,0.014047623,0,
