Elapsed_Time,EMG1,EMG2,EMG3,BioRadio Event,Unnamed: 5
00:00:00,0.003370285,-0.005899429,0.00472641,0,
00:00.0,0.003381729,-0.005882263,0.004720688,0,
00:00.0,0.003387451,-0.005876541,0.004714966,0,
00:00.0,0.003381729,-0.005870819,0.004720688,0,
00:00.0,0.003376007,-0.005882263,0.00472641,0,
00:00.0,0.003381729,-0.005882263,0.004720688,0,
00:00.0,0.003381729,-0.005882263,0.004720688,0,
00:00.0,0.003376007,-0.005893707,0.00472641,0,
00:00.0,0.003376007,-0.005893707,0.00472641,0,
00:00.0,0.003376007,-0.005893707,0.00472641,0,
00:00.0,0.003376007,-0.005882263,0.004720688,0,
00:00.0,0.003381729,-0.005870819,0.004720688,0,
00:00.0,0.003381729,-0.005870819,0.004720688,0,
00:00.1,0.003376007,-0.005870819,0.004732132,0,
00:00.1,0.003376007,-0.005882263,0.004732132,0,
00:00.1,0.003376007,-0.005882263,0.004732132,0,
00:00.1,0.003376007,-0.005876541,0.00472641,0,
00:00.1,0.003381729,-0.005865097,0.00472641,0,
00:00.1,0.003381729,-0.005870819,0.004720688,0,
00:00.1,0.003381729,-0.005870819,0.00472641,0,
00:00.1,0.003381729,-0.005876541,0.00472641,0,
00:00.1,0.003376007,-0.005876541,0.004714966,0,
00:00.1,0.003376007,-0.005870819,0.00472641,0,
00:00.1,0.003381729,-0.005853653,0.004720688,0,
00:00.1,0.003393173,-0.005847931,0.004720688,0,
00:00.1,0.003387451,-0.005859375,0.004732132,0,
00:00.1,0.003381729,-0.005865097,0.00472641,0,
00:00.1,0.003381729,-0.005859375,0.004720688,0,
00:00.1,0.003381729,-0.005859375,0.00472641,0,
00:00.1,0.003381729,-0.005865097,0.00472641,0,
00:00.1,0.003381729,-0.005865097,0.004720688,0,
00:00.1,0.003381729,-0.005865097,0.00472641,0,
00:00.1,0.003376007,-0.005865097,0.004732132,0,
00:00.1,0.003381729,-0.005859375,0.00472641,0,
00:00.1,0.003387451,-0.005847931,0.004720688,0,
00:00.1,0.003387451,-0.005842209,0.004732132,0,
00:00.1,0.003387451,-0.005847931,0.00472641,0,
00:00.1,0.003381729,-0.005859375,0.004714966,0,
00:00.2,0.003381729,-0.005865097,0.004720688,0,
00:00.2,0.003376007,-0.005859375,0.004720688,0,
00:00.2,0.003387451,-0.005836487,0.004732132,0,
00:00.2,0.003387451,-0.005842209,0.004732132,0,
00:00.2,0.003381729,-0.005847931,0.004732132,0,
00:00.2,0.003381729,-0.005836487,0.004720688,0,
00:00.2,0.003381729,-0.005842209,0.004720688,0,
00:00.2,0.003370285,-0.005847931,0.004737854,0,
00:00.2,0.003376007,-0.005853653,0.004737854,0,
00:00.2,0.003381729,-0.005842209,0.004732132,0,
00:00.2,0.003376007,-0.005847931,0.00472641,0,
00:00.2,0.003376007,-0.005853653,0.00472641,0,
00:00.2,0.003387451,-0.005830765,0.004732132,0,
00:00.2,0.003387451,-0.005825043,0.00472641,0,
00:00.2,0.003381729,-0.005830765,0.00472641,0,
00:00.2,0.003381729,-0.005830765,0.00472641,0,
00:00.2,0.003381729,-0.005830765,0.00472641,0,
00:00.2,0.003381729,-0.005825043,0.004720688,0,
00:00.2,0.003376007,-0.005830765,0.004714966,0,
00:00.2,0.003381729,-0.005825043,0.00472641,0,
00:00.2,0.003376007,-0.005830765,0.00472641,0,
00:00.2,0.003370285,-0.005847931,0.00472641,0,
00:00.2,0.003376007,-0.005842209,0.00472641,0,
00:00.2,0.003376007,-0.005825043,0.00472641,0,
00:00.2,0.003376007,-0.005819321,0.004732132,0,
00:00.3,0.003376007,-0.005830765,0.004720688,0,
00:00.3,0.003376007,-0.005825043,0.00472641,0,
00:00.3,0.003376007,-0.005819321,0.00472641,0,
00:00.3,0.003376007,-0.005819321,0.004732132,0,
00:00.3,0.003376007,-0.005825043,0.00472641,0,
00:00.3,0.003381729,-0.005807877,0.004720688,0,
00:00.3,0.003381729,-0.005807877,0.004720688,0,
00:00.3,0.003376007,-0.005825043,0.00472641,0,
00:00.3,0.003370285,-0.005842209,0.004732132,0,
00:00.3,0.003364563,-0.005847931,0.004720688,0,
00:00.3,0.003381729,-0.005802155,0.004720688,0,
00:00.3,0.003393173,-0.005784988,0.004732132,0,
00:00.3,0.003387451,-0.005796432,0.004737854,0,
00:00.3,0.003381729,-0.005802155,0.004737854,0,
00:00.3,0.003381729,-0.005807877,0.004732132,0,
00:00.3,0.003381729,-0.005819321,0.004732132,0,
00:00.3,0.003376007,-0.005819321,0.004737854,0,
00:00.3,0.003381729,-0.005819321,0.004732132,0,
00:00.3,0.003376007,-0.005825043,0.00472641,0,
00:00.3,0.003376007,-0.005830765,0.004737854,0,
00:00.3,0.003376007,-0.005807877,0.004737854,0,
00:00.3,0.003381729,-0.005796432,0.004737854,0,
00:00.3,0.003381729,-0.005796432,0.004732132,0,
00:00.3,0.003376007,-0.005813599,0.004737854,0,
00:00.3,0.003364563,-0.005830765,0.004737854,0,
00:00.4,0.003353119,-0.005847931,0.004732132,0,
00:00.4,0.003364563,-0.005819321,0.004732132,0,
00:00.4,0.003387451,-0.00579071,0.004737854,0,
00:00.4,0.003398895,-0.0057621,0.004732132,0,
00:00.4,0.003393173,-0.005779266,0.004732132,0,
00:00.4,0.003381729,-0.005796432,0.004743576,0,
00:00.4,0.003381729,-0.005802155,0.004737854,0,
00:00.4,0.003381729,-0.005796432,0.004743576,0,
00:00.4,0.003376007,-0.005796432,0.004743576,0,
00:00.4,0.003381729,-0.005796432,0.004737854,0,
00:00.4,0.003381729,-0.00579071,0.004737854,0,
00:00.4,0.003381729,-0.00579071,0.004732132,0,
00:00.4,0.003387451,-0.00579071,0.004743576,0,
00:00.4,0.003387451,-0.00579071,0.004743576,0,
00:00.4,0.003381729,-0.005784988,0.004743576,0,
00:00.4,0.003381729,-0.00579071,0.004743576,0,
00:00.4,0.003376007,-0.005802155,0.004743576,0,
00:00.4,0.003370285,-0.005813599,0.004743576,0,
00:00.4,0.003381729,-0.00579071,0.004737854,0,
00:00.4,0.003381729,-0.005773544,0.004743576,0,
00:00.4,0.003387451,-0.005767822,0.004743576,0,
00:00.4,0.003381729,-0.005767822,0.004743576,0,
00:00.4,0.003381729,-0.005773544,0.004743576,0,
00:00.4,0.003376007,-0.005773544,0.004743576,0,
00:00.4,0.003370285,-0.005784988,0.004743576,0,
00:00.5,0.003370285,-0.00579071,0.004737854,0,
00:00.5,0.003376007,-0.005767822,0.004737854,0,
00:00.5,0.003381729,-0.005750656,0.004749298,0,
00:00.5,0.003381729,-0.005767822,0.004743576,0,
00:00.5,0.003387451,-0.005773544,0.004749298,0,
00:00.5,0.003381729,-0.005773544,0.00475502,0,
00:00.5,0.003376007,-0.005767822,0.004749298,0,
00:00.5,0.003381729,-0.0057621,0.004743576,0,
00:00.5,0.003381729,-0.005767822,0.004749298,0,
00:00.5,0.003381729,-0.005767822,0.004743576,0,
00:00.5,0.003381729,-0.0057621,0.004743576,0,
00:00.5,0.003376007,-0.005773544,0.004743576,0,
00:00.5,0.003370285,-0.005784988,0.004743576,0,
00:00.5,0.003381729,-0.005767822,0.004743576,0,
00:00.5,0.003381729,-0.005756378,0.004743576,0,
00:00.5,0.003381729,-0.005756378,0.004743576,0,
00:00.5,0.003387451,-0.005744934,0.004743576,0,
00:00.5,0.003387451,-0.005750656,0.004737854,0,
00:00.5,0.003387451,-0.0057621,0.004737854,0,
00:00.5,0.003376007,-0.005773544,0.004743576,0,
00:00.5,0.003370285,-0.005779266,0.004737854,0,
00:00.5,0.003381729,-0.0057621,0.004737854,0,
00:00.5,0.003387451,-0.005744934,0.004743576,0,
00:00.5,0.003393173,-0.005739212,0.004749298,0,
00:00.5,0.003398895,-0.005727768,0.004749298,0,
00:00.6,0.003393173,-0.005744934,0.004737854,0,
00:00.6,0.003393173,-0.005750656,0.004743576,0,
00:00.6,0.003393173,-0.005744934,0.004743576,0,
00:00.6,0.003387451,-0.005750656,0.004743576,0,
00:00.6,0.003387451,-0.005739212,0.004743576,0,
00:00.6,0.003387451,-0.005744934,0.004737854,0,
00:00.6,0.003387451,-0.005739212,0.004743576,0,
00:00.6,0.003387451,-0.00573349,0.004743576,0,
00:00.6,0.003387451,-0.005739212,0.004743576,0,
00:00.6,0.003376007,-0.005750656,0.004743576,0,
00:00.6,0.003370285,-0.005756378,0.004743576,0,
00:00.6,0.003376007,-0.005750656,0.004743576,0,
00:00.6,0.003387451,-0.005744934,0.004732132,0,
00:00.6,0.003387451,-0.005739212,0.004737854,0,
00:00.6,0.003393173,-0.005722046,0.004743576,0,
00:00.6,0.003393173,-0.005739212,0.004749298,0,
00:00.6,0.003387451,-0.005756378,0.004743576,0,
00:00.6,0.003381729,-0.005750656,0.004737854,0,
00:00.6,0.003387451,-0.005739212,0.004743576,0,
00:00.6,0.003387451,-0.00573349,0.004749298,0,
00:00.6,0.003398895,-0.005727768,0.004743576,0,
00:00.6,0.003393173,-0.005727768,0.004743576,0,
00:00.6,0.003387451,-0.005727768,0.004743576,0,
00:00.6,0.003376007,-0.005750656,0.004737854,0,
00:00.6,0.003381729,-0.005756378,0.004737854,0,
00:00.7,0.003393173,-0.005727768,0.004737854,0,
00:00.7,0.003398895,-0.005716324,0.004732132,0,
00:00.7,0.003404617,-0.005716324,0.004743576,0,
00:00.7,0.003398895,-0.005716324,0.004743576,0,
00:00.7,0.003398895,-0.005722046,0.004737854,0,
00:00.7,0.003393173,-0.00573349,0.004737854,0,
00:00.7,0.003381729,-0.005739212,0.004743576,0,
00:00.7,0.003381729,-0.00573349,0.004743576,0,
00:00.7,0.003393173,-0.005722046,0.004737854,0,
00:00.7,0.003393173,-0.005710602,0.004737854,0,
00:00.7,0.003393173,-0.005716324,0.004732132,0,
00:00.7,0.003398895,-0.005722046,0.004737854,0,
00:00.7,0.003398895,-0.005710602,0.004743576,0,
00:00.7,0.003393173,-0.005710602,0.004743576,0,
00:00.7,0.003381729,-0.005727768,0.004743576,0,
00:00.7,0.003387451,-0.005727768,0.004743576,0,
00:00.7,0.003393173,-0.005722046,0.004743576,0,
00:00.7,0.003393173,-0.005716324,0.004737854,0,
00:00.7,0.003393173,-0.005716324,0.004732132,0,
00:00.7,0.003398895,-0.005710602,0.004737854,0,
00:00.7,0.003393173,-0.005716324,0.004737854,0,
00:00.7,0.003393173,-0.005710602,0.004743576,0,
00:00.7,0.003387451,-0.005716324,0.004737854,0,
00:00.7,0.003387451,-0.005716324,0.004743576,0,
00:00.7,0.003387451,-0.005716324,0.004743576,0,
00:00.8,0.003393173,-0.005699158,0.004743576,0,
00:00.8,0.003398895,-0.00570488,0.004743576,0,
00:00.8,0.003393173,-0.005699158,0.004743576,0,
00:00.8,0.003381729,-0.005710602,0.004737854,0,
00:00.8,0.003381729,-0.005722046,0.004732132,0,
00:00.8,0.003393173,-0.005710602,0.004743576,0,
00:00.8,0.003404617,-0.005687714,0.004743576,0,
00:00.8,0.003404617,-0.005687714,0.004743576,0,
00:00.8,0.003393173,-0.005693436,0.004743576,0,
00:00.8,0.003393173,-0.005699158,0.004737854,0,
00:00.8,0.003393173,-0.005699158,0.004737854,0,
00:00.8,0.003387451,-0.005687714,0.004732132,0,
00:00.8,0.003393173,-0.005687714,0.004743576,0,
00:00.8,0.003398895,-0.005681992,0.004749298,0,
00:00.8,0.003398895,-0.00567627,0.004743576,0,
00:00.8,0.003387451,-0.005687714,0.004749298,0,
00:00.8,0.003381729,-0.005710602,0.004749298,0,
00:00.8,0.003387451,-0.00570488,0.004749298,0,
00:00.8,0.003398895,-0.005681992,0.004749298,0,
00:00.8,0.003398895,-0.005670547,0.004743576,0,
00:00.8,0.003398895,-0.005670547,0.004743576,0,
00:00.8,0.003393173,-0.005681992,0.004743576,0,
00:00.8,0.003387451,-0.005681992,0.004743576,0,
00:00.8,0.003387451,-0.005687714,0.004760742,0,
00:00.8,0.003387451,-0.005687714,0.004749298,0,
00:00.9,0.003398895,-0.005670547,0.004749298,0,
00:00.9,0.003404617,-0.005664825,0.004749298,0,
00:00.9,0.003404617,-0.005664825,0.004743576,0,
00:00.9,0.003398895,-0.005659103,0.004743576,0,
00:00.9,0.003398895,-0.005664825,0.004737854,0,
00:00.9,0.003393173,-0.005670547,0.004749298,0,
00:00.9,0.003393173,-0.005670547,0.004743576,0,
00:00.9,0.003387451,-0.005681992,0.004749298,0,
00:00.9,0.003387451,-0.00567627,0.004743576,0,
00:00.9,0.003398895,-0.005664825,0.004743576,0,
00:00.9,0.003398895,-0.005659103,0.004743576,0,
00:00.9,0.003398895,-0.005659103,0.004749298,0,
00:00.9,0.003393173,-0.005664825,0.004749298,0,
00:00.9,0.003393173,-0.005670547,0.004749298,0,
00:00.9,0.003393173,-0.005670547,0.004743576,0,
00:00.9,0.003393173,-0.005664825,0.004743576,0,
00:00.9,0.003387451,-0.005664825,0.004749298,0,
00:00.9,0.003393173,-0.005659103,0.004749298,0,
00:00.9,0.003398895,-0.005653381,0.004737854,0,
00:00.9,0.003393173,-0.005664825,0.004749298,0,
00:00.9,0.003387451,-0.00567627,0.004749298,0,
00:00.9,0.003393173,-0.005664825,0.004749298,0,
00:00.9,0.003410339,-0.005630493,0.004749298,0,
00:00.9,0.003410339,-0.005619049,0.004749298,0,
00:00.9,0.003404617,-0.005636215,0.004737854,0,
00:01.0,0.003398895,-0.005647659,0.004743576,0,
00:01.0,0.003398895,-0.005647659,0.004749298,0,
00:01.0,0.003404617,-0.005636215,0.004743576,0,
00:01.0,0.003398895,-0.005641937,0.004749298,0,
00:01.0,0.003393173,-0.005647659,0.004749298,0,
00:01.0,0.003393173,-0.005647659,0.004749298,0,
00:01.0,0.003398895,-0.005647659,0.004749298,0,
00:01.0,0.003398895,-0.005636215,0.004749298,0,
00:01.0,0.003398895,-0.005636215,0.004749298,0,
00:01.0,0.003404617,-0.005630493,0.004749298,0,
00:01.0,0.003404617,-0.005636215,0.004749298,0,
00:01.0,0.003404617,-0.005636215,0.004749298,0,
00:00:01,0.003393173,-0.005641937,0.004749298,0,
00:01.0,0.003398895,-0.005636215,0.004749298,0,
00:01.0,0.003410339,-0.005619049,0.004743576,0,
00:01.0,0.003410339,-0.005607605,0.004749298,0,
00:01.0,0.003404617,-0.005630493,0.004749298,0,
00:01.0,0.003404617,-0.005624771,0.004749298,0,
00:01.0,0.003404617,-0.005619049,0.004743576,0,
00:01.0,0.003393173,-0.005630493,0.004749298,0,
00:01.0,0.003387451,-0.005641937,0.004743576,0,
00:01.0,0.003410339,-0.005619049,0.004749298,0,
00:01.0,0.003410339,-0.005619049,0.00475502,0,
00:01.0,0.003398895,-0.005624771,0.004749298,0,
00:01.0,0.003404617,-0.005619049,0.004749298,0,
00:01.1,0.003404617,-0.005619049,0.00475502,0,
00:01.1,0.003410339,-0.005607605,0.004749298,0,
00:01.1,0.003404617,-0.005613327,0.004749298,0,
00:01.1,0.003398895,-0.005624771,0.004743576,0,
00:01.1,0.003404617,-0.005619049,0.004749298,0,
00:01.1,0.003410339,-0.005613327,0.00475502,0,
00:01.1,0.003404617,-0.005613327,0.004749298,0,
00:01.1,0.003404617,-0.005613327,0.004749298,0,
00:01.1,0.003404617,-0.005613327,0.004749298,0,
00:01.1,0.003404617,-0.005613327,0.004749298,0,
00:01.1,0.003404617,-0.005613327,0.00475502,0,
00:01.1,0.003393173,-0.005630493,0.00475502,0,
00:01.1,0.003393173,-0.005624771,0.00475502,0,
00:01.1,0.003410339,-0.005607605,0.004749298,0,
00:01.1,0.003421783,-0.005584717,0.004749298,0,
00:01.1,0.003416061,-0.005596161,0.004749298,0,
00:01.1,0.003404617,-0.005607605,0.004743576,0,
00:01.1,0.003398895,-0.005619049,0.00475502,0,
00:01.1,0.003393173,-0.005624771,0.004749298,0,
00:01.1,0.003398895,-0.005624771,0.004743576,0,
00:01.1,0.003410339,-0.005601883,0.00475502,0,
00:01.1,0.003421783,-0.005578995,0.004749298,0,
00:01.1,0.003416061,-0.005590439,0.004760742,0,
00:01.1,0.003404617,-0.005590439,0.004766464,0,
00:01.1,0.003398895,-0.005596161,0.004760742,0,
00:01.2,0.003398895,-0.005601883,0.00475502,0,
00:01.2,0.003398895,-0.005613327,0.00475502,0,
00:01.2,0.003393173,-0.005607605,0.00475502,0,
00:01.2,0.003398895,-0.005607605,0.00475502,0,
00:01.2,0.003404617,-0.005590439,0.004760742,0,
00:01.2,0.003410339,-0.005584717,0.004760742,0,
00:01.2,0.003410339,-0.005590439,0.004760742,0,
00:01.2,0.003404617,-0.005590439,0.00475502,0,
00:01.2,0.003398895,-0.005601883,0.00475502,0,
00:01.2,0.003393173,-0.005613327,0.00475502,0,
00:01.2,0.003398895,-0.005607605,0.004760742,0,
00:01.2,0.003416061,-0.005584717,0.004760742,0,
00:01.2,0.003421783,-0.005578995,0.004760742,0,
00:01.2,0.003410339,-0.005584717,0.004760742,0,
00:01.2,0.003410339,-0.005584717,0.004749298,0,
00:01.2,0.003404617,-0.005596161,0.004749298,0,
00:01.2,0.003398895,-0.005596161,0.00475502,0,
00:01.2,0.003410339,-0.005578995,0.004760742,0,
00:01.2,0.003416061,-0.005567551,0.004766464,0,
00:01.2,0.003416061,-0.005578995,0.004760742,0,
00:01.2,0.003416061,-0.005584717,0.00475502,0,
00:01.2,0.003410339,-0.005596161,0.00475502,0,
00:01.2,0.003404617,-0.005596161,0.004760742,0,
00:01.2,0.003410339,-0.005590439,0.004766464,0,
00:01.2,0.003416061,-0.005578995,0.004760742,0,
00:01.3,0.003416061,-0.005561829,0.004760742,0,
00:01.3,0.003427505,-0.005550385,0.004760742,0,
00:01.3,0.003421783,-0.005556107,0.004760742,0,
00:01.3,0.003416061,-0.005567551,0.004760742,0,
00:01.3,0.003410339,-0.005573273,0.00475502,0,
00:01.3,0.003410339,-0.005578995,0.004760742,0,
00:01.3,0.003410339,-0.005573273,0.004760742,0,
00:01.3,0.003410339,-0.005578995,0.004760742,0,
00:01.3,0.003410339,-0.005573273,0.004760742,0,
00:01.3,0.003416061,-0.005573273,0.004766464,0,
00:01.3,0.003421783,-0.005561829,0.004760742,0,
00:01.3,0.003421783,-0.005550385,0.00475502,0,
00:01.3,0.003421783,-0.005556107,0.004760742,0,
00:01.3,0.003416061,-0.005567551,0.004772186,0,
00:01.3,0.003410339,-0.005573273,0.004760742,0,
00:01.3,0.003416061,-0.005561829,0.004766464,0,
00:01.3,0.003427505,-0.005544662,0.004766464,0,
00:01.3,0.003427505,-0.005550385,0.004760742,0,
00:01.3,0.003427505,-0.005550385,0.004760742,0,
00:01.3,0.003427505,-0.005556107,0.004766464,0,
00:01.3,0.003427505,-0.005550385,0.004760742,0,
00:01.3,0.003427505,-0.005544662,0.004760742,0,
00:01.3,0.003421783,-0.005550385,0.004760742,0,
00:01.3,0.003421783,-0.005561829,0.004760742,0,
00:01.3,0.003421783,-0.005556107,0.004760742,0,
00:01.4,0.003427505,-0.005544662,0.004766464,0,
00:01.4,0.003421783,-0.005550385,0.004760742,0,
00:01.4,0.003421783,-0.005544662,0.004760742,0,
00:01.4,0.003421783,-0.005544662,0.004766464,0,
00:01.4,0.003421783,-0.005550385,0.004766464,0,
00:01.4,0.003421783,-0.005550385,0.004760742,0,
00:01.4,0.003427505,-0.005544662,0.004760742,0,
00:01.4,0.003433228,-0.005527496,0.004760742,0,
00:01.4,0.003427505,-0.00553894,0.00475502,0,
00:01.4,0.003421783,-0.005544662,0.004766464,0,
00:01.4,0.003421783,-0.005544662,0.004766464,0,
00:01.4,0.003427505,-0.00553894,0.004766464,0,
00:01.4,0.00343895,-0.005533218,0.004766464,0,
00:01.4,0.003433228,-0.005533218,0.004766464,0,
00:01.4,0.003427505,-0.005533218,0.004760742,0,
00:01.4,0.003421783,-0.005550385,0.004760742,0,
00:01.4,0.003433228,-0.005544662,0.004766464,0,
00:01.4,0.00343895,-0.005521774,0.004760742,0,
00:01.4,0.00343895,-0.005521774,0.00475502,0,
00:01.4,0.003433228,-0.005527496,0.004760742,0,
00:01.4,0.003433228,-0.005533218,0.004760742,0,
00:01.4,0.00343895,-0.005527496,0.004760742,0,
00:01.4,0.003427505,-0.00553894,0.00475502,0,
00:01.4,0.003427505,-0.005544662,0.004760742,0,
00:01.4,0.00343895,-0.005504608,0.00475502,0,
00:01.5,0.00343895,-0.005504608,0.00475502,0,
00:01.5,0.00343895,-0.00551033,0.00475502,0,
00:01.5,0.003433228,-0.005521774,0.004760742,0,
00:01.5,0.003427505,-0.00553894,0.00475502,0,
00:01.5,0.003427505,-0.00553894,0.004743576,0,
00:01.5,0.00343895,-0.005521774,0.00475502,0,
00:01.5,0.003444672,-0.00551033,0.004766464,0,
00:01.5,0.00343895,-0.00551033,0.00475502,0,
00:01.5,0.003444672,-0.005504608,0.00475502,0,
00:01.5,0.00343895,-0.005516052,0.004749298,0,
00:01.5,0.003427505,-0.005533218,0.00475502,0,
00:01.5,0.003427505,-0.00553894,0.004760742,0,
00:01.5,0.00343895,-0.00551033,0.00475502,0,
00:01.5,0.003444672,-0.005504608,0.00475502,0,
00:01.5,0.003444672,-0.00551033,0.00475502,0,
00:01.5,0.003450394,-0.005498886,0.00475502,0,
00:01.5,0.003444672,-0.005493164,0.00475502,0,
00:01.5,0.003444672,-0.005498886,0.004760742,0,
00:01.5,0.003450394,-0.005504608,0.00475502,0,
00:01.5,0.003450394,-0.005504608,0.004749298,0,
00:01.5,0.003444672,-0.005504608,0.004749298,0,
00:01.5,0.00343895,-0.00551033,0.004749298,0,
00:01.5,0.003444672,-0.00551033,0.004760742,0,
00:01.5,0.00343895,-0.005516052,0.00475502,0,
00:01.5,0.00343895,-0.005521774,0.00475502,0,
00:01.6,0.003450394,-0.005504608,0.004760742,0,
00:01.6,0.003450394,-0.005498886,0.004749298,0,
00:01.6,0.003456116,-0.005487442,0.00475502,0,
00:01.6,0.003456116,-0.005487442,0.004766464,0,
00:01.6,0.003450394,-0.005493164,0.004760742,0,
00:01.6,0.003450394,-0.005487442,0.00475502,0,
00:01.6,0.003450394,-0.005493164,0.00475502,0,
00:01.6,0.00343895,-0.005504608,0.004766464,0,
00:01.6,0.003444672,-0.005498886,0.004760742,0,
00:01.6,0.003456116,-0.00548172,0.004760742,0,
00:01.6,0.003456116,-0.005475998,0.004760742,0,
00:01.6,0.003444672,-0.00548172,0.004760742,0,
00:01.6,0.003444672,-0.005493164,0.004760742,0,
00:01.6,0.003444672,-0.005504608,0.00475502,0,
00:01.6,0.003450394,-0.005493164,0.004749298,0,
00:01.6,0.003450394,-0.005493164,0.004766464,0,
00:01.6,0.003444672,-0.005498886,0.004766464,0,
00:01.6,0.003444672,-0.00548172,0.004760742,0,
00:01.6,0.003450394,-0.005470276,0.00475502,0,
00:01.6,0.003450394,-0.005475998,0.004760742,0,
00:01.6,0.003444672,-0.005475998,0.004766464,0,
00:01.6,0.00343895,-0.005487442,0.004760742,0,
00:01.6,0.003444672,-0.005487442,0.00475502,0,
00:01.6,0.003450394,-0.005475998,0.004760742,0,
00:01.6,0.003444672,-0.00548172,0.00475502,0,
00:01.7,0.003444672,-0.00548172,0.004760742,0,
00:01.7,0.003450394,-0.005464554,0.004766464,0,
00:01.7,0.003456116,-0.005458832,0.004760742,0,
00:01.7,0.003444672,-0.005487442,0.004760742,0,
00:01.7,0.003444672,-0.00548172,0.004760742,0,
00:01.7,0.003444672,-0.005470276,0.004760742,0,
00:01.7,0.003450394,-0.005458832,0.004760742,0,
00:01.7,0.003450394,-0.00545311,0.004760742,0,
00:01.7,0.003444672,-0.005458832,0.004760742,0,
00:01.7,0.003444672,-0.005458832,0.004760742,0,
00:01.7,0.00343895,-0.005475998,0.004760742,0,
00:01.7,0.003444672,-0.00548172,0.004760742,0,
00:01.7,0.003444672,-0.005475998,0.004766464,0,
00:01.7,0.003444672,-0.005470276,0.004760742,0,
00:01.7,0.003456116,-0.005447388,0.004760742,0,
00:01.7,0.003461838,-0.005447388,0.004766464,0,
00:01.7,0.003456116,-0.005458832,0.004766464,0,
00:01.7,0.003450394,-0.005470276,0.00475502,0,
00:01.7,0.003450394,-0.005458832,0.004766464,0,
00:01.7,0.003456116,-0.005447388,0.004766464,0,
00:01.7,0.003456116,-0.00545311,0.004766464,0,
00:01.7,0.003450394,-0.005447388,0.004766464,0,
00:01.7,0.003456116,-0.005441666,0.004766464,0,
00:01.7,0.003456116,-0.005447388,0.00475502,0,
00:01.7,0.003456116,-0.00545311,0.004749298,0,
00:01.8,0.003461838,-0.005447388,0.004760742,0,
00:01.8,0.003450394,-0.005447388,0.004766464,0,
00:01.8,0.003444672,-0.005458832,0.004766464,0,
00:01.8,0.003444672,-0.005458832,0.004760742,0,
00:01.8,0.003450394,-0.005447388,0.00475502,0,
00:01.8,0.003450394,-0.005441666,0.004760742,0,
00:01.8,0.003444672,-0.005458832,0.004766464,0,
00:01.8,0.003444672,-0.005447388,0.004760742,0,
00:01.8,0.003450394,-0.005441666,0.004760742,0,
00:01.8,0.003456116,-0.005435944,0.00475502,0,
00:01.8,0.003450394,-0.005447388,0.00475502,0,
00:01.8,0.003444672,-0.00545311,0.004766464,0,
00:01.8,0.003450394,-0.005441666,0.004760742,0,
00:01.8,0.003461838,-0.005418777,0.004760742,0,
00:01.8,0.003450394,-0.005430222,0.004760742,0,
00:01.8,0.003450394,-0.005447388,0.004760742,0,
00:01.8,0.003444672,-0.005458832,0.004766464,0,
00:01.8,0.00343895,-0.005458832,0.004766464,0,
00:01.8,0.003444672,-0.005447388,0.004760742,0,
00:01.8,0.003456116,-0.0054245,0.004760742,0,
00:01.8,0.003456116,-0.0054245,0.004766464,0,
00:01.8,0.003456116,-0.005435944,0.004760742,0,
00:01.8,0.003456116,-0.005441666,0.004760742,0,
00:01.8,0.003456116,-0.005430222,0.004766464,0,
00:01.8,0.003456116,-0.0054245,0.004766464,0,
00:01.9,0.003456116,-0.005430222,0.004760742,0,
00:01.9,0.003450394,-0.005430222,0.004760742,0,
00:01.9,0.003450394,-0.005430222,0.004766464,0,
00:01.9,0.003444672,-0.005447388,0.004766464,0,
00:01.9,0.003450394,-0.005447388,0.00475502,0,
00:01.9,0.003461838,-0.005413055,0.00475502,0,
00:01.9,0.003461838,-0.005418777,0.004766464,0,
00:01.9,0.003456116,-0.005430222,0.004766464,0,
00:01.9,0.003450394,-0.005430222,0.004760742,0,
00:01.9,0.003444672,-0.005447388,0.004760742,0,
00:01.9,0.003450394,-0.00545311,0.004760742,0,
00:01.9,0.003456116,-0.005435944,0.00475502,0,
00:01.9,0.00346756,-0.005407333,0.00475502,0,
00:01.9,0.00346756,-0.005413055,0.004766464,0,
00:01.9,0.003456116,-0.005430222,0.004766464,0,
00:01.9,0.003450394,-0.005430222,0.004760742,0,
00:01.9,0.003456116,-0.005418777,0.004760742,0,
00:01.9,0.003461838,-0.005418777,0.004766464,0,
00:01.9,0.003461838,-0.005418777,0.004766464,0,
00:01.9,0.003461838,-0.0054245,0.004766464,0,
00:01.9,0.003461838,-0.0054245,0.004766464,0,
00:01.9,0.003456116,-0.005430222,0.004766464,0,
00:01.9,0.003456116,-0.005430222,0.00475502,0,
00:01.9,0.003461838,-0.0054245,0.004766464,0,
00:01.9,0.003461838,-0.005413055,0.004766464,0,
00:02.0,0.003461838,-0.005407333,0.004760742,0,
00:02.0,0.003461838,-0.005418777,0.004760742,0,
00:02.0,0.003456116,-0.0054245,0.004760742,0,
00:02.0,0.003450394,-0.005430222,0.004749298,0,
00:02.0,0.003456116,-0.005430222,0.00475502,0,
00:02.0,0.00346756,-0.005401611,0.00475502,0,
00:02.0,0.00346756,-0.005413055,0.004760742,0,
00:02.0,0.003450394,-0.005430222,0.00475502,0,
00:02.0,0.003450394,-0.0054245,0.00475502,0,
00:02.0,0.003456116,-0.0054245,0.00475502,0,
00:02.0,0.003456116,-0.005418777,0.00475502,0,
00:02.0,0.003473282,-0.005395889,0.004760742,0,
00:00:02,0.003473282,-0.005390167,0.004760742,0,
00:02.0,0.00346756,-0.005401611,0.00475502,0,
00:02.0,0.003461838,-0.005407333,0.004760742,0,
00:02.0,0.003461838,-0.005413055,0.004760742,0,
00:02.0,0.003461838,-0.005407333,0.004760742,0,
00:02.0,0.003461838,-0.005401611,0.004760742,0,
00:02.0,0.003461838,-0.005395889,0.00475502,0,
00:02.0,0.003461838,-0.005395889,0.004766464,0,
00:02.0,0.003450394,-0.005413055,0.004760742,0,
00:02.0,0.003456116,-0.005407333,0.00475502,0,
00:02.0,0.00346756,-0.005390167,0.004760742,0,
00:02.0,0.00346756,-0.005384445,0.004760742,0,
00:02.0,0.003461838,-0.005390167,0.00475502,0,
00:02.1,0.003461838,-0.005407333,0.004760742,0,
00:02.1,0.003456116,-0.005413055,0.00475502,0,
00:02.1,0.003461838,-0.005407333,0.004749298,0,
00:02.1,0.00346756,-0.005390167,0.004760742,0,
00:02.1,0.00346756,-0.005378723,0.004766464,0,
00:02.1,0.00346756,-0.005378723,0.004766464,0,
00:02.1,0.003461838,-0.005384445,0.004760742,0,
00:02.1,0.003456116,-0.005390167,0.004760742,0,
00:02.1,0.003456116,-0.005390167,0.00475502,0,
00:02.1,0.003461838,-0.005384445,0.004760742,0,
00:02.1,0.003456116,-0.005395889,0.004760742,0,
00:02.1,0.003461838,-0.005395889,0.004760742,0,
00:02.1,0.00346756,-0.005378723,0.004760742,0,
00:02.1,0.00346756,-0.005373001,0.004766464,0,
00:02.1,0.00346756,-0.005373001,0.004760742,0,
00:02.1,0.003461838,-0.005384445,0.004766464,0,
00:02.1,0.003461838,-0.005384445,0.004766464,0,
00:02.1,0.00346756,-0.005378723,0.004760742,0,
00:02.1,0.003473282,-0.005373001,0.00475502,0,
00:02.1,0.003473282,-0.005373001,0.004760742,0,
00:02.1,0.00346756,-0.005373001,0.004777908,0,
00:02.1,0.003461838,-0.005390167,0.004772186,0,
00:02.1,0.00346756,-0.005373001,0.004772186,0,
00:02.1,0.003473282,-0.005361557,0.004766464,0,
00:02.1,0.00346756,-0.005373001,0.004760742,0,
00:02.2,0.00346756,-0.005384445,0.004760742,0,
00:02.2,0.00346756,-0.005378723,0.004772186,0,
00:02.2,0.00346756,-0.005373001,0.004772186,0,
00:02.2,0.00346756,-0.005367279,0.004772186,0,
00:02.2,0.00346756,-0.005367279,0.004772186,0,
00:02.2,0.00346756,-0.005373001,0.004766464,0,
00:02.2,0.003473282,-0.005367279,0.004772186,0,
00:02.2,0.003473282,-0.005350113,0.004772186,0,
00:02.2,0.003473282,-0.005344391,0.004766464,0,
00:02.2,0.00346756,-0.005361557,0.004772186,0,
00:02.2,0.00346756,-0.005367279,0.004760742,0,
00:02.2,0.00346756,-0.005361557,0.004760742,0,
00:02.2,0.00346756,-0.005361557,0.004777908,0,
00:02.2,0.00346756,-0.005350113,0.004772186,0,
00:02.2,0.00346756,-0.005355835,0.004772186,0,
00:02.2,0.003473282,-0.005355835,0.004766464,0,
00:02.2,0.00346756,-0.005361557,0.004766464,0,
00:02.2,0.003473282,-0.005355835,0.004766464,0,
00:02.2,0.003473282,-0.005350113,0.004766464,0,
00:02.2,0.00346756,-0.005355835,0.004772186,0,
00:02.2,0.00346756,-0.005355835,0.004772186,0,
00:02.2,0.003473282,-0.005350113,0.004772186,0,
00:02.2,0.003473282,-0.005344391,0.004772186,0,
00:02.2,0.003473282,-0.005350113,0.004772186,0,
00:02.2,0.003479004,-0.005338669,0.004772186,0,
00:02.3,0.003484726,-0.005327225,0.004760742,0,
00:02.3,0.003473282,-0.005332947,0.004772186,0,
00:02.3,0.00346756,-0.005338669,0.00478363,0,
00:02.3,0.00346756,-0.005350113,0.004772186,0,
00:02.3,0.00346756,-0.005350113,0.004772186,0,
00:02.3,0.00346756,-0.005355835,0.004777908,0,
00:02.3,0.00346756,-0.005350113,0.004772186,0,
00:02.3,0.003479004,-0.005327225,0.004777908,0,
00:02.3,0.003479004,-0.005321503,0.004772186,0,
00:02.3,0.003473282,-0.005327225,0.004772186,0,
00:02.3,0.00346756,-0.005350113,0.004777908,0,
00:02.3,0.003473282,-0.005350113,0.004777908,0,
00:02.3,0.003479004,-0.005332947,0.004777908,0,
00:02.3,0.003479004,-0.005327225,0.004772186,0,
00:02.3,0.003479004,-0.005321503,0.004772186,0,
00:02.3,0.003479004,-0.005321503,0.004772186,0,
00:02.3,0.003473282,-0.005327225,0.004772186,0,
00:02.3,0.00346756,-0.005338669,0.004777908,0,
00:02.3,0.003473282,-0.005338669,0.004772186,0,
00:02.3,0.003473282,-0.005332947,0.004772186,0,
00:02.3,0.003461838,-0.005350113,0.004772186,0,
00:02.3,0.003473282,-0.005327225,0.004772186,0,
00:02.3,0.003473282,-0.005321503,0.004772186,0,
00:02.3,0.003473282,-0.005321503,0.004766464,0,
00:02.3,0.003479004,-0.005310059,0.004772186,0,
00:02.4,0.003473282,-0.005315781,0.004766464,0,
00:02.4,0.003473282,-0.005327225,0.00478363,0,
00:02.4,0.00346756,-0.005327225,0.004777908,0,
00:02.4,0.00346756,-0.005327225,0.004772186,0,
00:02.4,0.003479004,-0.005304337,0.004777908,0,
00:02.4,0.003484726,-0.005298615,0.004777908,0,
00:02.4,0.003479004,-0.005315781,0.004777908,0,
00:02.4,0.003473282,-0.005321503,0.004772186,0,
00:02.4,0.003473282,-0.005310059,0.004772186,0,
00:02.4,0.003473282,-0.005321503,0.004766464,0,
00:02.4,0.00346756,-0.005321503,0.004772186,0,
00:02.4,0.00346756,-0.005315781,0.004777908,0,
00:02.4,0.00346756,-0.005304337,0.00478363,0,
00:02.4,0.00346756,-0.005315781,0.004777908,0,
00:02.4,0.00346756,-0.005315781,0.004777908,0,
00:02.4,0.00346756,-0.005315781,0.004772186,0,
00:02.4,0.00346756,-0.005321503,0.004772186,0,
00:02.4,0.00346756,-0.005315781,0.004777908,0,
00:02.4,0.00346756,-0.005310059,0.004777908,0,
00:02.4,0.00346756,-0.005304337,0.004772186,0,
00:02.4,0.003479004,-0.00528717,0.004772186,0,
00:02.4,0.003473282,-0.00528717,0.004777908,0,
00:02.4,0.00346756,-0.005304337,0.004777908,0,
00:02.4,0.003456116,-0.005327225,0.004772186,0,
00:02.4,0.003450394,-0.005321503,0.004766464,0,
00:02.5,0.00346756,-0.00528717,0.004772186,0,
00:02.5,0.003479004,-0.005275726,0.004777908,0,
00:02.5,0.003473282,-0.005281448,0.004777908,0,
00:02.5,0.00346756,-0.005298615,0.004772186,0,
00:02.5,0.003461838,-0.005304337,0.004772186,0,
00:02.5,0.00346756,-0.005298615,0.004777908,0,
00:02.5,0.003461838,-0.005298615,0.004772186,0,
00:02.5,0.00346756,-0.005292892,0.004772186,0,
00:02.5,0.003473282,-0.005281448,0.004772186,0,
00:02.5,0.00346756,-0.005292892,0.004772186,0,
00:02.5,0.00346756,-0.005292892,0.004772186,0,
00:02.5,0.00346756,-0.00528717,0.004772186,0,
00:02.5,0.003473282,-0.005292892,0.004777908,0,
00:02.5,0.00346756,-0.005292892,0.004772186,0,
00:02.5,0.003473282,-0.005292892,0.004766464,0,
00:02.5,0.003479004,-0.005275726,0.004766464,0,
00:02.5,0.003484726,-0.005264282,0.004777908,0,
00:02.5,0.003479004,-0.005270004,0.004772186,0,
00:02.5,0.00346756,-0.005281448,0.004772186,0,
00:02.5,0.00346756,-0.005281448,0.004777908,0,
00:02.5,0.003473282,-0.005281448,0.004772186,0,
00:02.5,0.003473282,-0.005270004,0.004766464,0,
00:02.5,0.003479004,-0.005264282,0.004777908,0,
00:02.5,0.003479004,-0.005264282,0.00478363,0,
00:02.5,0.003473282,-0.005275726,0.004777908,0,
00:02.6,0.003479004,-0.005270004,0.004777908,0,
00:02.6,0.003473282,-0.005275726,0.004777908,0,
00:02.6,0.00346756,-0.005281448,0.004766464,0,
00:02.6,0.003473282,-0.005281448,0.004772186,0,
00:02.6,0.003473282,-0.00528717,0.004777908,0,
00:02.6,0.003473282,-0.005281448,0.004777908,0,
00:02.6,0.00346756,-0.005281448,0.004777908,0,
00:02.6,0.003473282,-0.005264282,0.004777908,0,
00:02.6,0.003479004,-0.00525856,0.004777908,0,
00:02.6,0.00346756,-0.005270004,0.004777908,0,
00:02.6,0.00346756,-0.005270004,0.004777908,0,
00:02.6,0.003473282,-0.005270004,0.004772186,0,
00:02.6,0.00346756,-0.005281448,0.004772186,0,
00:02.6,0.003461838,-0.00528717,0.004772186,0,
00:02.6,0.00346756,-0.005275726,0.004777908,0,
00:02.6,0.003479004,-0.00525856,0.004777908,0,
00:02.6,0.003484726,-0.005252838,0.00478363,0,
00:02.6,0.003479004,-0.005264282,0.004777908,0,
00:02.6,0.003473282,-0.005270004,0.004777908,0,
00:02.6,0.003473282,-0.005270004,0.004777908,0,
00:02.6,0.003479004,-0.005264282,0.004777908,0,
00:02.6,0.003473282,-0.005264282,0.00478363,0,
00:02.6,0.003473282,-0.005264282,0.004777908,0,
00:02.6,0.003473282,-0.00525856,0.004777908,0,
00:02.6,0.003473282,-0.005275726,0.004772186,0,
00:02.7,0.00346756,-0.005275726,0.004777908,0,
00:02.7,0.003473282,-0.00525856,0.004789352,0,
00:02.7,0.00346756,-0.005275726,0.00478363,0,
00:02.7,0.003473282,-0.005275726,0.004777908,0,
00:02.7,0.003479004,-0.005264282,0.004777908,0,
00:02.7,0.003479004,-0.005247116,0.00478363,0,
00:02.7,0.003473282,-0.00525856,0.00478363,0,
00:02.7,0.003473282,-0.005264282,0.004777908,0,
00:02.7,0.003473282,-0.00525856,0.004777908,0,
00:02.7,0.003473282,-0.005264282,0.004772186,0,
00:02.7,0.00346756,-0.005270004,0.004777908,0,
00:02.7,0.00346756,-0.005270004,0.004789352,0,
00:02.7,0.003473282,-0.005252838,0.004777908,0,
00:02.7,0.003479004,-0.005247116,0.004777908,0,
00:02.7,0.003479004,-0.005247116,0.00478363,0,
00:02.7,0.003490448,-0.005235672,0.00478363,0,
00:02.7,0.003484726,-0.005241394,0.00478363,0,
00:02.7,0.003484726,-0.005247116,0.00478363,0,
00:02.7,0.003479004,-0.005252838,0.004777908,0,
00:02.7,0.003473282,-0.005264282,0.004777908,0,
00:02.7,0.003479004,-0.005264282,0.004777908,0,
00:02.7,0.003484726,-0.005247116,0.004777908,0,
00:02.7,0.003479004,-0.00525856,0.004777908,0,
00:02.7,0.003479004,-0.005270004,0.00478363,0,
00:02.7,0.003473282,-0.005270004,0.00478363,0,
00:02.8,0.003479004,-0.005270004,0.004777908,0,
00:02.8,0.003484726,-0.005247116,0.004777908,0,
00:02.8,0.003490448,-0.00522995,0.004777908,0,
00:02.8,0.003490448,-0.00522995,0.00478363,0,
00:02.8,0.003484726,-0.005241394,0.004777908,0,
00:02.8,0.003479004,-0.005247116,0.004777908,0,
00:02.8,0.003473282,-0.005252838,0.004789352,0,
00:02.8,0.003479004,-0.005252838,0.00478363,0,
00:02.8,0.003479004,-0.005247116,0.004777908,0,
00:02.8,0.003479004,-0.005241394,0.004789352,0,
00:02.8,0.003479004,-0.005247116,0.00478363,0,
00:02.8,0.003473282,-0.005252838,0.00478363,0,
00:02.8,0.003473282,-0.00525856,0.00478363,0,
00:02.8,0.003479004,-0.005252838,0.00478363,0,
00:02.8,0.003484726,-0.005241394,0.00478363,0,
00:02.8,0.003479004,-0.005241394,0.00478363,0,
00:02.8,0.003484726,-0.005241394,0.00478363,0,
00:02.8,0.003484726,-0.00522995,0.00478363,0,
00:02.8,0.003484726,-0.00522995,0.004777908,0,
00:02.8,0.003484726,-0.00522995,0.00478363,0,
00:02.8,0.003479004,-0.005241394,0.004789352,0,
00:02.8,0.003479004,-0.005247116,0.00478363,0,
00:02.8,0.003484726,-0.00522995,0.00478363,0,
00:02.8,0.003484726,-0.005224228,0.004789352,0,
00:02.8,0.003484726,-0.005224228,0.00478363,0,
00:02.9,0.003484726,-0.005218506,0.004789352,0,
00:02.9,0.003479004,-0.005224228,0.004777908,0,
00:02.9,0.003479004,-0.005235672,0.00478363,0,
00:02.9,0.003484726,-0.00522995,0.004795074,0,
00:02.9,0.003479004,-0.00522995,0.00478363,0,
00:02.9,0.003479004,-0.00522995,0.00478363,0,
00:02.9,0.003473282,-0.005224228,0.00478363,0,
00:02.9,0.003473282,-0.005235672,0.004789352,0,
00:02.9,0.00346756,-0.005235672,0.004789352,0,
00:02.9,0.003479004,-0.005224228,0.00478363,0,
00:02.9,0.003484726,-0.005218506,0.00478363,0,
00:02.9,0.003479004,-0.005218506,0.004795074,0,
00:02.9,0.003484726,-0.005207062,0.004795074,0,
00:02.9,0.003484726,-0.005212784,0.004789352,0,
00:02.9,0.003479004,-0.005212784,0.004789352,0,
00:02.9,0.003479004,-0.005224228,0.004789352,0,
00:02.9,0.003479004,-0.005218506,0.004789352,0,
00:02.9,0.003484726,-0.005207062,0.004789352,0,
00:02.9,0.003484726,-0.005207062,0.00478363,0,
00:02.9,0.003484726,-0.005207062,0.00478363,0,
00:02.9,0.003484726,-0.00520134,0.004789352,0,
00:02.9,0.003484726,-0.005218506,0.004789352,0,
00:02.9,0.003484726,-0.005212784,0.00478363,0,
00:02.9,0.003490448,-0.00520134,0.00478363,0,
00:02.9,0.003490448,-0.005195618,0.004789352,0,
00:03.0,0.003490448,-0.005195618,0.00478363,0,
00:03.0,0.003490448,-0.00520134,0.004789352,0,
00:03.0,0.003484726,-0.005195618,0.004789352,0,
00:03.0,0.003479004,-0.00520134,0.004789352,0,
00:03.0,0.003479004,-0.005207062,0.00478363,0,
00:03.0,0.003479004,-0.00520134,0.004777908,0,
00:03.0,0.003484726,-0.005189896,0.004789352,0,
00:03.0,0.003490448,-0.005178452,0.004789352,0,
00:03.0,0.003484726,-0.005189896,0.00478363,0,
00:03.0,0.003484726,-0.005189896,0.004789352,0,
00:03.0,0.003479004,-0.005195618,0.004789352,0,
00:03.0,0.003484726,-0.005189896,0.00478363,0,
00:00:03,0.003490448,-0.005184174,0.00478363,0,
00:03.0,0.003479004,-0.005189896,0.004789352,0,
00:03.0,0.003473282,-0.005189896,0.004789352,0,
00:03.0,0.003479004,-0.005184174,0.004789352,0,
00:03.0,0.003490448,-0.005167007,0.00478363,0,
00:03.0,0.003490448,-0.005178452,0.00478363,0,
00:03.0,0.003479004,-0.005184174,0.00478363,0,
00:03.0,0.003484726,-0.005172729,0.00478363,0,
00:03.0,0.003484726,-0.005172729,0.004789352,0,
00:03.0,0.003479004,-0.005178452,0.00478363,0,
00:03.0,0.003473282,-0.005184174,0.004777908,0,
00:03.0,0.003479004,-0.005178452,0.004789352,0,
00:03.0,0.003484726,-0.005167007,0.004789352,0,
00:03.1,0.003479004,-0.005172729,0.00478363,0,
00:03.1,0.003479004,-0.005178452,0.004789352,0,
00:03.1,0.003484726,-0.005172729,0.004795074,0,
00:03.1,0.003484726,-0.005178452,0.004789352,0,
00:03.1,0.003484726,-0.005172729,0.004789352,0,
00:03.1,0.003484726,-0.005178452,0.00478363,0,
00:03.1,0.003484726,-0.005178452,0.00478363,0,
00:03.1,0.003479004,-0.005172729,0.00478363,0,
00:03.1,0.003484726,-0.005167007,0.004789352,0,
00:03.1,0.003490448,-0.005167007,0.004795074,0,
00:03.1,0.003490448,-0.005149841,0.004789352,0,
00:03.1,0.003490448,-0.005161285,0.004789352,0,
00:03.1,0.003479004,-0.005172729,0.004789352,0,
00:03.1,0.003484726,-0.005167007,0.00478363,0,
00:03.1,0.003490448,-0.005161285,0.00478363,0,
00:03.1,0.003484726,-0.005167007,0.004789352,0,
00:03.1,0.003490448,-0.005161285,0.004789352,0,
00:03.1,0.003490448,-0.005155563,0.004789352,0,
00:03.1,0.003490448,-0.005155563,0.004789352,0,
00:03.1,0.003490448,-0.005161285,0.00478363,0,
00:03.1,0.003484726,-0.005172729,0.00478363,0,
00:03.1,0.00349617,-0.005161285,0.00478363,0,
00:03.1,0.00349617,-0.005144119,0.00478363,0,
00:03.1,0.003501892,-0.005144119,0.004789352,0,
00:03.1,0.003501892,-0.005149841,0.004795074,0,
00:03.2,0.003501892,-0.005144119,0.004789352,0,
00:03.2,0.003501892,-0.005144119,0.004795074,0,
00:03.2,0.00349617,-0.005155563,0.004789352,0,
00:03.2,0.003501892,-0.005149841,0.004789352,0,
00:03.2,0.003507614,-0.005144119,0.004789352,0,
00:03.2,0.003507614,-0.005138397,0.004795074,0,
00:03.2,0.003507614,-0.005138397,0.004795074,0,
00:03.2,0.003501892,-0.005149841,0.004789352,0,
00:03.2,0.003507614,-0.005149841,0.00478363,0,
00:03.2,0.003513336,-0.005138397,0.00478363,0,
00:03.2,0.003507614,-0.005132675,0.004795074,0,
00:03.2,0.00349617,-0.005155563,0.004789352,0,
00:03.2,0.00349617,-0.005149841,0.004789352,0,
00:03.2,0.003501892,-0.005126953,0.004789352,0,
00:03.2,0.003507614,-0.005126953,0.004789352,0,
00:03.2,0.003507614,-0.005126953,0.004789352,0,
00:03.2,0.003507614,-0.005132675,0.004789352,0,
00:03.2,0.00349617,-0.005149841,0.00478363,0,
00:03.2,0.003484726,-0.005161285,0.00478363,0,
00:03.2,0.00349617,-0.005149841,0.00478363,0,
00:03.2,0.003507614,-0.005132675,0.004795074,0,
00:03.2,0.003507614,-0.005132675,0.004789352,0,
00:03.2,0.003513336,-0.005115509,0.004777908,0,
00:03.2,0.003513336,-0.005115509,0.004789352,0,
00:03.2,0.003507614,-0.005121231,0.00478363,0,
00:03.3,0.003501892,-0.005126953,0.004795074,0,
00:03.3,0.003501892,-0.005138397,0.004800797,0,
00:03.3,0.003501892,-0.005138397,0.004795074,0,
00:03.3,0.003507614,-0.005121231,0.004789352,0,
00:03.3,0.003513336,-0.005104065,0.004789352,0,
00:03.3,0.003507614,-0.005109787,0.004789352,0,
00:03.3,0.003507614,-0.005109787,0.004795074,0,
00:03.3,0.003501892,-0.005126953,0.004789352,0,
00:03.3,0.00349617,-0.005144119,0.004789352,0,
00:03.3,0.00349617,-0.005144119,0.004789352,0,
00:03.3,0.003507614,-0.005121231,0.004795074,0,
00:03.3,0.003507614,-0.005121231,0.004789352,0,
00:03.3,0.003501892,-0.005115509,0.004789352,0,
00:03.3,0.003501892,-0.005115509,0.00478363,0,
00:03.3,0.003501892,-0.005121231,0.004777908,0,
00:03.3,0.003501892,-0.005121231,0.004789352,0,
00:03.3,0.003501892,-0.005121231,0.00478363,0,
00:03.3,0.00349617,-0.005126953,0.004789352,0,
00:03.3,0.00349617,-0.005126953,0.004789352,0,
00:03.3,0.003501892,-0.005121231,0.00478363,0,
00:03.3,0.003507614,-0.005115509,0.00478363,0,
00:03.3,0.003501892,-0.005115509,0.004789352,0,
00:03.3,0.00349617,-0.005115509,0.00478363,0,
00:03.3,0.003501892,-0.005109787,0.004777908,0,
00:03.3,0.003501892,-0.005104065,0.00478363,0,
00:03.4,0.003507614,-0.005109787,0.004789352,0,
00:03.4,0.003501892,-0.005104065,0.00478363,0,
00:03.4,0.00349617,-0.005115509,0.00478363,0,
00:03.4,0.00349617,-0.005126953,0.00478363,0,
00:03.4,0.003507614,-0.005109787,0.00478363,0,
00:03.4,0.003507614,-0.005098343,0.00478363,0,
00:03.4,0.003501892,-0.005109787,0.00478363,0,
00:03.4,0.003501892,-0.005109787,0.00478363,0,
00:03.4,0.003501892,-0.005109787,0.00478363,0,
00:03.4,0.003501892,-0.005115509,0.004777908,0,
00:03.4,0.00349617,-0.005121231,0.004772186,0,
00:03.4,0.00349617,-0.005109787,0.004789352,0,
00:03.4,0.003507614,-0.005092621,0.00478363,0,
00:03.4,0.003507614,-0.005092621,0.004789352,0,
00:03.4,0.003501892,-0.005098343,0.004789352,0,
00:03.4,0.003501892,-0.005104065,0.00478363,0,
00:03.4,0.003501892,-0.005109787,0.004789352,0,
00:03.4,0.00349617,-0.005109787,0.004789352,0,
00:03.4,0.00349617,-0.005104065,0.00478363,0,
00:03.4,0.003507614,-0.005098343,0.00478363,0,
00:03.4,0.003513336,-0.005086899,0.004777908,0,
00:03.4,0.003501892,-0.005092621,0.00478363,0,
00:03.4,0.00349617,-0.005104065,0.00478363,0,
00:03.4,0.003501892,-0.005104065,0.00478363,0,
00:03.4,0.00349617,-0.005109787,0.00478363,0,
00:03.5,0.003501892,-0.005098343,0.004777908,0,
00:03.5,0.003513336,-0.005086899,0.00478363,0,
00:03.5,0.003507614,-0.005081177,0.004789352,0,
00:03.5,0.003501892,-0.005086899,0.00478363,0,
00:03.5,0.003501892,-0.005092621,0.00478363,0,
00:03.5,0.003501892,-0.005092621,0.00478363,0,
00:03.5,0.00349617,-0.005098343,0.00478363,0,
00:03.5,0.00349617,-0.005098343,0.00478363,0,
00:03.5,0.00349617,-0.005092621,0.004789352,0,
00:03.5,0.003501892,-0.005081177,0.004789352,0,
00:03.5,0.003501892,-0.005086899,0.00478363,0,
00:03.5,0.003501892,-0.005086899,0.004789352,0,
00:03.5,0.003501892,-0.005081177,0.004795074,0,
00:03.5,0.00349617,-0.005086899,0.004789352,0,
00:03.5,0.003501892,-0.005086899,0.004789352,0,
00:03.5,0.003507614,-0.005081177,0.004789352,0,
00:03.5,0.00349617,-0.005081177,0.004789352,0,
00:03.5,0.00349617,-0.005086899,0.004789352,0,
00:03.5,0.003501892,-0.005092621,0.004789352,0,
00:03.5,0.00349617,-0.005098343,0.00478363,0,
00:03.5,0.003490448,-0.005092621,0.004777908,0,
00:03.5,0.00349617,-0.005086899,0.00478363,0,
00:03.5,0.00349617,-0.005081177,0.004800797,0,
00:03.5,0.00349617,-0.005075455,0.00478363,0,
00:03.5,0.003501892,-0.005069733,0.00478363,0,
00:03.6,0.00349617,-0.005081177,0.004789352,0,
00:03.6,0.00349617,-0.005081177,0.00478363,0,
00:03.6,0.00349617,-0.005081177,0.00478363,0,
00:03.6,0.003501892,-0.005064011,0.00478363,0,
00:03.6,0.003501892,-0.005064011,0.00478363,0,
00:03.6,0.00349617,-0.005069733,0.004789352,0,
00:03.6,0.003501892,-0.005064011,0.004789352,0,
00:03.6,0.003501892,-0.005064011,0.00478363,0,
00:03.6,0.003501892,-0.005069733,0.00478363,0,
00:03.6,0.00349617,-0.005081177,0.004777908,0,
00:03.6,0.00349617,-0.005075455,0.004789352,0,
00:03.6,0.003501892,-0.005058289,0.004795074,0,
00:03.6,0.003501892,-0.005058289,0.004789352,0,
00:03.6,0.003501892,-0.005064011,0.00478363,0,
00:03.6,0.003501892,-0.005058289,0.004789352,0,
00:03.6,0.003501892,-0.005064011,0.004789352,0,
00:03.6,0.00349617,-0.005058289,0.004789352,0,
00:03.6,0.003501892,-0.005058289,0.004789352,0,
00:03.6,0.00349617,-0.005069733,0.004789352,0,
00:03.6,0.00349617,-0.005069733,0.00478363,0,
00:03.6,0.00349617,-0.005069733,0.004789352,0,
00:03.6,0.00349617,-0.005069733,0.004789352,0,
00:03.6,0.00349617,-0.005069733,0.004789352,0,
00:03.6,0.003501892,-0.005058289,0.00478363,0,
00:03.6,0.003501892,-0.005064011,0.004777908,0,
00:03.7,0.003501892,-0.005064011,0.004789352,0,
00:03.7,0.003507614,-0.005052567,0.004795074,0,
00:03.7,0.00349617,-0.005052567,0.004789352,0,
00:03.7,0.003501892,-0.005058289,0.00478363,0,
00:03.7,0.003513336,-0.005041122,0.004789352,0,
00:03.7,0.003513336,-0.005029678,0.004789352,0,
00:03.7,0.003507614,-0.005046844,0.004777908,0,
00:03.7,0.003501892,-0.005052567,0.00478363,0,
00:03.7,0.003501892,-0.005058289,0.004789352,0,
00:03.7,0.00349617,-0.005064011,0.004789352,0,
00:03.7,0.003501892,-0.0050354,0.004789352,0,
00:03.7,0.003507614,-0.0050354,0.004789352,0,
00:03.7,0.003501892,-0.0050354,0.004789352,0,
00:03.7,0.003490448,-0.005046844,0.00478363,0,
00:03.7,0.00349617,-0.005052567,0.00478363,0,
00:03.7,0.00349617,-0.005052567,0.004789352,0,
00:03.7,0.00349617,-0.005058289,0.004789352,0,
00:03.7,0.003501892,-0.005041122,0.004789352,0,
00:03.7,0.003507614,-0.005023956,0.004789352,0,
00:03.7,0.003513336,-0.005029678,0.004789352,0,
00:03.7,0.003507614,-0.0050354,0.004795074,0,
00:03.7,0.003507614,-0.0050354,0.004789352,0,
00:03.7,0.003507614,-0.0050354,0.004789352,0,
00:03.7,0.003507614,-0.005029678,0.004789352,0,
00:03.7,0.003507614,-0.005029678,0.004789352,0,
00:03.8,0.003507614,-0.005029678,0.00478363,0,
00:03.8,0.003507614,-0.0050354,0.004795074,0,
00:03.8,0.003501892,-0.005046844,0.004800797,0,
00:03.8,0.003501892,-0.005046844,0.004795074,0,
00:03.8,0.003501892,-0.0050354,0.004789352,0,
00:03.8,0.003507614,-0.005029678,0.004789352,0,
00:03.8,0.003507614,-0.005029678,0.004789352,0,
00:03.8,0.003513336,-0.005012512,0.004795074,0,
00:03.8,0.003507614,-0.005023956,0.004795074,0,
00:03.8,0.003507614,-0.005023956,0.004795074,0,
00:03.8,0.003513336,-0.00500679,0.004795074,0,
00:03.8,0.003507614,-0.005012512,0.004789352,0,
00:03.8,0.00349617,-0.005029678,0.004789352,0,
00:03.8,0.003501892,-0.005029678,0.004789352,0,
00:03.8,0.003513336,-0.005012512,0.00478363,0,
00:03.8,0.003513336,-0.00500679,0.004795074,0,
00:03.8,0.003507614,-0.005012512,0.004795074,0,
00:03.8,0.003507614,-0.005018234,0.00478363,0,
00:03.8,0.003507614,-0.005018234,0.004795074,0,
00:03.8,0.003501892,-0.005023956,0.004800797,0,
00:03.8,0.00349617,-0.005023956,0.004795074,0,
00:03.8,0.00349617,-0.0050354,0.004795074,0,
00:03.8,0.003507614,-0.005018234,0.004795074,0,
00:03.8,0.003507614,-0.005001068,0.004795074,0,
00:03.8,0.003507614,-0.005012512,0.004789352,0,
00:03.9,0.003507614,-0.005018234,0.004789352,0,
00:03.9,0.003501892,-0.005023956,0.004795074,0,
00:03.9,0.00349617,-0.005029678,0.004795074,0,
00:03.9,0.003501892,-0.005012512,0.004795074,0,
00:03.9,0.003507614,-0.00500679,0.004789352,0,
00:03.9,0.003513336,-0.00500679,0.004789352,0,
00:03.9,0.003501892,-0.005018234,0.004789352,0,
00:03.9,0.003501892,-0.005018234,0.00478363,0,
00:03.9,0.003507614,-0.00500679,0.004789352,0,
00:03.9,0.003507614,-0.00500679,0.004795074,0,
00:03.9,0.003507614,-0.005001068,0.004795074,0,
00:03.9,0.00349617,-0.005012512,0.004795074,0,
00:03.9,0.00349617,-0.005018234,0.004795074,0,
00:03.9,0.003507614,-0.005001068,0.004789352,0,
00:03.9,0.003507614,-0.005001068,0.004777908,0,
00:03.9,0.003507614,-0.005001068,0.004789352,0,
00:03.9,0.003507614,-0.005001068,0.004795074,0,
00:03.9,0.003513336,-0.004989624,0.004789352,0,
00:03.9,0.003507614,-0.004989624,0.004795074,0,
00:03.9,0.003501892,-0.005001068,0.004795074,0,
00:03.9,0.003507614,-0.004995346,0.00478363,0,
00:03.9,0.003513336,-0.004989624,0.004789352,0,
00:03.9,0.003507614,-0.004995346,0.004795074,0,
00:03.9,0.003501892,-0.00500679,0.00478363,0,
00:03.9,0.003507614,-0.00500679,0.004789352,0,
00:04.0,0.003507614,-0.005001068,0.004789352,0,
00:04.0,0.003513336,-0.005001068,0.004789352,0,
00:04.0,0.003513336,-0.005001068,0.004789352,0,
00:04.0,0.003507614,-0.005001068,0.004789352,0,
00:04.0,0.003501892,-0.005001068,0.004789352,0,
00:04.0,0.003507614,-0.005001068,0.004789352,0,
00:04.0,0.003519058,-0.005001068,0.00478363,0,
00:04.0,0.003519058,-0.004989624,0.004795074,0,
00:04.0,0.003519058,-0.004989624,0.004789352,0,
00:04.0,0.003519058,-0.00497818,0.004789352,0,
00:04.0,0.003519058,-0.00497818,0.004789352,0,
00:04.0,0.003519058,-0.00497818,0.004789352,0,
00:00:04,0.003519058,-0.004989624,0.004789352,0,
00:04.0,0.003519058,-0.004989624,0.004789352,0,
00:04.0,0.00352478,-0.00497818,0.004789352,0,
00:04.0,0.00352478,-0.00497818,0.004789352,0,
00:04.0,0.00352478,-0.004983902,0.00478363,0,
00:04.0,0.003519058,-0.004989624,0.004789352,0,
00:04.0,0.003513336,-0.004989624,0.004789352,0,
00:04.0,0.003507614,-0.004995346,0.004795074,0,
00:04.0,0.003513336,-0.004989624,0.004795074,0,
00:04.0,0.003519058,-0.00497818,0.00478363,0,
00:04.0,0.003519058,-0.004983902,0.004789352,0,
00:04.0,0.003507614,-0.004995346,0.004789352,0,
00:04.0,0.003513336,-0.004989624,0.004789352,0,
00:04.1,0.003519058,-0.004972458,0.004795074,0,
00:04.1,0.003519058,-0.004972458,0.004795074,0,
00:04.1,0.003519058,-0.004972458,0.004795074,0,
00:04.1,0.003513336,-0.004983902,0.004789352,0,
00:04.1,0.003513336,-0.004983902,0.004789352,0,
00:04.1,0.003519058,-0.00497818,0.00478363,0,
00:04.1,0.00352478,-0.004972458,0.004795074,0,
00:04.1,0.00352478,-0.004966736,0.004795074,0,
00:04.1,0.00352478,-0.004966736,0.004789352,0,
00:04.1,0.003519058,-0.004972458,0.004789352,0,
00:04.1,0.003513336,-0.004995346,0.004789352,0,
00:04.1,0.003519058,-0.00497818,0.004789352,0,
00:04.1,0.003530502,-0.00494957,0.004789352,0,
00:04.1,0.003530502,-0.004955292,0.004789352,0,
00:04.1,0.003530502,-0.004955292,0.004789352,0,
00:04.1,0.003519058,-0.004972458,0.004795074,0,
00:04.1,0.003513336,-0.004972458,0.004800797,0,
00:04.1,0.003519058,-0.004966736,0.004795074,0,
00:04.1,0.00352478,-0.004955292,0.00478363,0,
00:04.1,0.00352478,-0.00494957,0.004795074,0,
00:04.1,0.00352478,-0.00494957,0.004800797,0,
00:04.1,0.00352478,-0.004955292,0.004800797,0,
00:04.1,0.003519058,-0.004966736,0.004795074,0,
00:04.1,0.003519058,-0.004966736,0.004795074,0,
00:04.1,0.00352478,-0.004955292,0.004789352,0,
00:04.2,0.00352478,-0.00494957,0.004795074,0,
00:04.2,0.00352478,-0.004961014,0.004795074,0,
00:04.2,0.003519058,-0.004961014,0.004800797,0,
00:04.2,0.003519058,-0.004955292,0.004795074,0,
00:04.2,0.003519058,-0.00494957,0.004795074,0,
00:04.2,0.003519058,-0.004955292,0.004800797,0,
00:04.2,0.00352478,-0.00494957,0.004795074,0,
00:04.2,0.00352478,-0.004943848,0.004795074,0,
00:04.2,0.00352478,-0.00494957,0.004789352,0,
00:04.2,0.003519058,-0.004955292,0.00478363,0,
00:04.2,0.003530502,-0.00494957,0.004795074,0,
00:04.2,0.00352478,-0.004943848,0.004795074,0,
00:04.2,0.003519058,-0.004943848,0.004795074,0,
00:04.2,0.003519058,-0.004955292,0.004789352,0,
00:04.2,0.003519058,-0.004966736,0.004789352,0,
00:04.2,0.00352478,-0.004955292,0.004800797,0,
00:04.2,0.00352478,-0.004943848,0.004800797,0,
00:04.2,0.003530502,-0.004926682,0.004795074,0,
00:04.2,0.003536224,-0.004915237,0.004795074,0,
00:04.2,0.003530502,-0.004932404,0.004795074,0,
00:04.2,0.00352478,-0.004932404,0.004789352,0,
00:04.2,0.00352478,-0.004938126,0.004789352,0,
00:04.2,0.00352478,-0.004943848,0.004795074,0,
00:04.2,0.003530502,-0.004938126,0.004800797,0,
00:04.2,0.003530502,-0.004932404,0.004795074,0,
00:04.3,0.00352478,-0.004926682,0.004795074,0,
00:04.3,0.003530502,-0.004926682,0.004795074,0,
00:04.3,0.003530502,-0.004920959,0.004795074,0,
00:04.3,0.003530502,-0.004926682,0.004800797,0,
00:04.3,0.00352478,-0.004932404,0.004795074,0,
00:04.3,0.003530502,-0.004926682,0.004795074,0,
00:04.3,0.003530502,-0.004926682,0.00478363,0,
00:04.3,0.00352478,-0.004932404,0.004800797,0,
00:04.3,0.003519058,-0.004938126,0.004800797,0,
00:04.3,0.00352478,-0.004932404,0.004795074,0,
00:04.3,0.003519058,-0.004932404,0.004789352,0,
00:04.3,0.00352478,-0.004920959,0.004800797,0,
00:04.3,0.00352478,-0.004926682,0.004806519,0,
00:04.3,0.003530502,-0.004926682,0.004800797,0,
00:04.3,0.00352478,-0.004926682,0.004800797,0,
00:04.3,0.00352478,-0.004926682,0.004795074,0,
00:04.3,0.00352478,-0.004926682,0.004795074,0,
00:04.3,0.003530502,-0.004898071,0.004795074,0,
00:04.3,0.003530502,-0.004909515,0.004795074,0,
00:04.3,0.003530502,-0.004909515,0.004795074,0,
00:04.3,0.003530502,-0.004915237,0.004795074,0,
00:04.3,0.003536224,-0.004898071,0.004795074,0,
00:04.3,0.003530502,-0.004903793,0.004800797,0,
00:04.3,0.00352478,-0.004909515,0.004795074,0,
00:04.3,0.003530502,-0.004909515,0.004795074,0,
00:04.4,0.003530502,-0.004903793,0.004800797,0,
00:04.4,0.003530502,-0.004898071,0.004800797,0,
00:04.4,0.00352478,-0.004909515,0.004795074,0,
00:04.4,0.003519058,-0.004920959,0.004795074,0,
00:04.4,0.00352478,-0.004903793,0.004795074,0,
00:04.4,0.003536224,-0.004886627,0.004800797,0,
00:04.4,0.003536224,-0.004892349,0.004800797,0,
00:04.4,0.003536224,-0.004892349,0.004795074,0,
00:04.4,0.003530502,-0.004892349,0.004795074,0,
00:04.4,0.00352478,-0.004903793,0.004795074,0,
00:04.4,0.003519058,-0.004909515,0.004795074,0,
00:04.4,0.00352478,-0.004898071,0.004800797,0,
00:04.4,0.003536224,-0.004880905,0.004800797,0,
00:04.4,0.003536224,-0.004880905,0.004806519,0,
00:04.4,0.003536224,-0.004880905,0.004795074,0,
00:04.4,0.003530502,-0.004898071,0.004789352,0,
00:04.4,0.003536224,-0.004898071,0.004795074,0,
00:04.4,0.003536224,-0.004880905,0.004800797,0,
00:04.4,0.003536224,-0.004869461,0.004806519,0,
00:04.4,0.003530502,-0.004880905,0.004800797,0,
00:04.4,0.003536224,-0.004875183,0.004800797,0,
00:04.4,0.003536224,-0.004863739,0.004800797,0,
00:04.4,0.00352478,-0.004886627,0.004795074,0,
00:04.4,0.00352478,-0.004880905,0.004800797,0,
00:04.4,0.003536224,-0.004869461,0.004795074,0,
00:04.5,0.003536224,-0.004863739,0.004795074,0,
00:04.5,0.003536224,-0.004863739,0.004795074,0,
00:04.5,0.003536224,-0.004858017,0.004800797,0,
00:04.5,0.003536224,-0.004869461,0.004795074,0,
00:04.5,0.003530502,-0.004875183,0.004789352,0,
00:04.5,0.003530502,-0.004880905,0.004795074,0,
00:04.5,0.003536224,-0.004875183,0.004800797,0,
00:04.5,0.003541946,-0.004858017,0.004795074,0,
00:04.5,0.003541946,-0.004852295,0.004795074,0,
00:04.5,0.003536224,-0.004858017,0.004795074,0,
00:04.5,0.003536224,-0.004863739,0.004789352,0,
00:04.5,0.003530502,-0.004863739,0.004777908,0,
00:04.5,0.003530502,-0.004869461,0.004800797,0,
00:04.5,0.00352478,-0.004875183,0.004800797,0,
00:04.5,0.00352478,-0.004875183,0.004795074,0,
00:04.5,0.003536224,-0.004852295,0.004795074,0,
00:04.5,0.003541946,-0.004835129,0.004795074,0,
00:04.5,0.003547668,-0.004835129,0.004795074,0,
00:04.5,0.003547668,-0.004835129,0.004789352,0,
00:04.5,0.003547668,-0.004846573,0.004795074,0,
00:04.5,0.003541946,-0.004852295,0.004800797,0,
00:04.5,0.003541946,-0.004840851,0.004795074,0,
00:04.5,0.003536224,-0.004846573,0.004795074,0,
00:04.5,0.003530502,-0.004863739,0.004795074,0,
00:04.5,0.003530502,-0.004863739,0.004789352,0,
00:04.6,0.003541946,-0.004840851,0.004789352,0,
00:04.6,0.003547668,-0.004835129,0.004789352,0,
00:04.6,0.003541946,-0.004835129,0.004795074,0,
00:04.6,0.003547668,-0.004829407,0.004795074,0,
00:04.6,0.003547668,-0.004840851,0.004789352,0,
00:04.6,0.003536224,-0.004852295,0.004795074,0,
00:04.6,0.003536224,-0.004852295,0.004800797,0,
00:04.6,0.003547668,-0.004829407,0.004795074,0,
00:04.6,0.003559113,-0.004806519,0.004789352,0,
00:04.6,0.003547668,-0.004823685,0.004789352,0,
00:04.6,0.003541946,-0.004823685,0.004789352,0,
00:04.6,0.003541946,-0.004823685,0.004795074,0,
00:04.6,0.003547668,-0.004823685,0.004795074,0,
00:04.6,0.003541946,-0.004823685,0.004795074,0,
00:04.6,0.003536224,-0.004840851,0.004795074,0,
00:04.6,0.003530502,-0.004846573,0.004789352,0,
00:04.6,0.003547668,-0.004823685,0.004789352,0,
00:04.6,0.003547668,-0.004829407,0.004789352,0,
00:04.6,0.003547668,-0.004829407,0.004789352,0,
00:04.6,0.003553391,-0.004817963,0.004795074,0,
00:04.6,0.003553391,-0.004812241,0.004795074,0,
00:04.6,0.003553391,-0.004817963,0.004789352,0,
00:04.6,0.003547668,-0.004823685,0.00478363,0,
00:04.6,0.003541946,-0.004840851,0.004789352,0,
00:04.6,0.003553391,-0.004829407,0.004800797,0,
00:04.7,0.003559113,-0.004812241,0.004789352,0,
00:04.7,0.003553391,-0.004817963,0.004789352,0,
00:04.7,0.003553391,-0.004823685,0.004795074,0,
00:04.7,0.003559113,-0.004823685,0.004800797,0,
00:04.7,0.003553391,-0.004829407,0.004795074,0,
00:04.7,0.003547668,-0.004829407,0.004795074,0,
00:04.7,0.003547668,-0.004835129,0.004789352,0,
00:04.7,0.003547668,-0.004829407,0.004789352,0,
00:04.7,0.003547668,-0.004823685,0.004795074,0,
00:04.7,0.003559113,-0.004812241,0.004789352,0,
00:04.7,0.003559113,-0.004806519,0.004789352,0,
00:04.7,0.003541946,-0.004835129,0.004789352,0,
00:04.7,0.003541946,-0.004835129,0.004789352,0,
00:04.7,0.003564835,-0.004800797,0.004789352,0,
00:04.7,0.003559113,-0.004800797,0.004777908,0,
00:04.7,0.003559113,-0.004800797,0.004777908,0,
00:04.7,0.003559113,-0.004806519,0.004806519,0,
00:04.7,0.003553391,-0.004817963,0.004795074,0,
00:04.7,0.003547668,-0.004829407,0.004789352,0,
00:04.7,0.003541946,-0.004835129,0.004795074,0,
00:04.7,0.003541946,-0.004835129,0.004795074,0,
00:04.7,0.003559113,-0.004800797,0.004795074,0,
00:04.7,0.003564835,-0.004789352,0.004795074,0,
00:04.7,0.003559113,-0.004800797,0.004795074,0,
00:04.7,0.003559113,-0.004800797,0.004789352,0,
00:04.8,0.003553391,-0.004806519,0.004795074,0,
00:04.8,0.003541946,-0.004823685,0.004795074,0,
00:04.8,0.003541946,-0.004823685,0.004795074,0,
00:04.8,0.003541946,-0.004812241,0.004789352,0,
00:04.8,0.003553391,-0.004800797,0.004800797,0,
00:04.8,0.003553391,-0.004795074,0.004795074,0,
00:04.8,0.003547668,-0.004800797,0.004800797,0,
00:04.8,0.003547668,-0.004800797,0.004800797,0,
00:04.8,0.003559113,-0.00478363,0.004789352,0,
00:04.8,0.003553391,-0.004789352,0.004795074,0,
00:04.8,0.003553391,-0.004795074,0.004795074,0,
00:04.8,0.003547668,-0.004800797,0.004789352,0,
00:04.8,0.003547668,-0.004800797,0.004795074,0,
00:04.8,0.003553391,-0.004789352,0.004789352,0,
00:04.8,0.003553391,-0.004777908,0.004795074,0,
00:04.8,0.003553391,-0.004795074,0.004795074,0,
00:04.8,0.003553391,-0.004789352,0.004795074,0,
00:04.8,0.003553391,-0.00478363,0.004795074,0,
00:04.8,0.003553391,-0.00478363,0.004795074,0,
00:04.8,0.003553391,-0.00478363,0.004789352,0,
00:04.8,0.003547668,-0.004789352,0.004789352,0,
00:04.8,0.003547668,-0.004789352,0.004789352,0,
00:04.8,0.003547668,-0.004777908,0.004795074,0,
00:04.8,0.003547668,-0.00478363,0.004795074,0,
00:04.8,0.003547668,-0.004777908,0.004795074,0,
00:04.9,0.003547668,-0.00478363,0.004795074,0,
00:04.9,0.003541946,-0.004789352,0.004789352,0,
00:04.9,0.003541946,-0.004789352,0.004795074,0,
00:04.9,0.003547668,-0.004772186,0.004795074,0,
00:04.9,0.003553391,-0.004760742,0.004777908,0,
00:04.9,0.003553391,-0.004766464,0.004800797,0,
00:04.9,0.003547668,-0.004772186,0.004806519,0,
00:04.9,0.003547668,-0.004766464,0.004800797,0,
00:04.9,0.003541946,-0.00478363,0.004795074,0,
00:04.9,0.003541946,-0.00478363,0.004795074,0,
00:04.9,0.003553391,-0.004766464,0.004795074,0,
00:04.9,0.003553391,-0.004760742,0.004795074,0,
00:04.9,0.003547668,-0.004760742,0.004789352,0,
00:04.9,0.003547668,-0.004760742,0.004789352,0,
00:04.9,0.003553391,-0.004772186,0.004800797,0,
00:04.9,0.003547668,-0.004777908,0.004800797,0,
00:04.9,0.003547668,-0.004772186,0.004795074,0,
00:04.9,0.003547668,-0.00475502,0.004800797,0,
00:04.9,0.003547668,-0.00475502,0.004795074,0,
00:04.9,0.003547668,-0.00475502,0.004795074,0,
00:04.9,0.003547668,-0.004772186,0.004795074,0,
00:04.9,0.003547668,-0.004760742,0.004800797,0,
00:04.9,0.003547668,-0.00475502,0.004795074,0,
00:04.9,0.003547668,-0.00475502,0.004795074,0,
00:04.9,0.003553391,-0.004749298,0.004795074,0,
00:05.0,0.003553391,-0.004749298,0.004795074,0,
00:05.0,0.003547668,-0.004749298,0.004812241,0,
00:05.0,0.003547668,-0.004743576,0.004806519,0,
00:05.0,0.003541946,-0.004737854,0.004800797,0,
00:05.0,0.003547668,-0.004737854,0.004800797,0,
00:05.0,0.003547668,-0.004743576,0.004800797,0,
00:05.0,0.003530502,-0.004766464,0.004800797,0,
00:05.0,0.00352478,-0.004777908,0.004800797,0,
00:05.0,0.003541946,-0.00475502,0.004800797,0,
00:05.0,0.003553391,-0.00472641,0.004795074,0,
00:05.0,0.003559113,-0.004720688,0.004795074,0,
00:05.0,0.003553391,-0.004732132,0.004800797,0,
00:00:05,0.003547668,-0.004743576,0.004812241,0,
00:05.0,0.003547668,-0.004737854,0.004800797,0,
00:05.0,0.003547668,-0.004732132,0.004800797,0,
00:05.0,0.003547668,-0.004743576,0.004806519,0,
00:05.0,0.003553391,-0.004737854,0.004800797,0,
00:05.0,0.003547668,-0.004737854,0.004795074,0,
00:05.0,0.003547668,-0.004732132,0.00478363,0,
00:05.0,0.003547668,-0.00472641,0.004806519,0,
00:05.0,0.003541946,-0.004732132,0.004812241,0,
00:05.0,0.003536224,-0.004743576,0.004800797,0,
00:05.0,0.003541946,-0.004732132,0.004800797,0,
00:05.0,0.003547668,-0.004720688,0.004800797,0,
00:05.0,0.003547668,-0.004720688,0.004806519,0,
00:05.1,0.003541946,-0.004720688,0.004800797,0,
00:05.1,0.003541946,-0.00472641,0.004800797,0,
00:05.1,0.003541946,-0.00472641,0.004800797,0,
00:05.1,0.003541946,-0.00472641,0.004800797,0,
00:05.1,0.003536224,-0.00472641,0.004800797,0,
00:05.1,0.003541946,-0.004720688,0.004800797,0,
00:05.1,0.003541946,-0.004732132,0.004800797,0,
00:05.1,0.003536224,-0.004743576,0.004806519,0,
00:05.1,0.003536224,-0.00472641,0.004800797,0,
00:05.1,0.003541946,-0.004709244,0.004789352,0,
00:05.1,0.003547668,-0.004703522,0.004795074,0,
00:05.1,0.003547668,-0.0046978,0.004812241,0,
00:05.1,0.003541946,-0.004720688,0.004812241,0,
00:05.1,0.003541946,-0.004714966,0.004806519,0,
00:05.1,0.003541946,-0.004714966,0.004806519,0,
00:05.1,0.003541946,-0.004720688,0.004800797,0,
00:05.1,0.003536224,-0.00472641,0.004800797,0,
00:05.1,0.003536224,-0.00472641,0.004800797,0,
00:05.1,0.003536224,-0.004720688,0.004795074,0,
00:05.1,0.003547668,-0.004703522,0.004800797,0,
00:05.1,0.003553391,-0.0046978,0.004806519,0,
00:05.1,0.003547668,-0.004703522,0.004806519,0,
00:05.1,0.003547668,-0.0046978,0.004806519,0,
00:05.1,0.003541946,-0.004714966,0.004800797,0,
00:05.1,0.003536224,-0.004720688,0.004800797,0,
00:05.2,0.003536224,-0.00472641,0.004800797,0,
00:05.2,0.003536224,-0.004714966,0.004800797,0,
00:05.2,0.003541946,-0.004709244,0.004800797,0,
00:05.2,0.003541946,-0.004709244,0.004800797,0,
00:05.2,0.003541946,-0.004714966,0.004806519,0,
00:05.2,0.003536224,-0.004714966,0.004806519,0,
00:05.2,0.003541946,-0.004703522,0.004800797,0,
00:05.2,0.003547668,-0.0046978,0.004800797,0,
00:05.2,0.003547668,-0.0046978,0.004800797,0,
00:05.2,0.003541946,-0.004709244,0.004795074,0,
00:05.2,0.003541946,-0.004703522,0.004800797,0,
00:05.2,0.003541946,-0.004709244,0.004806519,0,
00:05.2,0.003530502,-0.004720688,0.004800797,0,
00:05.2,0.003536224,-0.004709244,0.004800797,0,
00:05.2,0.003553391,-0.004686356,0.004795074,0,
00:05.2,0.003547668,-0.004692078,0.004795074,0,
00:05.2,0.003547668,-0.0046978,0.004800797,0,
00:05.2,0.003541946,-0.0046978,0.004800797,0,
00:05.2,0.003541946,-0.004703522,0.004795074,0,
00:05.2,0.003530502,-0.004709244,0.004795074,0,
00:05.2,0.003536224,-0.004703522,0.004795074,0,
00:05.2,0.003547668,-0.004692078,0.004800797,0,
00:05.2,0.003541946,-0.0046978,0.004795074,0,
00:05.2,0.003530502,-0.00472641,0.004800797,0,
00:05.2,0.003536224,-0.004709244,0.004800797,0,
00:05.3,0.003547668,-0.004686356,0.004795074,0,
00:05.3,0.003541946,-0.004686356,0.004800797,0,
00:05.3,0.003536224,-0.0046978,0.004795074,0,
00:05.3,0.003541946,-0.0046978,0.004795074,0,
00:05.3,0.003547668,-0.004692078,0.004800797,0,
00:05.3,0.003541946,-0.004692078,0.004806519,0,
00:05.3,0.003541946,-0.004703522,0.004800797,0,
00:05.3,0.003536224,-0.004709244,0.004795074,0,
00:05.3,0.003536224,-0.004703522,0.004806519,0,
00:05.3,0.003541946,-0.004692078,0.004812241,0,
00:05.3,0.003541946,-0.004692078,0.004806519,0,
00:05.3,0.003536224,-0.004703522,0.004806519,0,
00:05.3,0.003536224,-0.004703522,0.004800797,0,
00:05.3,0.003536224,-0.004709244,0.004800797,0,
00:05.3,0.003536224,-0.004709244,0.004795074,0,
00:05.3,0.00352478,-0.00472641,0.004806519,0,
00:05.3,0.003530502,-0.004714966,0.004800797,0,
00:05.3,0.003541946,-0.004692078,0.004800797,0,
00:05.3,0.003530502,-0.004703522,0.004800797,0,
00:05.3,0.003530502,-0.004714966,0.004806519,0,
00:05.3,0.003536224,-0.0046978,0.004806519,0,
00:05.3,0.003536224,-0.004703522,0.004806519,0,
00:05.3,0.003536224,-0.004703522,0.004800797,0,
00:05.3,0.003536224,-0.0046978,0.004800797,0,
00:05.3,0.003541946,-0.004686356,0.004806519,0,
00:05.4,0.003541946,-0.004692078,0.004806519,0,
00:05.4,0.003536224,-0.0046978,0.004806519,0,
00:05.4,0.00352478,-0.004709244,0.004800797,0,
00:05.4,0.00352478,-0.004714966,0.004800797,0,
00:05.4,0.003536224,-0.0046978,0.004795074,0,
00:05.4,0.003536224,-0.004692078,0.004812241,0,
00:05.4,0.003530502,-0.0046978,0.004812241,0,
00:05.4,0.003530502,-0.004692078,0.004806519,0,
00:05.4,0.003530502,-0.004686356,0.004806519,0,
00:05.4,0.00352478,-0.004703522,0.004800797,0,
00:05.4,0.003530502,-0.004703522,0.004806519,0,
00:05.4,0.00352478,-0.004703522,0.004812241,0,
00:05.4,0.003530502,-0.004703522,0.004806519,0,
00:05.4,0.003530502,-0.004703522,0.004806519,0,
00:05.4,0.003530502,-0.0046978,0.004806519,0,
00:05.4,0.003530502,-0.004703522,0.004806519,0,
00:05.4,0.00352478,-0.004709244,0.004812241,0,
00:05.4,0.00352478,-0.004714966,0.004806519,0,
00:05.4,0.00352478,-0.004703522,0.004806519,0,
00:05.4,0.003536224,-0.004680634,0.004806519,0,
00:05.4,0.003541946,-0.004692078,0.004806519,0,
00:05.4,0.003536224,-0.004692078,0.004812241,0,
00:05.4,0.003530502,-0.0046978,0.004812241,0,
00:05.4,0.003530502,-0.0046978,0.004812241,0,
00:05.4,0.003530502,-0.0046978,0.004806519,0,
00:05.5,0.003530502,-0.0046978,0.004806519,0,
00:05.5,0.003530502,-0.004692078,0.004806519,0,
00:05.5,0.00352478,-0.004709244,0.004806519,0,
00:05.5,0.00352478,-0.004720688,0.004812241,0,
00:05.5,0.003536224,-0.004692078,0.004812241,0,
00:05.5,0.003530502,-0.004686356,0.004812241,0,
00:05.5,0.003530502,-0.0046978,0.004817963,0,
00:05.5,0.003536224,-0.004703522,0.004812241,0,
00:05.5,0.003530502,-0.004703522,0.004806519,0,
00:05.5,0.00352478,-0.004714966,0.004806519,0,
00:05.5,0.00352478,-0.00472641,0.004806519,0,
00:05.5,0.003536224,-0.004703522,0.004817963,0,
00:05.5,0.003536224,-0.0046978,0.004817963,0,
00:05.5,0.003519058,-0.00472641,0.004812241,0,
00:05.5,0.003519058,-0.00472641,0.004812241,0,
00:05.5,0.003530502,-0.004703522,0.004817963,0,
00:05.5,0.003536224,-0.004692078,0.004812241,0,
00:05.5,0.003536224,-0.004703522,0.004817963,0,
00:05.5,0.003530502,-0.0046978,0.004817963,0,
00:05.5,0.00352478,-0.004709244,0.004812241,0,
00:05.5,0.00352478,-0.004709244,0.004817963,0,
00:05.5,0.003519058,-0.004714966,0.004823685,0,
00:05.5,0.003519058,-0.004714966,0.004817963,0,
00:05.5,0.003530502,-0.004709244,0.004812241,0,
00:05.5,0.003530502,-0.004709244,0.004817963,0,
00:05.6,0.00352478,-0.004714966,0.004823685,0,
00:05.6,0.00352478,-0.004709244,0.004817963,0,
00:05.6,0.00352478,-0.004714966,0.004823685,0,
00:05.6,0.00352478,-0.004714966,0.004812241,0,
00:05.6,0.00352478,-0.004703522,0.004817963,0,
00:05.6,0.00352478,-0.004714966,0.004829407,0,
00:05.6,0.00352478,-0.004720688,0.004829407,0,
00:05.6,0.00352478,-0.004714966,0.004829407,0,
00:05.6,0.00352478,-0.004720688,0.004829407,0,
00:05.6,0.00352478,-0.004714966,0.004823685,0,
00:05.6,0.003530502,-0.004703522,0.004823685,0,
00:05.6,0.00352478,-0.004709244,0.004829407,0,
00:05.6,0.003519058,-0.004720688,0.004829407,0,
00:05.6,0.003519058,-0.004732132,0.004829407,0,
00:05.6,0.003519058,-0.004732132,0.004829407,0,
00:05.6,0.00352478,-0.004709244,0.004829407,0,
00:05.6,0.003536224,-0.004703522,0.004829407,0,
00:05.6,0.00352478,-0.004714966,0.004823685,0,
00:05.6,0.00352478,-0.00472641,0.004829407,0,
00:05.6,0.00352478,-0.004720688,0.004835129,0,
00:05.6,0.003519058,-0.004720688,0.004835129,0,
00:05.6,0.003519058,-0.00472641,0.004829407,0,
00:05.6,0.003519058,-0.004732132,0.004835129,0,
00:05.6,0.003519058,-0.004732132,0.004829407,0,
00:05.6,0.00352478,-0.004720688,0.004829407,0,
00:05.7,0.003519058,-0.004732132,0.004823685,0,
00:05.7,0.003513336,-0.004743576,0.004835129,0,
00:05.7,0.003519058,-0.004737854,0.004835129,0,
00:05.7,0.00352478,-0.004720688,0.004829407,0,
00:05.7,0.00352478,-0.004720688,0.004823685,0,
00:05.7,0.00352478,-0.004732132,0.004840851,0,
00:05.7,0.003519058,-0.004743576,0.004835129,0,
00:05.7,0.003507614,-0.00475502,0.004840851,0,
00:05.7,0.003513336,-0.004749298,0.004840851,0,
00:05.7,0.003519058,-0.004732132,0.004840851,0,
00:05.7,0.00352478,-0.004732132,0.004835129,0,
00:05.7,0.00352478,-0.004732132,0.004840851,0,
00:05.7,0.003519058,-0.004743576,0.004840851,0,
00:05.7,0.003513336,-0.004760742,0.004840851,0,
00:05.7,0.003507614,-0.004760742,0.004835129,0,
00:05.7,0.003519058,-0.004743576,0.004835129,0,
00:05.7,0.003519058,-0.004743576,0.004846573,0,
00:05.7,0.003507614,-0.004760742,0.004846573,0,
00:05.7,0.003513336,-0.004772186,0.004846573,0,
00:05.7,0.003513336,-0.00475502,0.004846573,0,
00:05.7,0.00352478,-0.004737854,0.004846573,0,
00:05.7,0.003519058,-0.004749298,0.004835129,0,
00:05.7,0.003519058,-0.00475502,0.004840851,0,
00:05.7,0.003513336,-0.004766464,0.004840851,0,
00:05.7,0.003519058,-0.004766464,0.004846573,0,
00:05.8,0.003519058,-0.004766464,0.004852295,0,
00:05.8,0.00352478,-0.004749298,0.004852295,0,
00:05.8,0.003519058,-0.004749298,0.004852295,0,
00:05.8,0.003513336,-0.004766464,0.004846573,0,
00:05.8,0.003513336,-0.004772186,0.004846573,0,
00:05.8,0.003513336,-0.004777908,0.004852295,0,
00:05.8,0.003507614,-0.00478363,0.004852295,0,
00:05.8,0.003519058,-0.004760742,0.004852295,0,
00:05.8,0.003519058,-0.004760742,0.004852295,0,
00:05.8,0.003513336,-0.004766464,0.004858017,0,
00:05.8,0.003513336,-0.004777908,0.004858017,0,
00:05.8,0.003513336,-0.00478363,0.004852295,0,
00:05.8,0.003513336,-0.00478363,0.004858017,0,
00:05.8,0.003513336,-0.004777908,0.004858017,0,
00:05.8,0.003519058,-0.004766464,0.004852295,0,
00:05.8,0.003519058,-0.004777908,0.004858017,0,
00:05.8,0.003513336,-0.004789352,0.004863739,0,
00:05.8,0.003507614,-0.004806519,0.004863739,0,
00:05.8,0.003513336,-0.004789352,0.004858017,0,
00:05.8,0.003519058,-0.00478363,0.004858017,0,
00:05.8,0.003519058,-0.004795074,0.004858017,0,
00:05.8,0.003519058,-0.004789352,0.004863739,0,
00:05.8,0.003513336,-0.004789352,0.004869461,0,
00:05.8,0.003513336,-0.004795074,0.004863739,0,
00:05.8,0.003513336,-0.004806519,0.004869461,0,
00:05.9,0.003513336,-0.004812241,0.004863739,0,
00:05.9,0.003507614,-0.004823685,0.004869461,0,
00:05.9,0.00349617,-0.004840851,0.004869461,0,
00:05.9,0.003507614,-0.004823685,0.004863739,0,
00:05.9,0.003519058,-0.004800797,0.004869461,0,
00:05.9,0.003519058,-0.004806519,0.004863739,0,
00:05.9,0.00352478,-0.004795074,0.004869461,0,
00:05.9,0.00352478,-0.004800797,0.004869461,0,
00:05.9,0.003519058,-0.004806519,0.004869461,0,
00:05.9,0.003513336,-0.004817963,0.004869461,0,
00:05.9,0.003507614,-0.004835129,0.004875183,0,
00:05.9,0.003507614,-0.004835129,0.004869461,0,
00:05.9,0.003507614,-0.004829407,0.004869461,0,
00:05.9,0.003513336,-0.004823685,0.004869461,0,
00:05.9,0.003513336,-0.004823685,0.004880905,0,
00:05.9,0.003507614,-0.004823685,0.004880905,0,
00:05.9,0.003507614,-0.004835129,0.004875183,0,
00:05.9,0.003507614,-0.004846573,0.004875183,0,
00:05.9,0.003507614,-0.004840851,0.004875183,0,
00:05.9,0.003507614,-0.004846573,0.004875183,0,
00:05.9,0.003513336,-0.004835129,0.004875183,0,
00:05.9,0.003513336,-0.004835129,0.004880905,0,
00:05.9,0.003507614,-0.004840851,0.004880905,0,
00:05.9,0.003507614,-0.004852295,0.004869461,0,
00:05.9,0.003507614,-0.004863739,0.004869461,0,
00:06.0,0.003513336,-0.004858017,0.004875183,0,
00:06.0,0.003507614,-0.004863739,0.004880905,0,
00:06.0,0.003513336,-0.004852295,0.004875183,0,
00:06.0,0.003519058,-0.004835129,0.004875183,0,
00:06.0,0.003519058,-0.004840851,0.004875183,0,
00:06.0,0.003519058,-0.004846573,0.004869461,0,
00:06.0,0.003513336,-0.004858017,0.004869461,0,
00:06.0,0.003507614,-0.004869461,0.004880905,0,
00:06.0,0.003501892,-0.004880905,0.004875183,0,
00:06.0,0.003513336,-0.004863739,0.004875183,0,
00:06.0,0.00352478,-0.004852295,0.004880905,0,
00:06.0,0.00352478,-0.004852295,0.004875183,0,
00:00:06,0.003519058,-0.004863739,0.004875183,0,
00:06.0,0.003519058,-0.004863739,0.004869461,0,
00:06.0,0.003519058,-0.004869461,0.004869461,0,
00:06.0,0.003513336,-0.004886627,0.004880905,0,
00:06.0,0.003513336,-0.004880905,0.004880905,0,
00:06.0,0.003519058,-0.004869461,0.004875183,0,
00:06.0,0.00352478,-0.004852295,0.004880905,0,
00:06.0,0.003519058,-0.004863739,0.004880905,0,
00:06.0,0.003519058,-0.004875183,0.004875183,0,
00:06.0,0.003513336,-0.004880905,0.004875183,0,
00:06.0,0.003513336,-0.004880905,0.004886627,0,
00:06.0,0.00352478,-0.004880905,0.004880905,0,
00:06.0,0.00352478,-0.004880905,0.004892349,0,
00:06.1,0.003519058,-0.004886627,0.004886627,0,
00:06.1,0.003513336,-0.004892349,0.004886627,0,
00:06.1,0.003513336,-0.004892349,0.004880905,0,
00:06.1,0.003513336,-0.004892349,0.004880905,0,
00:06.1,0.003507614,-0.004898071,0.004886627,0,
00:06.1,0.003507614,-0.004909515,0.004880905,0,
00:06.1,0.003513336,-0.004903793,0.004886627,0,
00:06.1,0.003519058,-0.004886627,0.004886627,0,
00:06.1,0.003519058,-0.004892349,0.004886627,0,
00:06.1,0.003507614,-0.004898071,0.004892349,0,
00:06.1,0.003501892,-0.004915237,0.004892349,0,
00:06.1,0.003507614,-0.004903793,0.004886627,0,
00:06.1,0.003513336,-0.004903793,0.004886627,0,
00:06.1,0.003507614,-0.004909515,0.004898071,0,
00:06.1,0.003513336,-0.004898071,0.004898071,0,
00:06.1,0.00352478,-0.004880905,0.004898071,0,
00:06.1,0.00352478,-0.004886627,0.004892349,0,
00:06.1,0.003513336,-0.004898071,0.004892349,0,
00:06.1,0.003513336,-0.004915237,0.004886627,0,
00:06.1,0.003507614,-0.004926682,0.004898071,0,
00:06.1,0.003501892,-0.004920959,0.004903793,0,
00:06.1,0.003513336,-0.004915237,0.004898071,0,
00:06.1,0.003507614,-0.004915237,0.004898071,0,
00:06.1,0.003519058,-0.004909515,0.004892349,0,
00:06.1,0.003519058,-0.004909515,0.004898071,0,
00:06.2,0.003513336,-0.004920959,0.004898071,0,
00:06.2,0.003513336,-0.004920959,0.004898071,0,
00:06.2,0.00352478,-0.004915237,0.004892349,0,
00:06.2,0.003519058,-0.004920959,0.004898071,0,
00:06.2,0.003519058,-0.004932404,0.004903793,0,
00:06.2,0.003507614,-0.004932404,0.004903793,0,
00:06.2,0.003507614,-0.004938126,0.004903793,0,
00:06.2,0.003513336,-0.004926682,0.004898071,0,
00:06.2,0.003507614,-0.004926682,0.004898071,0,
00:06.2,0.003519058,-0.004915237,0.004898071,0,
00:06.2,0.00352478,-0.004909515,0.004898071,0,
00:06.2,0.00352478,-0.004909515,0.004898071,0,
00:06.2,0.00352478,-0.004915237,0.004903793,0,
00:06.2,0.003519058,-0.004932404,0.004903793,0,
00:06.2,0.003513336,-0.004938126,0.004903793,0,
00:06.2,0.003513336,-0.004932404,0.004909515,0,
00:06.2,0.003513336,-0.004938126,0.004909515,0,
00:06.2,0.003519058,-0.004932404,0.004903793,0,
00:06.2,0.00352478,-0.004915237,0.004903793,0,
00:06.2,0.00352478,-0.004920959,0.004903793,0,
00:06.2,0.00352478,-0.004926682,0.004909515,0,
00:06.2,0.003519058,-0.004926682,0.004909515,0,
00:06.2,0.003519058,-0.004926682,0.004903793,0,
00:06.2,0.00352478,-0.004926682,0.004903793,0,
00:06.2,0.00352478,-0.004926682,0.004909515,0,
00:06.3,0.003513336,-0.004932404,0.004909515,0,
00:06.3,0.003513336,-0.004938126,0.004903793,0,
00:06.3,0.003519058,-0.004938126,0.004909515,0,
00:06.3,0.003519058,-0.004943848,0.004909515,0,
00:06.3,0.00352478,-0.004932404,0.004903793,0,
00:06.3,0.003519058,-0.004926682,0.004903793,0,
00:06.3,0.003519058,-0.004938126,0.004898071,0,
00:06.3,0.003519058,-0.004938126,0.004915237,0,
00:06.3,0.003513336,-0.00494957,0.004909515,0,
00:06.3,0.003519058,-0.004926682,0.004898071,0,
00:06.3,0.00352478,-0.004926682,0.004903793,0,
00:06.3,0.00352478,-0.004920959,0.004909515,0,
00:06.3,0.003530502,-0.004920959,0.004909515,0,
00:06.3,0.00352478,-0.004943848,0.004909515,0,
00:06.3,0.003519058,-0.00494957,0.004909515,0,
00:06.3,0.003513336,-0.004955292,0.004909515,0,
00:06.3,0.003519058,-0.00494957,0.004903793,0,
00:06.3,0.003536224,-0.004920959,0.004903793,0,
00:06.3,0.003530502,-0.004926682,0.004903793,0,
00:06.3,0.00352478,-0.004943848,0.004903793,0,
00:06.3,0.00352478,-0.004943848,0.004909515,0,
00:06.3,0.003530502,-0.004938126,0.004909515,0,
00:06.3,0.00352478,-0.004943848,0.004903793,0,
00:06.3,0.00352478,-0.00494957,0.004903793,0,
00:06.3,0.003519058,-0.00494957,0.004898071,0,
00:06.4,0.00352478,-0.004955292,0.004898071,0,
00:06.4,0.003530502,-0.00494957,0.004909515,0,
00:06.4,0.003530502,-0.00494957,0.004915237,0,
00:06.4,0.00352478,-0.004955292,0.004909515,0,
00:06.4,0.003519058,-0.00494957,0.004909515,0,
00:06.4,0.00352478,-0.004955292,0.004903793,0,
00:06.4,0.00352478,-0.004961014,0.004903793,0,
00:06.4,0.00352478,-0.004955292,0.004903793,0,
00:06.4,0.003519058,-0.004955292,0.004909515,0,
00:06.4,0.003519058,-0.004955292,0.004909515,0,
00:06.4,0.003519058,-0.004955292,0.004903793,0,
00:06.4,0.00352478,-0.00494957,0.004909515,0,
00:06.4,0.00352478,-0.004938126,0.004903793,0,
00:06.4,0.00352478,-0.004943848,0.004903793,0,
00:06.4,0.003530502,-0.00494957,0.004903793,0,
00:06.4,0.003519058,-0.004961014,0.004903793,0,
00:06.4,0.00352478,-0.004966736,0.004903793,0,
00:06.4,0.00352478,-0.004955292,0.004903793,0,
00:06.4,0.003530502,-0.004938126,0.004903793,0,
00:06.4,0.003536224,-0.004938126,0.004903793,0,
00:06.4,0.003530502,-0.00494957,0.004903793,0,
00:06.4,0.003519058,-0.004966736,0.004909515,0,
00:06.4,0.003513336,-0.004972458,0.004909515,0,
00:06.4,0.00352478,-0.00494957,0.004903793,0,
00:06.4,0.003530502,-0.00494957,0.004915237,0,
00:06.5,0.003536224,-0.004955292,0.004909515,0,
00:06.5,0.003530502,-0.004961014,0.004903793,0,
00:06.5,0.00352478,-0.004966736,0.004909515,0,
00:06.5,0.00352478,-0.00497818,0.004909515,0,
00:06.5,0.003530502,-0.004972458,0.004915237,0,
00:06.5,0.003530502,-0.004966736,0.004915237,0,
00:06.5,0.00352478,-0.004972458,0.004915237,0,
00:06.5,0.003530502,-0.004955292,0.004915237,0,
00:06.5,0.003541946,-0.00494957,0.004903793,0,
00:06.5,0.00352478,-0.004972458,0.004915237,0,
00:06.5,0.003519058,-0.004983902,0.004915237,0,
00:06.5,0.003530502,-0.004966736,0.004915237,0,
00:06.5,0.003541946,-0.004955292,0.004909515,0,
00:06.5,0.003541946,-0.004961014,0.004915237,0,
00:06.5,0.003536224,-0.004972458,0.004915237,0,
00:06.5,0.003530502,-0.00497818,0.004915237,0,
00:06.5,0.003536224,-0.00497818,0.004915237,0,
00:06.5,0.003536224,-0.00497818,0.004909515,0,
00:06.5,0.003536224,-0.004983902,0.004903793,0,
00:06.5,0.003530502,-0.00497818,0.004909515,0,
00:06.5,0.003536224,-0.004983902,0.004909515,0,
00:06.5,0.003530502,-0.004983902,0.004909515,0,
00:06.5,0.003536224,-0.00497818,0.004903793,0,
00:06.5,0.003530502,-0.004983902,0.004915237,0,
00:06.5,0.003530502,-0.005001068,0.004915237,0,
00:06.6,0.003530502,-0.005001068,0.004915237,0,
00:06.6,0.003530502,-0.004989624,0.004915237,0,
00:06.6,0.003536224,-0.004983902,0.004915237,0,
00:06.6,0.003536224,-0.004989624,0.004909515,0,
00:06.6,0.003530502,-0.004989624,0.004915237,0,
00:06.6,0.003530502,-0.004995346,0.004915237,0,
00:06.6,0.003530502,-0.004995346,0.004915237,0,
00:06.6,0.003536224,-0.004989624,0.004909515,0,
00:06.6,0.003541946,-0.004983902,0.004915237,0,
00:06.6,0.003536224,-0.004989624,0.004920959,0,
00:06.6,0.003536224,-0.005001068,0.004915237,0,
00:06.6,0.003530502,-0.004995346,0.004909515,0,
00:06.6,0.003530502,-0.005001068,0.004915237,0,
00:06.6,0.003541946,-0.005001068,0.004915237,0,
00:06.6,0.003541946,-0.005001068,0.004915237,0,
00:06.6,0.003541946,-0.005001068,0.004915237,0,
00:06.6,0.003541946,-0.004995346,0.004915237,0,
00:06.6,0.003541946,-0.004995346,0.004903793,0,
00:06.6,0.003541946,-0.004995346,0.004898071,0,
00:06.6,0.003541946,-0.005001068,0.004920959,0,
00:06.6,0.003536224,-0.005018234,0.004920959,0,
00:06.6,0.003530502,-0.005029678,0.004915237,0,
00:06.6,0.003536224,-0.005023956,0.004915237,0,
00:06.6,0.003541946,-0.005001068,0.004909515,0,
00:06.6,0.003541946,-0.005012512,0.004915237,0,
00:06.7,0.003541946,-0.005012512,0.004915237,0,
00:06.7,0.003536224,-0.005023956,0.004903793,0,
00:06.7,0.003536224,-0.005029678,0.004903793,0,
00:06.7,0.003541946,-0.005023956,0.004915237,0,
00:06.7,0.003547668,-0.00500679,0.004909515,0,
00:06.7,0.003547668,-0.00500679,0.004915237,0,
00:06.7,0.003547668,-0.005001068,0.004915237,0,
00:06.7,0.003541946,-0.005012512,0.004909515,0,
00:06.7,0.003536224,-0.005023956,0.004909515,0,
00:06.7,0.003530502,-0.0050354,0.004909515,0,
00:06.7,0.003541946,-0.005029678,0.004909515,0,
00:06.7,0.003553391,-0.005012512,0.004909515,0,
00:06.7,0.003553391,-0.005012512,0.004915237,0,
00:06.7,0.003553391,-0.005012512,0.004915237,0,
00:06.7,0.003547668,-0.005012512,0.004909515,0,
00:06.7,0.003541946,-0.005023956,0.004903793,0,
00:06.7,0.003536224,-0.005041122,0.004909515,0,
00:06.7,0.003541946,-0.0050354,0.004915237,0,
00:06.7,0.003547668,-0.005029678,0.004909515,0,
00:06.7,0.003541946,-0.005029678,0.004903793,0,
00:06.7,0.003541946,-0.0050354,0.004903793,0,
00:06.7,0.003541946,-0.005046844,0.004909515,0,
00:06.7,0.003541946,-0.005041122,0.004903793,0,
00:06.7,0.003536224,-0.005046844,0.004915237,0,
00:06.7,0.003536224,-0.005041122,0.004909515,0,
00:06.8,0.003547668,-0.005029678,0.004903793,0,
00:06.8,0.003559113,-0.005012512,0.004915237,0,
00:06.8,0.003553391,-0.005029678,0.004915237,0,
00:06.8,0.003547668,-0.005041122,0.004909515,0,
00:06.8,0.003541946,-0.005052567,0.004909515,0,
00:06.8,0.003536224,-0.005052567,0.004909515,0,
00:06.8,0.003547668,-0.0050354,0.004909515,0,
00:06.8,0.003547668,-0.005041122,0.004915237,0,
00:06.8,0.003547668,-0.005046844,0.004915237,0,
00:06.8,0.003553391,-0.005041122,0.004915237,0,
00:06.8,0.003553391,-0.0050354,0.004909515,0,
00:06.8,0.003553391,-0.005041122,0.004915237,0,
00:06.8,0.003547668,-0.005046844,0.004915237,0,
00:06.8,0.003553391,-0.005046844,0.004909515,0,
00:06.8,0.003553391,-0.005041122,0.004909515,0,
00:06.8,0.003547668,-0.005052567,0.004909515,0,
00:06.8,0.003547668,-0.005069733,0.004909515,0,
00:06.8,0.003541946,-0.005069733,0.004909515,0,
00:06.8,0.003541946,-0.005064011,0.004909515,0,
00:06.8,0.003547668,-0.005064011,0.004909515,0,
00:06.8,0.003547668,-0.005064011,0.004915237,0,
00:06.8,0.003553391,-0.005058289,0.004915237,0,
00:06.8,0.003559113,-0.005052567,0.004915237,0,
00:06.8,0.003559113,-0.005046844,0.004915237,0,
00:06.8,0.003553391,-0.005064011,0.004915237,0,
00:06.9,0.003553391,-0.005058289,0.004915237,0,
00:06.9,0.003553391,-0.005058289,0.004915237,0,
00:06.9,0.003547668,-0.005064011,0.004915237,0,
00:06.9,0.003553391,-0.005064011,0.004915237,0,
00:06.9,0.003553391,-0.005064011,0.004903793,0,
00:06.9,0.003559113,-0.005058289,0.004915237,0,
00:06.9,0.003559113,-0.005064011,0.004920959,0,
00:06.9,0.003547668,-0.005081177,0.004915237,0,
00:06.9,0.003547668,-0.005081177,0.004915237,0,
00:06.9,0.003547668,-0.005069733,0.004920959,0,
00:06.9,0.003553391,-0.005069733,0.004920959,0,
00:06.9,0.003553391,-0.005081177,0.004909515,0,
00:06.9,0.003559113,-0.005075455,0.004920959,0,
00:06.9,0.003559113,-0.005069733,0.004920959,0,
00:06.9,0.003559113,-0.005075455,0.004920959,0,
00:06.9,0.003559113,-0.005075455,0.004920959,0,
00:06.9,0.003553391,-0.005081177,0.004920959,0,
00:06.9,0.003553391,-0.005092621,0.004920959,0,
00:06.9,0.003547668,-0.005098343,0.004915237,0,
00:06.9,0.003541946,-0.005109787,0.004920959,0,
00:06.9,0.003553391,-0.005092621,0.004920959,0,
00:06.9,0.003564835,-0.005069733,0.004920959,0,
00:06.9,0.003564835,-0.005069733,0.004909515,0,
00:06.9,0.003564835,-0.005081177,0.004909515,0,
00:06.9,0.003559113,-0.005086899,0.004926682,0,
00:07.0,0.003553391,-0.005098343,0.004920959,0,
00:07.0,0.003553391,-0.005104065,0.004915237,0,
00:07.0,0.003553391,-0.005104065,0.004909515,0,
00:07.0,0.003559113,-0.005086899,0.004920959,0,
00:07.0,0.003564835,-0.005086899,0.004920959,0,
00:07.0,0.003559113,-0.005092621,0.004915237,0,
00:07.0,0.003553391,-0.005092621,0.004920959,0,
00:07.0,0.003559113,-0.005098343,0.004920959,0,
00:07.0,0.003553391,-0.005104065,0.004920959,0,
00:07.0,0.003559113,-0.005104065,0.004920959,0,
00:07.0,0.003559113,-0.005098343,0.004920959,0,
00:07.0,0.003564835,-0.005092621,0.004920959,0,
00:00:07,0.003564835,-0.005092621,0.004920959,0,
00:07.0,0.003559113,-0.005092621,0.004920959,0,
00:07.0,0.003559113,-0.005098343,0.004920959,0,
00:07.0,0.003553391,-0.005104065,0.004920959,0,
00:07.0,0.003559113,-0.005109787,0.004920959,0,
00:07.0,0.003553391,-0.005115509,0.004926682,0,
00:07.0,0.003559113,-0.005109787,0.004920959,0,
00:07.0,0.003559113,-0.005098343,0.004920959,0,
00:07.0,0.003547668,-0.005121231,0.004926682,0,
00:07.0,0.003547668,-0.005121231,0.004920959,0,
00:07.0,0.003570557,-0.005092621,0.004920959,0,
00:07.0,0.003570557,-0.005086899,0.004926682,0,
00:07.0,0.003570557,-0.005092621,0.004926682,0,
00:07.1,0.003564835,-0.005098343,0.004926682,0,
00:07.1,0.003559113,-0.005104065,0.004926682,0,
00:07.1,0.003559113,-0.005104065,0.004926682,0,
00:07.1,0.003553391,-0.005115509,0.004920959,0,
00:07.1,0.003547668,-0.005126953,0.004926682,0,
00:07.1,0.003559113,-0.005115509,0.004932404,0,
00:07.1,0.003564835,-0.005104065,0.004932404,0,
00:07.1,0.003564835,-0.005098343,0.004932404,0,
00:07.1,0.003559113,-0.005098343,0.004932404,0,
00:07.1,0.003559113,-0.005104065,0.004926682,0,
00:07.1,0.003559113,-0.005109787,0.004926682,0,
00:07.1,0.003559113,-0.005115509,0.004932404,0,
00:07.1,0.003559113,-0.005115509,0.004932404,0,
00:07.1,0.003564835,-0.005115509,0.004932404,0,
00:07.1,0.003564835,-0.005121231,0.004926682,0,
00:07.1,0.003564835,-0.005115509,0.004926682,0,
00:07.1,0.003576279,-0.005104065,0.004932404,0,
00:07.1,0.003576279,-0.005104065,0.004932404,0,
00:07.1,0.003570557,-0.005104065,0.004920959,0,
00:07.1,0.003570557,-0.005109787,0.004926682,0,
00:07.1,0.003559113,-0.005138397,0.004938126,0,
00:07.1,0.003564835,-0.005126953,0.004938126,0,
00:07.1,0.003570557,-0.005109787,0.004932404,0,
00:07.1,0.003570557,-0.005109787,0.004926682,0,
00:07.1,0.003570557,-0.005109787,0.004926682,0,
00:07.2,0.003570557,-0.005121231,0.004932404,0,
00:07.2,0.003564835,-0.005132675,0.004932404,0,
00:07.2,0.003564835,-0.005144119,0.004932404,0,
00:07.2,0.003570557,-0.005126953,0.004932404,0,
00:07.2,0.003576279,-0.005115509,0.004932404,0,
00:07.2,0.003570557,-0.005121231,0.004932404,0,
00:07.2,0.003576279,-0.005126953,0.004932404,0,
00:07.2,0.003582001,-0.005115509,0.004932404,0,
00:07.2,0.003576279,-0.005121231,0.004932404,0,
00:07.2,0.003570557,-0.005126953,0.004920959,0,
00:07.2,0.003576279,-0.005115509,0.004932404,0,
00:07.2,0.003576279,-0.005121231,0.004938126,0,
00:07.2,0.003570557,-0.005126953,0.004932404,0,
00:07.2,0.003570557,-0.005138397,0.004932404,0,
00:07.2,0.003582001,-0.005126953,0.004926682,0,
00:07.2,0.003582001,-0.005132675,0.004932404,0,
00:07.2,0.003576279,-0.005144119,0.004926682,0,
00:07.2,0.003582001,-0.005132675,0.004938126,0,
00:07.2,0.003587723,-0.005121231,0.004932404,0,
00:07.2,0.003587723,-0.005121231,0.004932404,0,
00:07.2,0.003582001,-0.005126953,0.004926682,0,
00:07.2,0.003576279,-0.005132675,0.004932404,0,
00:07.2,0.003576279,-0.005138397,0.004932404,0,
00:07.2,0.003576279,-0.005138397,0.004932404,0,
00:07.2,0.003570557,-0.005144119,0.004932404,0,
00:07.3,0.003576279,-0.005138397,0.004932404,0,
00:07.3,0.003582001,-0.005138397,0.004932404,0,
00:07.3,0.003587723,-0.005138397,0.004926682,0,
00:07.3,0.003587723,-0.005132675,0.004926682,0,
00:07.3,0.003587723,-0.005138397,0.004926682,0,
00:07.3,0.003582001,-0.005155563,0.004938126,0,
00:07.3,0.003582001,-0.005149841,0.004938126,0,
00:07.3,0.003582001,-0.005138397,0.004938126,0,
00:07.3,0.003582001,-0.005144119,0.004932404,0,
00:07.3,0.003587723,-0.005138397,0.004932404,0,
00:07.3,0.003593445,-0.005138397,0.004938126,0,
00:07.3,0.003587723,-0.005149841,0.004932404,0,
00:07.3,0.003582001,-0.005149841,0.004926682,0,
00:07.3,0.003582001,-0.005155563,0.004938126,0,
00:07.3,0.003582001,-0.005155563,0.004938126,0,
00:07.3,0.003587723,-0.005138397,0.004938126,0,
00:07.3,0.003587723,-0.005138397,0.004938126,0,
00:07.3,0.003593445,-0.005132675,0.004932404,0,
00:07.3,0.003593445,-0.005138397,0.004938126,0,
00:07.3,0.003593445,-0.005144119,0.004932404,0,
00:07.3,0.003593445,-0.005149841,0.004932404,0,
00:07.3,0.003587723,-0.005149841,0.004938126,0,
00:07.3,0.003587723,-0.005149841,0.004938126,0,
00:07.3,0.003587723,-0.005144119,0.004932404,0,
00:07.3,0.003593445,-0.005138397,0.004926682,0,
00:07.4,0.003587723,-0.005149841,0.004932404,0,
00:07.4,0.003582001,-0.005161285,0.004932404,0,
00:07.4,0.003582001,-0.005167007,0.004932404,0,
00:07.4,0.003576279,-0.005161285,0.004926682,0,
00:07.4,0.003582001,-0.005155563,0.004938126,0,
00:07.4,0.003593445,-0.005149841,0.004938126,0,
00:07.4,0.003604889,-0.005132675,0.004932404,0,
00:07.4,0.003604889,-0.005138397,0.004926682,0,
00:07.4,0.003593445,-0.005155563,0.004926682,0,
00:07.4,0.003593445,-0.005149841,0.004938126,0,
00:07.4,0.003599167,-0.005138397,0.004938126,0,
00:07.4,0.003599167,-0.005138397,0.004938126,0,
00:07.4,0.003593445,-0.005149841,0.004938126,0,
00:07.4,0.003593445,-0.005155563,0.004938126,0,
00:07.4,0.003593445,-0.005155563,0.004932404,0,
00:07.4,0.003593445,-0.005149841,0.004932404,0,
00:07.4,0.003593445,-0.005144119,0.004926682,0,
00:07.4,0.003599167,-0.005149841,0.004943848,0,
00:07.4,0.003599167,-0.005144119,0.004943848,0,
00:07.4,0.003593445,-0.005149841,0.004943848,0,
00:07.4,0.003593445,-0.005149841,0.004938126,0,
00:07.4,0.003599167,-0.005144119,0.004938126,0,
00:07.4,0.003593445,-0.005149841,0.004932404,0,
00:07.4,0.003593445,-0.005155563,0.004938126,0,
00:07.4,0.003593445,-0.005161285,0.004932404,0,
00:07.5,0.003599167,-0.005144119,0.004926682,0,
00:07.5,0.003604889,-0.005132675,0.004926682,0,
00:07.5,0.003604889,-0.005144119,0.004932404,0,
00:07.5,0.003604889,-0.005144119,0.004932404,0,
00:07.5,0.003599167,-0.005138397,0.004932404,0,
00:07.5,0.003599167,-0.005138397,0.004938126,0,
00:07.5,0.003587723,-0.005155563,0.004932404,0,
00:07.5,0.003582001,-0.005167007,0.004926682,0,
00:07.5,0.003593445,-0.005155563,0.004926682,0,
00:07.5,0.003610611,-0.005126953,0.004926682,0,
00:07.5,0.003610611,-0.005126953,0.004926682,0,
00:07.5,0.003599167,-0.005149841,0.004926682,0,
00:07.5,0.003593445,-0.005161285,0.004920959,0,
00:07.5,0.003587723,-0.005161285,0.004932404,0,
00:07.5,0.003599167,-0.005144119,0.004932404,0,
00:07.5,0.003610611,-0.005121231,0.004932404,0,
00:07.5,0.003604889,-0.005126953,0.004938126,0,
00:07.5,0.003599167,-0.005144119,0.004932404,0,
00:07.5,0.003604889,-0.005149841,0.004926682,0,
00:07.5,0.003604889,-0.005132675,0.004932404,0,
00:07.5,0.003604889,-0.005138397,0.004932404,0,
00:07.5,0.003604889,-0.005138397,0.004932404,0,
00:07.5,0.003610611,-0.005144119,0.004938126,0,
00:07.5,0.003604889,-0.005144119,0.004932404,0,
00:07.5,0.003599167,-0.005149841,0.004926682,0,
00:07.6,0.003604889,-0.005149841,0.004926682,0,
00:07.6,0.003604889,-0.005144119,0.004926682,0,
00:07.6,0.003604889,-0.005149841,0.004920959,0,
00:07.6,0.003604889,-0.005132675,0.004932404,0,
00:07.6,0.003604889,-0.005132675,0.004932404,0,
00:07.6,0.003604889,-0.005149841,0.004926682,0,
00:07.6,0.003599167,-0.005155563,0.004932404,0,
00:07.6,0.003610611,-0.005144119,0.004926682,0,
00:07.6,0.003610611,-0.005144119,0.004920959,0,
00:07.6,0.003604889,-0.005149841,0.004932404,0,
00:07.6,0.003604889,-0.005149841,0.004932404,0,
00:07.6,0.003610611,-0.005138397,0.004932404,0,
00:07.6,0.003616333,-0.005126953,0.004932404,0,
00:07.6,0.003610611,-0.005138397,0.004926682,0,
00:07.6,0.003604889,-0.005144119,0.004920959,0,
00:07.6,0.003610611,-0.005138397,0.004932404,0,
00:07.6,0.003610611,-0.005138397,0.004926682,0,
00:07.6,0.003604889,-0.005149841,0.004926682,0,
00:07.6,0.003610611,-0.005144119,0.004926682,0,
00:07.6,0.003616333,-0.005126953,0.004926682,0,
00:07.6,0.003610611,-0.005132675,0.004932404,0,
00:07.6,0.003604889,-0.005144119,0.004926682,0,
00:07.6,0.003604889,-0.005155563,0.004926682,0,
00:07.6,0.003610611,-0.005144119,0.004926682,0,
00:07.6,0.003616333,-0.005121231,0.004926682,0,
00:07.7,0.003616333,-0.005121231,0.004920959,0,
00:07.7,0.003610611,-0.005132675,0.004920959,0,
00:07.7,0.003610611,-0.005132675,0.004932404,0,
00:07.7,0.003604889,-0.005149841,0.004926682,0,
00:07.7,0.003599167,-0.005155563,0.004926682,0,
00:07.7,0.003610611,-0.005144119,0.004932404,0,
00:07.7,0.003610611,-0.005144119,0.004926682,0,
00:07.7,0.003599167,-0.005167007,0.004926682,0,
00:07.7,0.003593445,-0.005178452,0.004926682,0,
00:07.7,0.003616333,-0.005126953,0.004920959,0,
00:07.7,0.003633499,-0.005098343,0.004926682,0,
00:07.7,0.003622055,-0.005109787,0.004926682,0,
00:07.7,0.003622055,-0.005126953,0.004920959,0,
00:07.7,0.003622055,-0.005132675,0.004926682,0,
00:07.7,0.003616333,-0.005126953,0.004926682,0,
00:07.7,0.003616333,-0.005121231,0.004926682,0,
00:07.7,0.003616333,-0.005132675,0.004926682,0,
00:07.7,0.003610611,-0.005144119,0.004920959,0,
00:07.7,0.003604889,-0.005149841,0.004920959,0,
00:07.7,0.003599167,-0.005155563,0.004926682,0,
00:07.7,0.003610611,-0.005132675,0.004932404,0,
00:07.7,0.003610611,-0.005132675,0.004926682,0,
00:07.7,0.003610611,-0.005138397,0.004926682,0,
00:07.7,0.003604889,-0.005149841,0.004920959,0,
00:07.7,0.003610611,-0.005149841,0.004932404,0,
00:07.8,0.003616333,-0.005132675,0.004926682,0,
00:07.8,0.003616333,-0.005115509,0.004915237,0,
00:07.8,0.003616333,-0.005121231,0.004920959,0,
00:07.8,0.003610611,-0.005132675,0.004920959,0,
00:07.8,0.003604889,-0.005149841,0.004920959,0,
00:07.8,0.003604889,-0.005149841,0.004920959,0,
00:07.8,0.003604889,-0.005144119,0.004915237,0,
00:07.8,0.003610611,-0.005138397,0.004926682,0,
00:07.8,0.003627777,-0.005098343,0.004926682,0,
00:07.8,0.003622055,-0.005098343,0.004920959,0,
00:07.8,0.003616333,-0.005109787,0.004920959,0,
00:07.8,0.003610611,-0.005126953,0.004920959,0,
00:07.8,0.003610611,-0.005149841,0.004915237,0,
00:07.8,0.003604889,-0.005149841,0.004920959,0,
00:07.8,0.003622055,-0.005126953,0.004932404,0,
00:07.8,0.003622055,-0.005109787,0.004926682,0,
00:07.8,0.003610611,-0.005138397,0.004926682,0,
00:07.8,0.003604889,-0.005155563,0.004926682,0,
00:07.8,0.003616333,-0.005126953,0.004920959,0,
00:07.8,0.003627777,-0.005098343,0.004915237,0,
00:07.8,0.003622055,-0.005104065,0.004915237,0,
00:07.8,0.003622055,-0.005126953,0.004926682,0,
00:07.8,0.003622055,-0.005126953,0.004926682,0,
00:07.8,0.003622055,-0.005121231,0.004926682,0,
00:07.8,0.003627777,-0.005109787,0.004926682,0,
00:07.9,0.003627777,-0.005104065,0.004926682,0,
00:07.9,0.003622055,-0.005115509,0.004920959,0,
00:07.9,0.003616333,-0.005126953,0.004920959,0,
00:07.9,0.003627777,-0.005121231,0.004920959,0,
00:07.9,0.003627777,-0.005104065,0.004920959,0,
00:07.9,0.003622055,-0.005115509,0.004920959,0,
00:07.9,0.003616333,-0.005121231,0.004920959,0,
00:07.9,0.003622055,-0.005121231,0.004926682,0,
00:07.9,0.003622055,-0.005121231,0.004920959,0,
00:07.9,0.003616333,-0.005121231,0.004920959,0,
00:07.9,0.003616333,-0.005121231,0.004915237,0,
00:07.9,0.003622055,-0.005126953,0.004920959,0,
00:07.9,0.003622055,-0.005126953,0.004920959,0,
00:07.9,0.003616333,-0.005132675,0.004920959,0,
00:07.9,0.003616333,-0.005138397,0.004920959,0,
00:07.9,0.003622055,-0.005121231,0.004915237,0,
00:07.9,0.003622055,-0.005121231,0.004915237,0,
00:07.9,0.003616333,-0.005121231,0.004915237,0,
00:07.9,0.003610611,-0.005138397,0.004915237,0,
00:07.9,0.003604889,-0.005155563,0.004920959,0,
00:07.9,0.003627777,-0.005126953,0.004920959,0,
00:07.9,0.003633499,-0.005098343,0.004920959,0,
00:07.9,0.003633499,-0.005092621,0.004915237,0,
00:07.9,0.003627777,-0.005104065,0.004915237,0,
00:07.9,0.003622055,-0.005115509,0.004915237,0,
00:08.0,0.003610611,-0.005132675,0.004915237,0,
00:08.0,0.003610611,-0.005132675,0.004915237,0,
00:08.0,0.003622055,-0.005121231,0.004909515,0,
00:08.0,0.003633499,-0.005092621,0.004915237,0,
00:08.0,0.003627777,-0.005092621,0.004926682,0,
00:08.0,0.003627777,-0.005098343,0.004915237,0,
00:08.0,0.003622055,-0.005104065,0.004920959,0,
00:08.0,0.003622055,-0.005109787,0.004915237,0,
00:08.0,0.003616333,-0.005115509,0.004909515,0,
00:08.0,0.003616333,-0.005115509,0.004926682,0,
00:08.0,0.003616333,-0.005109787,0.004926682,0,
00:08.0,0.003622055,-0.005104065,0.004920959,0,
00:00:08,0.003622055,-0.005104065,0.004915237,0,
00:08.0,0.003622055,-0.005109787,0.004915237,0,
00:08.0,0.003610611,-0.005121231,0.004915237,0,
00:08.0,0.003604889,-0.005126953,0.004926682,0,
00:08.0,0.003622055,-0.005104065,0.004920959,0,
00:08.0,0.003627777,-0.005098343,0.004915237,0,
00:08.0,0.003627777,-0.005104065,0.004915237,0,
00:08.0,0.003616333,-0.005109787,0.004915237,0,
00:08.0,0.003610611,-0.005121231,0.004920959,0,
00:08.0,0.003616333,-0.005115509,0.004920959,0,
00:08.0,0.003622055,-0.005098343,0.004915237,0,
00:08.0,0.003622055,-0.005092621,0.004909515,0,
00:08.0,0.003627777,-0.005098343,0.004909515,0,
00:08.1,0.003622055,-0.005109787,0.004915237,0,
00:08.1,0.003610611,-0.005126953,0.004926682,0,
00:08.1,0.003616333,-0.005109787,0.004920959,0,
00:08.1,0.003639221,-0.005075455,0.004920959,0,
00:08.1,0.003633499,-0.005069733,0.004920959,0,
00:08.1,0.003622055,-0.005086899,0.004915237,0,
00:08.1,0.003622055,-0.005092621,0.004920959,0,
00:08.1,0.003616333,-0.005092621,0.004915237,0,
00:08.1,0.003616333,-0.005092621,0.004920959,0,
00:08.1,0.003616333,-0.005098343,0.004920959,0,
00:08.1,0.003610611,-0.005104065,0.004920959,0,
00:08.1,0.003610611,-0.005098343,0.004920959,0,
00:08.1,0.003610611,-0.005104065,0.004920959,0,
00:08.1,0.003604889,-0.005109787,0.004920959,0,
00:08.1,0.003593445,-0.005138397,0.004920959,0,
00:08.1,0.003604889,-0.005126953,0.004915237,0,
00:08.1,0.003633499,-0.005064011,0.004915237,0,
00:08.1,0.003639221,-0.005058289,0.004915237,0,
00:08.1,0.003627777,-0.005075455,0.004926682,0,
00:08.1,0.003616333,-0.005092621,0.004920959,0,
00:08.1,0.003610611,-0.005098343,0.004920959,0,
00:08.1,0.003610611,-0.005104065,0.004920959,0,
00:08.1,0.003610611,-0.005109787,0.004920959,0,
00:08.1,0.003616333,-0.005104065,0.004920959,0,
00:08.1,0.003622055,-0.005098343,0.004915237,0,
00:08.2,0.003627777,-0.005086899,0.004915237,0,
00:08.2,0.003627777,-0.005086899,0.004920959,0,
00:08.2,0.003627777,-0.005086899,0.004915237,0,
00:08.2,0.003627777,-0.005086899,0.004915237,0,
00:08.2,0.003627777,-0.005086899,0.004920959,0,
00:08.2,0.003622055,-0.005098343,0.004920959,0,
00:08.2,0.003622055,-0.005104065,0.004915237,0,
00:08.2,0.003627777,-0.005092621,0.004909515,0,
00:08.2,0.003622055,-0.005092621,0.004909515,0,
00:08.2,0.003627777,-0.005104065,0.004920959,0,
00:08.2,0.003627777,-0.005098343,0.004920959,0,
00:08.2,0.003622055,-0.005104065,0.004920959,0,
00:08.2,0.003616333,-0.005109787,0.004915237,0,
00:08.2,0.003627777,-0.005098343,0.004915237,0,
00:08.2,0.003627777,-0.005092621,0.004915237,0,
00:08.2,0.003622055,-0.005092621,0.004915237,0,
00:08.2,0.003616333,-0.005104065,0.004915237,0,
00:08.2,0.003622055,-0.005098343,0.004920959,0,
00:08.2,0.003627777,-0.005086899,0.004915237,0,
00:08.2,0.003622055,-0.005098343,0.004915237,0,
00:08.2,0.003616333,-0.005104065,0.004915237,0,
00:08.2,0.003627777,-0.005098343,0.004915237,0,
00:08.2,0.003633499,-0.005098343,0.004915237,0,
00:08.2,0.003639221,-0.005081177,0.004915237,0,
00:08.2,0.003639221,-0.005075455,0.004915237,0,
00:08.3,0.003633499,-0.005086899,0.004909515,0,
00:08.3,0.003627777,-0.005092621,0.004903793,0,
00:08.3,0.003627777,-0.005092621,0.004920959,0,
00:08.3,0.003633499,-0.005092621,0.004920959,0,
00:08.3,0.003633499,-0.005092621,0.004915237,0,
00:08.3,0.003627777,-0.005092621,0.004915237,0,
00:08.3,0.003622055,-0.005098343,0.004909515,0,
00:08.3,0.003622055,-0.005092621,0.004909515,0,
00:08.3,0.003627777,-0.005092621,0.004920959,0,
00:08.3,0.003633499,-0.005086899,0.004915237,0,
00:08.3,0.003639221,-0.005081177,0.004915237,0,
00:08.3,0.003633499,-0.005081177,0.004909515,0,
00:08.3,0.003633499,-0.005086899,0.004909515,0,
00:08.3,0.003627777,-0.005098343,0.004915237,0,
00:08.3,0.003633499,-0.005098343,0.004915237,0,
00:08.3,0.003639221,-0.005086899,0.004915237,0,
00:08.3,0.003633499,-0.005092621,0.004915237,0,
00:08.3,0.003627777,-0.005092621,0.004909515,0,
00:08.3,0.003622055,-0.005098343,0.004915237,0,
00:08.3,0.003627777,-0.005098343,0.004920959,0,
00:08.3,0.003627777,-0.005098343,0.004915237,0,
00:08.3,0.003627777,-0.005098343,0.004915237,0,
00:08.3,0.003627777,-0.005092621,0.004909515,0,
00:08.3,0.003639221,-0.005086899,0.004909515,0,
00:08.3,0.003639221,-0.005081177,0.004909515,0,
00:08.4,0.003639221,-0.005081177,0.004915237,0,
00:08.4,0.003633499,-0.005086899,0.004920959,0,
00:08.4,0.003627777,-0.005098343,0.004915237,0,
00:08.4,0.003627777,-0.005104065,0.004909515,0,
00:08.4,0.003639221,-0.005081177,0.004920959,0,
00:08.4,0.003639221,-0.005081177,0.004915237,0,
00:08.4,0.003639221,-0.005075455,0.004915237,0,
00:08.4,0.003633499,-0.005086899,0.004909515,0,
00:08.4,0.003627777,-0.005104065,0.004903793,0,
00:08.4,0.003627777,-0.005104065,0.004915237,0,
00:08.4,0.003633499,-0.005098343,0.004920959,0,
00:08.4,0.003633499,-0.005104065,0.004920959,0,
00:08.4,0.003633499,-0.005104065,0.004915237,0,
00:08.4,0.003639221,-0.005098343,0.004915237,0,
00:08.4,0.003639221,-0.005098343,0.004915237,0,
00:08.4,0.003633499,-0.005098343,0.004909515,0,
00:08.4,0.003639221,-0.005098343,0.004909515,0,
00:08.4,0.003639221,-0.005092621,0.004915237,0,
00:08.4,0.003639221,-0.005098343,0.004915237,0,
00:08.4,0.003633499,-0.005115509,0.004915237,0,
00:08.4,0.003639221,-0.005098343,0.004915237,0,
00:08.4,0.003644943,-0.005086899,0.004915237,0,
00:08.4,0.003644943,-0.005081177,0.004915237,0,
00:08.4,0.003639221,-0.005098343,0.004915237,0,
00:08.4,0.003627777,-0.005115509,0.004915237,0,
00:08.5,0.003633499,-0.005121231,0.004915237,0,
00:08.5,0.003639221,-0.005104065,0.004909515,0,
00:08.5,0.003644943,-0.005086899,0.004909515,0,
00:08.5,0.003644943,-0.005098343,0.004915237,0,
00:08.5,0.003639221,-0.005104065,0.004920959,0,
00:08.5,0.003639221,-0.005104065,0.004920959,0,
00:08.5,0.003644943,-0.005098343,0.004915237,0,
00:08.5,0.003644943,-0.005104065,0.004909515,0,
00:08.5,0.003639221,-0.005104065,0.004915237,0,
00:08.5,0.003644943,-0.005109787,0.004920959,0,
00:08.5,0.003639221,-0.005109787,0.004920959,0,
00:08.5,0.003639221,-0.005115509,0.004915237,0,
00:08.5,0.003633499,-0.005126953,0.004920959,0,
00:08.5,0.003633499,-0.005132675,0.004920959,0,
00:08.5,0.003633499,-0.005132675,0.004920959,0,
00:08.5,0.003639221,-0.005115509,0.004920959,0,
00:08.5,0.003639221,-0.005115509,0.004920959,0,
00:08.5,0.003639221,-0.005126953,0.004915237,0,
00:08.5,0.003633499,-0.005132675,0.004909515,0,
00:08.5,0.003639221,-0.005121231,0.004915237,0,
00:08.5,0.003644943,-0.005115509,0.004926682,0,
00:08.5,0.003639221,-0.005126953,0.004915237,0,
00:08.5,0.003639221,-0.005132675,0.004915237,0,
00:08.5,0.003639221,-0.005138397,0.004920959,0,
00:08.5,0.003650665,-0.005121231,0.004915237,0,
00:08.6,0.003650665,-0.005115509,0.004920959,0,
00:08.6,0.003650665,-0.005121231,0.004920959,0,
00:08.6,0.003644943,-0.005138397,0.004915237,0,
00:08.6,0.003633499,-0.005144119,0.004920959,0,
00:08.6,0.003633499,-0.005149841,0.004920959,0,
00:08.6,0.003644943,-0.005132675,0.004915237,0,
00:08.6,0.003650665,-0.005115509,0.004920959,0,
00:08.6,0.003650665,-0.005121231,0.004915237,0,
00:08.6,0.003644943,-0.005132675,0.004926682,0,
00:08.6,0.003644943,-0.005144119,0.004926682,0,
00:08.6,0.003639221,-0.005144119,0.004926682,0,
00:08.6,0.003639221,-0.005155563,0.004926682,0,
00:08.6,0.003639221,-0.005161285,0.004926682,0,
00:08.6,0.003650665,-0.005144119,0.004920959,0,
00:08.6,0.003650665,-0.005138397,0.004920959,0,
00:08.6,0.003644943,-0.005149841,0.004920959,0,
00:08.6,0.003644943,-0.005155563,0.004915237,0,
00:08.6,0.003633499,-0.005172729,0.004920959,0,
00:08.6,0.003644943,-0.005155563,0.004926682,0,
00:08.6,0.003667831,-0.005126953,0.004926682,0,
00:08.6,0.003656387,-0.005138397,0.004932404,0,
00:08.6,0.003650665,-0.005155563,0.004932404,0,
00:08.6,0.003644943,-0.005167007,0.004926682,0,
00:08.6,0.003644943,-0.005167007,0.004920959,0,
00:08.6,0.003650665,-0.005149841,0.004926682,0,
00:08.7,0.003650665,-0.005155563,0.004938126,0,
00:08.7,0.003650665,-0.005161285,0.004938126,0,
00:08.7,0.003644943,-0.005167007,0.004926682,0,
00:08.7,0.003644943,-0.005167007,0.004932404,0,
00:08.7,0.003644943,-0.005167007,0.004932404,0,
00:08.7,0.003644943,-0.005172729,0.004926682,0,
00:08.7,0.003644943,-0.005172729,0.004932404,0,
00:08.7,0.003650665,-0.005161285,0.004932404,0,
00:08.7,0.003656387,-0.005161285,0.004932404,0,
00:08.7,0.003656387,-0.005167007,0.004932404,0,
00:08.7,0.003650665,-0.005167007,0.004932404,0,
00:08.7,0.003650665,-0.005161285,0.004932404,0,
00:08.7,0.003650665,-0.005172729,0.004926682,0,
00:08.7,0.003644943,-0.005178452,0.004926682,0,
00:08.7,0.003650665,-0.005172729,0.004920959,0,
00:08.7,0.003644943,-0.005178452,0.004932404,0,
00:08.7,0.003639221,-0.005195618,0.004932404,0,
00:08.7,0.003650665,-0.005178452,0.004926682,0,
00:08.7,0.003662109,-0.005155563,0.004926682,0,
00:08.7,0.003656387,-0.005167007,0.004938126,0,
00:08.7,0.003650665,-0.005178452,0.004932404,0,
00:08.7,0.003639221,-0.005195618,0.004932404,0,
00:08.7,0.003633499,-0.005207062,0.004932404,0,
00:08.7,0.003639221,-0.005212784,0.004932404,0,
00:08.7,0.003662109,-0.005178452,0.004932404,0,
00:08.8,0.003667831,-0.005161285,0.004932404,0,
00:08.8,0.003662109,-0.005172729,0.004926682,0,
00:08.8,0.003656387,-0.005178452,0.004932404,0,
00:08.8,0.003644943,-0.005195618,0.004926682,0,
00:08.8,0.003639221,-0.005212784,0.004926682,0,
00:08.8,0.003656387,-0.00520134,0.004932404,0,
00:08.8,0.003656387,-0.005189896,0.004932404,0,
00:08.8,0.003650665,-0.00520134,0.004932404,0,
00:08.8,0.003656387,-0.00520134,0.004926682,0,
00:08.8,0.003656387,-0.00520134,0.004926682,0,
00:08.8,0.003656387,-0.00520134,0.004932404,0,
00:08.8,0.003662109,-0.005195618,0.004926682,0,
00:08.8,0.003662109,-0.005195618,0.004932404,0,
00:08.8,0.003650665,-0.005218506,0.004926682,0,
00:08.8,0.003650665,-0.005212784,0.004926682,0,
00:08.8,0.003662109,-0.005189896,0.004926682,0,
00:08.8,0.003662109,-0.005189896,0.004938126,0,
00:08.8,0.003656387,-0.005189896,0.004932404,0,
00:08.8,0.003656387,-0.00520134,0.004920959,0,
00:08.8,0.003656387,-0.00520134,0.004932404,0,
00:08.8,0.003656387,-0.005207062,0.004932404,0,
00:08.8,0.003656387,-0.005212784,0.004938126,0,
00:08.8,0.003656387,-0.005218506,0.004932404,0,
00:08.8,0.003656387,-0.005218506,0.004926682,0,
00:08.8,0.003662109,-0.005218506,0.004926682,0,
00:08.9,0.003656387,-0.005224228,0.004932404,0,
00:08.9,0.003650665,-0.005235672,0.004926682,0,
00:08.9,0.003639221,-0.005252838,0.004926682,0,
00:08.9,0.003644943,-0.005252838,0.004926682,0,
00:08.9,0.003656387,-0.00522995,0.004932404,0,
00:08.9,0.003656387,-0.005218506,0.004926682,0,
00:08.9,0.003656387,-0.005212784,0.004920959,0,
00:08.9,0.003644943,-0.005235672,0.004932404,0,
00:08.9,0.003633499,-0.005264282,0.004932404,0,
00:08.9,0.003650665,-0.005252838,0.004926682,0,
00:08.9,0.003673553,-0.005207062,0.004926682,0,
00:08.9,0.003667831,-0.005212784,0.004926682,0,
00:08.9,0.003656387,-0.005235672,0.004926682,0,
00:08.9,0.003656387,-0.005235672,0.004920959,0,
00:08.9,0.003656387,-0.005235672,0.004926682,0,
00:08.9,0.003644943,-0.00525856,0.004926682,0,
00:08.9,0.003644943,-0.005264282,0.004926682,0,
00:08.9,0.003656387,-0.005241394,0.004915237,0,
00:08.9,0.003667831,-0.00522995,0.004920959,0,
00:08.9,0.003656387,-0.005247116,0.004926682,0,
00:08.9,0.003662109,-0.005241394,0.004926682,0,
00:08.9,0.003667831,-0.005224228,0.004926682,0,
00:08.9,0.003662109,-0.005235672,0.004926682,0,
00:08.9,0.003656387,-0.005247116,0.004920959,0,
00:08.9,0.003656387,-0.00525856,0.004920959,0,
00:09.0,0.003662109,-0.00525856,0.004926682,0,
00:09.0,0.003656387,-0.00525856,0.004926682,0,
00:09.0,0.003662109,-0.00525856,0.004920959,0,
00:09.0,0.003662109,-0.005247116,0.004915237,0,
00:09.0,0.003656387,-0.005264282,0.004932404,0,
00:09.0,0.003656387,-0.005270004,0.004932404,0,
00:09.0,0.003662109,-0.005264282,0.004926682,0,
00:09.0,0.003673553,-0.005247116,0.004926682,0,
00:09.0,0.003679276,-0.005224228,0.004926682,0,
00:09.0,0.003673553,-0.005241394,0.004926682,0,
00:09.0,0.003667831,-0.005247116,0.004926682,0,
00:09.0,0.003662109,-0.00525856,0.004920959,0,
00:00:09,0.003662109,-0.005270004,0.004920959,0,
00:09.0,0.003679276,-0.00525856,0.004926682,0,
00:09.0,0.003679276,-0.00525856,0.004920959,0,
00:09.0,0.003673553,-0.00525856,0.004926682,0,
00:09.0,0.003673553,-0.005264282,0.004926682,0,
00:09.0,0.003673553,-0.005264282,0.004926682,0,
00:09.0,0.003673553,-0.005270004,0.004932404,0,
00:09.0,0.003667831,-0.005270004,0.004926682,0,
00:09.0,0.003667831,-0.005275726,0.004920959,0,
00:09.0,0.003673553,-0.005270004,0.004932404,0,
00:09.0,0.003679276,-0.005270004,0.004932404,0,
00:09.0,0.003673553,-0.005270004,0.004926682,0,
00:09.0,0.003673553,-0.005270004,0.004926682,0,
00:09.1,0.003667831,-0.00528717,0.004926682,0,
00:09.1,0.003656387,-0.005304337,0.004920959,0,
00:09.1,0.003650665,-0.005321503,0.004920959,0,
00:09.1,0.003673553,-0.005292892,0.004926682,0,
00:09.1,0.00369072,-0.00525856,0.004926682,0,
00:09.1,0.00369072,-0.005247116,0.004926682,0,
00:09.1,0.003679276,-0.005270004,0.004926682,0,
00:09.1,0.003679276,-0.005281448,0.004915237,0,
00:09.1,0.003673553,-0.00528717,0.004926682,0,
00:09.1,0.003673553,-0.005298615,0.004926682,0,
00:09.1,0.003679276,-0.005292892,0.004926682,0,
00:09.1,0.003684998,-0.005281448,0.004926682,0,
00:09.1,0.003684998,-0.005275726,0.004920959,0,
00:09.1,0.003684998,-0.005281448,0.004920959,0,
00:09.1,0.003679276,-0.00528717,0.004915237,0,
00:09.1,0.003679276,-0.005292892,0.004915237,0,
00:09.1,0.003679276,-0.005292892,0.004915237,0,
00:09.1,0.003673553,-0.005298615,0.004920959,0,
00:09.1,0.003679276,-0.005304337,0.004920959,0,
00:09.1,0.003679276,-0.005298615,0.004926682,0,
00:09.1,0.003673553,-0.005304337,0.004920959,0,
00:09.1,0.003667831,-0.005315781,0.004915237,0,
00:09.1,0.003667831,-0.005315781,0.004915237,0,
00:09.1,0.00369072,-0.00528717,0.004926682,0,
00:09.1,0.00369072,-0.005292892,0.004920959,0,
00:09.2,0.003679276,-0.005315781,0.004920959,0,
00:09.2,0.00369072,-0.005304337,0.004915237,0,
00:09.2,0.003696442,-0.005292892,0.004915237,0,
00:09.2,0.003684998,-0.005315781,0.004915237,0,
00:09.2,0.003684998,-0.005315781,0.004915237,0,
00:09.2,0.00369072,-0.005298615,0.004915237,0,
00:09.2,0.003684998,-0.005304337,0.004915237,0,
00:09.2,0.003684998,-0.005310059,0.004909515,0,
00:09.2,0.00369072,-0.005298615,0.004915237,0,
00:09.2,0.00369072,-0.005304337,0.004920959,0,
00:09.2,0.00369072,-0.005304337,0.004915237,0,
00:09.2,0.003684998,-0.005310059,0.004909515,0,
00:09.2,0.003679276,-0.005327225,0.004909515,0,
00:09.2,0.003679276,-0.005332947,0.004915237,0,
00:09.2,0.00369072,-0.005321503,0.004903793,0,
00:09.2,0.003696442,-0.005321503,0.004920959,0,
00:09.2,0.003696442,-0.005315781,0.004915237,0,
00:09.2,0.00369072,-0.005321503,0.004915237,0,
00:09.2,0.003684998,-0.005327225,0.004915237,0,
00:09.2,0.00369072,-0.005321503,0.004915237,0,
00:09.2,0.00369072,-0.005332947,0.004915237,0,
00:09.2,0.003679276,-0.005344391,0.004915237,0,
00:09.2,0.00369072,-0.005332947,0.004909515,0,
00:09.2,0.003696442,-0.005327225,0.004915237,0,
00:09.2,0.003696442,-0.005321503,0.004909515,0,
00:09.3,0.00369072,-0.005327225,0.004903793,0,
00:09.3,0.003684998,-0.005344391,0.004915237,0,
00:09.3,0.00369072,-0.005332947,0.004909515,0,
00:09.3,0.003696442,-0.005332947,0.004909515,0,
00:09.3,0.00369072,-0.005338669,0.004915237,0,
00:09.3,0.003696442,-0.005338669,0.004909515,0,
00:09.3,0.003696442,-0.005338669,0.004909515,0,
00:09.3,0.003684998,-0.005355835,0.004909515,0,
00:09.3,0.00369072,-0.005344391,0.004909515,0,
00:09.3,0.003702164,-0.005327225,0.004909515,0,
00:09.3,0.003702164,-0.005327225,0.004892349,0,
00:09.3,0.003696442,-0.005338669,0.004909515,0,
00:09.3,0.003696442,-0.005344391,0.004909515,0,
00:09.3,0.003696442,-0.005350113,0.004909515,0,
00:09.3,0.003696442,-0.005355835,0.004909515,0,
00:09.3,0.003696442,-0.005350113,0.004909515,0,
00:09.3,0.003702164,-0.005350113,0.004909515,0,
00:09.3,0.003696442,-0.005350113,0.004909515,0,
00:09.3,0.003696442,-0.005355835,0.004903793,0,
00:09.3,0.00369072,-0.005361557,0.004903793,0,
00:09.3,0.003684998,-0.005378723,0.004909515,0,
00:09.3,0.003684998,-0.005378723,0.004909515,0,
00:09.3,0.003696442,-0.005355835,0.004898071,0,
00:09.3,0.00369072,-0.005355835,0.004898071,0,
00:09.3,0.003696442,-0.005350113,0.004909515,0,
00:09.4,0.003696442,-0.005355835,0.004898071,0,
00:09.4,0.00369072,-0.005367279,0.004903793,0,
00:09.4,0.003684998,-0.005378723,0.004915237,0,
00:09.4,0.003684998,-0.005378723,0.004909515,0,
00:09.4,0.003702164,-0.005350113,0.004903793,0,
00:09.4,0.003713608,-0.005332947,0.004903793,0,
00:09.4,0.003702164,-0.005344391,0.004898071,0,
00:09.4,0.003702164,-0.005344391,0.004898071,0,
00:09.4,0.003696442,-0.005355835,0.004903793,0,
00:09.4,0.003696442,-0.005367279,0.004903793,0,
00:09.4,0.00369072,-0.005373001,0.004903793,0,
00:09.4,0.003696442,-0.005361557,0.004903793,0,
00:09.4,0.003696442,-0.005355835,0.004903793,0,
00:09.4,0.00369072,-0.005373001,0.004903793,0,
00:09.4,0.00369072,-0.005384445,0.004903793,0,
00:09.4,0.003696442,-0.005378723,0.004903793,0,
00:09.4,0.003696442,-0.005373001,0.004898071,0,
00:09.4,0.00369072,-0.005378723,0.004903793,0,
00:09.4,0.003696442,-0.005378723,0.004903793,0,
00:09.4,0.003702164,-0.005367279,0.004903793,0,
00:09.4,0.003702164,-0.005367279,0.004898071,0,
00:09.4,0.003696442,-0.005378723,0.004903793,0,
00:09.4,0.00369072,-0.005384445,0.004898071,0,
00:09.4,0.00369072,-0.005384445,0.004892349,0,
00:09.4,0.003696442,-0.005378723,0.004886627,0,
00:09.5,0.003702164,-0.005367279,0.004898071,0,
00:09.5,0.003702164,-0.005373001,0.004903793,0,
00:09.5,0.003696442,-0.005384445,0.004898071,0,
00:09.5,0.003702164,-0.005373001,0.004898071,0,
00:09.5,0.003702164,-0.005373001,0.004892349,0,
00:09.5,0.003696442,-0.005390167,0.004898071,0,
00:09.5,0.003696442,-0.005390167,0.004898071,0,
00:09.5,0.00369072,-0.005384445,0.004892349,0,
00:09.5,0.00369072,-0.005390167,0.004892349,0,
00:09.5,0.003696442,-0.005384445,0.004892349,0,
00:09.5,0.003696442,-0.005390167,0.004898071,0,
00:09.5,0.003696442,-0.005395889,0.004892349,0,
00:09.5,0.003702164,-0.005384445,0.004898071,0,
00:09.5,0.003702164,-0.005384445,0.004892349,0,
00:09.5,0.00369072,-0.005401611,0.004892349,0,
00:09.5,0.00369072,-0.005395889,0.004892349,0,
00:09.5,0.003707886,-0.005378723,0.004886627,0,
00:09.5,0.003707886,-0.005384445,0.004886627,0,
00:09.5,0.003702164,-0.005384445,0.004892349,0,
00:09.5,0.003707886,-0.005378723,0.004892349,0,
00:09.5,0.003707886,-0.005384445,0.004898071,0,
00:09.5,0.003713608,-0.005373001,0.004892349,0,
00:09.5,0.003713608,-0.005361557,0.004886627,0,
00:09.5,0.003707886,-0.005378723,0.004892349,0,
00:09.5,0.003702164,-0.005390167,0.004892349,0,
00:09.6,0.003696442,-0.005395889,0.004886627,0,
00:09.6,0.003696442,-0.005395889,0.004880905,0,
00:09.6,0.003707886,-0.005384445,0.004886627,0,
00:09.6,0.003707886,-0.005373001,0.004880905,0,
00:09.6,0.003702164,-0.005378723,0.004898071,0,
00:09.6,0.003696442,-0.005384445,0.004886627,0,
00:09.6,0.003696442,-0.005395889,0.004886627,0,
00:09.6,0.003696442,-0.005401611,0.004892349,0,
00:09.6,0.003696442,-0.005401611,0.004886627,0,
00:09.6,0.003702164,-0.005390167,0.004892349,0,
00:09.6,0.003707886,-0.005384445,0.004886627,0,
00:09.6,0.003707886,-0.005384445,0.004886627,0,
00:09.6,0.003707886,-0.005384445,0.004886627,0,
00:09.6,0.003702164,-0.005401611,0.004886627,0,
00:09.6,0.003696442,-0.005407333,0.004880905,0,
00:09.6,0.00369072,-0.005413055,0.004880905,0,
00:09.6,0.00369072,-0.005407333,0.004880905,0,
00:09.6,0.003696442,-0.005395889,0.004880905,0,
00:09.6,0.003702164,-0.005395889,0.004880905,0,
00:09.6,0.003707886,-0.005395889,0.004880905,0,
00:09.6,0.003713608,-0.005395889,0.004880905,0,
00:09.6,0.003707886,-0.005401611,0.004875183,0,
00:09.6,0.003702164,-0.005413055,0.004869461,0,
00:09.6,0.003696442,-0.005435944,0.004880905,0,
00:09.6,0.003707886,-0.005407333,0.004875183,0,
00:09.7,0.003725052,-0.005367279,0.004875183,0,
00:09.7,0.00371933,-0.005378723,0.004886627,0,
00:09.7,0.003713608,-0.005390167,0.004880905,0,
00:09.7,0.003713608,-0.005395889,0.004875183,0,
00:09.7,0.003707886,-0.005407333,0.004875183,0,
00:09.7,0.003702164,-0.005413055,0.004875183,0,
00:09.7,0.003702164,-0.005413055,0.004875183,0,
00:09.7,0.003707886,-0.005401611,0.004869461,0,
00:09.7,0.003707886,-0.005401611,0.004869461,0,
00:09.7,0.003707886,-0.005407333,0.004869461,0,
00:09.7,0.003707886,-0.005407333,0.004875183,0,
00:09.7,0.003702164,-0.005413055,0.004875183,0,
00:09.7,0.003702164,-0.0054245,0.004869461,0,
00:09.7,0.003702164,-0.005418777,0.004869461,0,
00:09.7,0.003707886,-0.005413055,0.004875183,0,
00:09.7,0.003707886,-0.005413055,0.004875183,0,
00:09.7,0.003696442,-0.005430222,0.004869461,0,
00:09.7,0.00369072,-0.005441666,0.004863739,0,
00:09.7,0.003696442,-0.005430222,0.004869461,0,
00:09.7,0.003713608,-0.005407333,0.004886627,0,
00:09.7,0.003713608,-0.005395889,0.004880905,0,
00:09.7,0.003707886,-0.005413055,0.004875183,0,
00:09.7,0.003713608,-0.005407333,0.004875183,0,
00:09.7,0.003707886,-0.005418777,0.004869461,0,
00:09.7,0.003702164,-0.0054245,0.004875183,0,
00:09.8,0.003707886,-0.005407333,0.004875183,0,
00:09.8,0.003713608,-0.005395889,0.004869461,0,
00:09.8,0.003713608,-0.005401611,0.004875183,0,
00:09.8,0.003713608,-0.005401611,0.004875183,0,
00:09.8,0.003713608,-0.005407333,0.004875183,0,
00:09.8,0.003707886,-0.005418777,0.004875183,0,
00:09.8,0.003707886,-0.0054245,0.004869461,0,
00:09.8,0.003702164,-0.005430222,0.004869461,0,
00:09.8,0.003702164,-0.005430222,0.004869461,0,
00:09.8,0.003713608,-0.005407333,0.004875183,0,
00:09.8,0.003713608,-0.005395889,0.004869461,0,
00:09.8,0.003713608,-0.005413055,0.004869461,0,
00:09.8,0.003713608,-0.0054245,0.004869461,0,
00:09.8,0.003707886,-0.0054245,0.004880905,0,
00:09.8,0.003707886,-0.0054245,0.004875183,0,
00:09.8,0.003713608,-0.005418777,0.004875183,0,
00:09.8,0.00371933,-0.005407333,0.004869461,0,
00:09.8,0.00371933,-0.005407333,0.004869461,0,
00:09.8,0.00371933,-0.005407333,0.004869461,0,
00:09.8,0.00371933,-0.005407333,0.004875183,0,
00:09.8,0.003713608,-0.005413055,0.004875183,0,
00:09.8,0.003713608,-0.005418777,0.004875183,0,
00:09.8,0.003713608,-0.005418777,0.004863739,0,
00:09.8,0.003707886,-0.005430222,0.004875183,0,
00:09.8,0.003707886,-0.005435944,0.004875183,0,
00:09.9,0.003707886,-0.0054245,0.004869461,0,
00:09.9,0.003713608,-0.0054245,0.004863739,0,
00:09.9,0.003713608,-0.005418777,0.004863739,0,
00:09.9,0.00371933,-0.005407333,0.004875183,0,
00:09.9,0.003713608,-0.005418777,0.004875183,0,
00:09.9,0.003707886,-0.005430222,0.004869461,0,
00:09.9,0.003707886,-0.005430222,0.004869461,0,
00:09.9,0.003707886,-0.005430222,0.004869461,0,
00:09.9,0.003702164,-0.005430222,0.004869461,0,
00:09.9,0.003713608,-0.0054245,0.004869461,0,
00:09.9,0.003725052,-0.005401611,0.004869461,0,
00:09.9,0.00371933,-0.005413055,0.004863739,0,
00:09.9,0.00371933,-0.005418777,0.004869461,0,
00:09.9,0.003707886,-0.0054245,0.004863739,0,
00:09.9,0.003707886,-0.005430222,0.004863739,0,
00:09.9,0.003707886,-0.005430222,0.004869461,0,
00:09.9,0.003707886,-0.0054245,0.004875183,0,
00:09.9,0.003713608,-0.0054245,0.004869461,0,
00:09.9,0.003713608,-0.005418777,0.004858017,0,
00:09.9,0.00371933,-0.005413055,0.004863739,0,
00:09.9,0.00371933,-0.005407333,0.004863739,0,
00:09.9,0.00371933,-0.005418777,0.004863739,0,
00:09.9,0.003713608,-0.005418777,0.004869461,0,
00:09.9,0.003702164,-0.005435944,0.004869461,0,
00:09.9,0.003713608,-0.005430222,0.004869461,0,
00:10.0,0.00371933,-0.005407333,0.004869461,0,
00:10.0,0.003725052,-0.005401611,0.004869461,0,
00:10.0,0.003713608,-0.005413055,0.004863739,0,
00:10.0,0.003707886,-0.005441666,0.004869461,0,
00:10.0,0.003707886,-0.005441666,0.004869461,0,
00:10.0,0.00371933,-0.005407333,0.004869461,0,
00:10.0,0.00371933,-0.005418777,0.004869461,0,
00:10.0,0.003707886,-0.005435944,0.004858017,0,
00:10.0,0.003713608,-0.005418777,0.004869461,0,
00:10.0,0.00371933,-0.005407333,0.004875183,0,
00:10.0,0.003707886,-0.005418777,0.004869461,0,
00:10.0,0.003702164,-0.005430222,0.004869461,0,
00:00:10,0.003702164,-0.005441666,0.004863739,0,
00:10.0,0.00371933,-0.005413055,0.004863739,0,
00:10.0,0.00371933,-0.005401611,0.004869461,0,
00:10.0,0.003725052,-0.005401611,0.004869461,0,
00:10.0,0.003713608,-0.005413055,0.004869461,0,
00:10.0,0.003707886,-0.005430222,0.004869461,0,
00:10.0,0.003713608,-0.005418777,0.004869461,0,
00:10.0,0.00371933,-0.005407333,0.004863739,0,
00:10.0,0.00371933,-0.005407333,0.004869461,0,
00:10.0,0.003725052,-0.005413055,0.004869461,0,
00:10.0,0.003725052,-0.005413055,0.004869461,0,
00:10.0,0.003725052,-0.005407333,0.004863739,0,
00:10.0,0.003713608,-0.005418777,0.004869461,0,
00:10.1,0.003707886,-0.005418777,0.004869461,0,
00:10.1,0.003713608,-0.005418777,0.004858017,0,
00:10.1,0.003713608,-0.0054245,0.004863739,0,
