Elapsed_Time,EMG1,EMG2,EMG3,BioRadio Event,Unnamed: 5
00:00:00,0.000623703,0.004405975,0.00097847,0,
00:00.0,0.000617981,0.004417419,0.00094986,0,
00:00.0,0.000577927,0.004405975,0.000904083,0,
00:00.0,0.000583649,0.00444603,0.000892639,0,
00:00.0,0.000640869,0.00447464,0.00097847,0,
00:00.0,0.000640869,0.004468918,0.000944138,0,
00:00.0,0.000617981,0.004405975,0.000955582,0,
00:00.0,0.000612259,0.004388809,0.000921249,0,
00:00.0,0.000623703,0.004428864,0.00094986,0,
00:00.0,0.000623703,0.004434586,0.000955582,0,
00:00.0,0.000600815,0.004434586,0.000967026,0,
00:00.0,0.000612259,0.004434586,0.00094986,0,
00:00.0,0.000617981,0.004411697,0.000944138,0,
00:00.1,0.000606537,0.004434586,0.000921249,0,
00:00.1,0.000629425,0.004440308,0.00097847,0,
00:00.1,0.000617981,0.004377365,0.000972748,0,
00:00.1,0.000583649,0.004405975,0.000955582,0,
00:00.1,0.000640869,0.004440308,0.000898361,0,
00:00.1,0.000635147,0.004463196,0.000921249,0,
00:00.1,0.000606537,0.004423141,0.000915527,0,
00:00.1,0.000606537,0.004400253,0.000989914,0,
00:00.1,0.000617981,0.00444603,0.000932693,0,
00:00.1,0.000646591,0.004457474,0.000881195,0,
00:00.1,0.000635147,0.004388809,0.00097847,0,
00:00.1,0.000595093,0.004423141,0.00100708,0,
00:00.1,0.000606537,0.004463196,0.000967026,0,
00:00.1,0.000623703,0.00444603,0.000961304,0,
00:00.1,0.000600815,0.004411697,0.000938416,0,
00:00.1,0.000600815,0.004434586,0.00094986,0,
00:00.1,0.000612259,0.004451752,0.00094986,0,
00:00.1,0.000646591,0.004497528,0.000944138,0,
00:00.1,0.000617981,0.004480362,0.00094986,0,
00:00.1,0.000612259,0.004417419,0.000955582,0,
00:00.1,0.000612259,0.004394531,0.00094986,0,
00:00.1,0.000623703,0.004468918,0.000909805,0,
00:00.1,0.000606537,0.004514694,0.000904083,0,
00:00.1,0.000617981,0.004457474,0.000955582,0,
00:00.1,0.000652313,0.004457474,0.000972748,0,
00:00.2,0.000589371,0.004405975,0.000938416,0,
00:00.2,0.000583649,0.004451752,0.000938416,0,
00:00.2,0.000589371,0.004457474,0.000938416,0,
00:00.2,0.000600815,0.004423141,0.000938416,0,
00:00.2,0.000617981,0.004451752,0.000909805,0,
00:00.2,0.000572205,0.004457474,0.000955582,0,
00:00.2,0.000566483,0.004417419,0.000972748,0,
00:00.2,0.000595093,0.004468918,0.000904083,0,
00:00.2,0.000629425,0.004508972,0.000904083,0,
00:00.2,0.000640869,0.00444603,0.000972748,0,
00:00.2,0.000652313,0.00447464,0.000938416,0,
00:00.2,0.000669479,0.004526138,0.000858307,0,
00:00.2,0.000629425,0.004451752,0.000904083,0,
00:00.2,0.000589371,0.004434586,0.000967026,0,
00:00.2,0.000589371,0.004405975,0.001001358,0,
00:00.2,0.000623703,0.004463196,0.000932693,0,
00:00.2,0.000589371,0.004486084,0.000904083,0,
00:00.2,0.000577927,0.004440308,0.000961304,0,
00:00.2,0.000612259,0.004434586,0.000972748,0,
00:00.2,0.000617981,0.00447464,0.00094986,0,
00:00.2,0.000629425,0.00450325,0.000926971,0,
00:00.2,0.000675201,0.004554749,0.000898361,0,
00:00.2,0.000623703,0.00450325,0.000909805,0,
00:00.2,0.000543594,0.004434586,0.000926971,0,
00:00.2,0.000555038,0.004417419,0.000944138,0,
00:00.3,0.000583649,0.004451752,0.000909805,0,
00:00.3,0.000617981,0.004463196,0.000926971,0,
00:00.3,0.000606537,0.004468918,0.000955582,0,
00:00.3,0.000600815,0.004491806,0.000944138,0,
00:00.3,0.000549316,0.004537582,0.000932693,0,
00:00.3,0.000537872,0.004480362,0.000932693,0,
00:00.3,0.000663757,0.00444603,0.000972748,0,
00:00.3,0.000617981,0.00444603,0.000961304,0,
00:00.3,0.000623703,0.004486084,0.000921249,0,
00:00.3,0.000658035,0.00453186,0.000886917,0,
00:00.3,0.000652313,0.004480362,0.000932693,0,
00:00.3,0.00069809,0.00450325,0.000926971,0,
00:00.3,0.000680923,0.004549026,0.000932693,0,
00:00.3,0.000612259,0.00450325,0.000932693,0,
00:00.3,0.000549316,0.004434586,0.000967026,0,
00:00.3,0.000549316,0.004440308,0.00097847,0,
00:00.3,0.000572205,0.004497528,0.000944138,0,
00:00.3,0.000617981,0.004508972,0.000904083,0,
00:00.3,0.000577927,0.004497528,0.000944138,0,
00:00.3,0.000566483,0.00450325,0.000926971,0,
00:00.3,0.000623703,0.00453186,0.000869751,0,
00:00.3,0.000583649,0.00444603,0.000926971,0,
00:00.3,0.000572205,0.004423141,0.000972748,0,
00:00.3,0.000583649,0.004463196,0.000961304,0,
00:00.3,0.000617981,0.004526138,0.000915527,0,
00:00.4,0.000595093,0.004526138,0.000932693,0,
00:00.4,0.000583649,0.004497528,0.000944138,0,
00:00.4,0.000606537,0.004520416,0.000944138,0,
00:00.4,0.000555038,0.004457474,0.000972748,0,
00:00.4,0.000572205,0.004457474,0.00094986,0,
00:00.4,0.000623703,0.004520416,0.000932693,0,
00:00.4,0.000606537,0.004520416,0.000944138,0,
00:00.4,0.000595093,0.004486084,0.000944138,0,
00:00.4,0.000606537,0.00444603,0.000932693,0,
00:00.4,0.000617981,0.004486084,0.000938416,0,
00:00.4,0.000606537,0.004537582,0.000915527,0,
00:00.4,0.000595093,0.004543304,0.000904083,0,
00:00.4,0.000617981,0.004520416,0.000886917,0,
00:00.4,0.000669479,0.004514694,0.000892639,0,
00:00.4,0.000686646,0.004508972,0.000898361,0,
00:00.4,0.000606537,0.004508972,0.000932693,0,
00:00.4,0.000526428,0.004457474,0.000961304,0,
00:00.4,0.000555038,0.004497528,0.00094986,0,
00:00.4,0.000566483,0.004577637,0.000898361,0,
00:00.4,0.000623703,0.004571915,0.000926971,0,
00:00.4,0.000640869,0.00450325,0.000955582,0,
00:00.4,0.00056076,0.004491806,0.000944138,0,
00:00.4,0.000566483,0.004480362,0.000984192,0,
00:00.4,0.000566483,0.004463196,0.000967026,0,
00:00.4,0.000589371,0.00450325,0.000938416,0,
00:00.5,0.000600815,0.00453186,0.000932693,0,
00:00.5,0.000577927,0.004520416,0.000915527,0,
00:00.5,0.000589371,0.004543304,0.000926971,0,
00:00.5,0.000600815,0.004549026,0.000915527,0,
00:00.5,0.000640869,0.004583359,0.000898361,0,
00:00.5,0.000595093,0.004497528,0.000961304,0,
00:00.5,0.000589371,0.004508972,0.000944138,0,
00:00.5,0.000543594,0.004537582,0.000892639,0,
00:00.5,0.000600815,0.00453186,0.000881195,0,
00:00.5,0.000623703,0.004514694,0.000904083,0,
00:00.5,0.000577927,0.004486084,0.00094986,0,
00:00.5,0.000589371,0.004526138,0.000938416,0,
00:00.5,0.000606537,0.004514694,0.000995636,0,
00:00.5,0.000606537,0.004486084,0.000972748,0,
00:00.5,0.000583649,0.004537582,0.000915527,0,
00:00.5,0.000612259,0.004577637,0.000909805,0,
00:00.5,0.000583649,0.004520416,0.000892639,0,
00:00.5,0.00056076,0.004491806,0.000892639,0,
00:00.5,0.00056076,0.004491806,0.000972748,0,
00:00.5,0.000577927,0.00450325,0.000955582,0,
00:00.5,0.000606537,0.004520416,0.000921249,0,
00:00.5,0.000600815,0.004571915,0.000921249,0,
00:00.5,0.000595093,0.004577637,0.000892639,0,
00:00.5,0.000577927,0.004497528,0.000938416,0,
00:00.5,0.00056076,0.00450325,0.000932693,0,
00:00.6,0.000595093,0.00453186,0.000938416,0,
00:00.6,0.000617981,0.004583359,0.000932693,0,
00:00.6,0.000600815,0.004537582,0.000926971,0,
00:00.6,0.000583649,0.004520416,0.000926971,0,
00:00.6,0.000583649,0.004520416,0.000909805,0,
00:00.6,0.000612259,0.004520416,0.000875473,0,
00:00.6,0.00056076,0.00453186,0.000898361,0,
00:00.6,0.000486374,0.004526138,0.000898361,0,
00:00.6,0.000623703,0.004566193,0.000961304,0,
00:00.6,0.000600815,0.004549026,0.000904083,0,
00:00.6,0.000600815,0.004554749,0.000898361,0,
00:00.6,0.000646591,0.004606247,0.000926971,0,
00:00.6,0.000577927,0.004497528,0.00097847,0,
00:00.6,0.000566483,0.004491806,0.000944138,0,
00:00.6,0.000583649,0.00453186,0.000892639,0,
00:00.6,0.000577927,0.004571915,0.000864029,0,
00:00.6,0.000600815,0.004611969,0.000823975,0,
00:00.6,0.000583649,0.00453186,0.000926971,0,
00:00.6,0.00056076,0.004497528,0.000938416,0,
00:00.6,0.000589371,0.004514694,0.000972748,0,
00:00.6,0.000589371,0.004520416,0.000967026,0,
00:00.6,0.000572205,0.004526138,0.000921249,0,
00:00.6,0.000566483,0.004543304,0.000921249,0,
00:00.6,0.000629425,0.004577637,0.000881195,0,
00:00.6,0.000686646,0.004617691,0.000858307,0,
00:00.7,0.000646591,0.004606247,0.000886917,0,
00:00.7,0.000577927,0.004560471,0.000909805,0,
00:00.7,0.000526428,0.004497528,0.000944138,0,
00:00.7,0.000549316,0.004491806,0.00094986,0,
00:00.7,0.000555038,0.004514694,0.000926971,0,
00:00.7,0.000572205,0.004526138,0.000909805,0,
00:00.7,0.000617981,0.004566193,0.000869751,0,
00:00.7,0.000606537,0.004652023,0.000795364,0,
00:00.7,0.000606537,0.004629135,0.000829697,0,
00:00.7,0.000543594,0.00447464,0.000984192,0,
00:00.7,0.000509262,0.004508972,0.00094986,0,
00:00.7,0.000555038,0.004526138,0.000938416,0,
00:00.7,0.000617981,0.004554749,0.000932693,0,
00:00.7,0.000635147,0.004623413,0.000881195,0,
00:00.7,0.000669479,0.004709244,0.000858307,0,
00:00.7,0.000589371,0.004629135,0.000869751,0,
00:00.7,0.000509262,0.004423141,0.00094986,0,
00:00.7,0.000549316,0.00447464,0.000921249,0,
00:00.7,0.000572205,0.00453186,0.000904083,0,
00:00.7,0.000583649,0.004554749,0.000915527,0,
00:00.7,0.000606537,0.004566193,0.000904083,0,
00:00.7,0.000600815,0.004589081,0.000904083,0,
00:00.7,0.000583649,0.004589081,0.000869751,0,
00:00.7,0.000572205,0.004560471,0.000864029,0,
00:00.7,0.000566483,0.004554749,0.000898361,0,
00:00.8,0.000600815,0.004543304,0.000898361,0,
00:00.8,0.000761032,0.004577637,0.000841141,0,
00:00.8,0.000720978,0.004640579,0.000806808,0,
00:00.8,0.000555038,0.004583359,0.000875473,0,
00:00.8,0.000480652,0.004526138,0.000989914,0,
00:00.8,0.000566483,0.004566193,0.000955582,0,
00:00.8,0.000589371,0.004606247,0.000886917,0,
00:00.8,0.000612259,0.004611969,0.000864029,0,
00:00.8,0.000566483,0.004554749,0.000909805,0,
00:00.8,0.000549316,0.004497528,0.000915527,0,
00:00.8,0.000577927,0.004520416,0.000926971,0,
00:00.8,0.000583649,0.004606247,0.000909805,0,
00:00.8,0.000577927,0.004617691,0.000892639,0,
00:00.8,0.00056076,0.004594803,0.000898361,0,
00:00.8,0.000566483,0.004577637,0.000875473,0,
00:00.8,0.000572205,0.004606247,0.000869751,0,
00:00.8,0.000577927,0.004583359,0.000904083,0,
00:00.8,0.000543594,0.004520416,0.000915527,0,
00:00.8,0.000549316,0.004560471,0.000881195,0,
00:00.8,0.000537872,0.004589081,0.000892639,0,
00:00.8,0.000577927,0.004594803,0.000915527,0,
00:00.8,0.000612259,0.004600525,0.000898361,0,
00:00.8,0.000612259,0.004606247,0.000858307,0,
00:00.8,0.000572205,0.004600525,0.000881195,0,
00:00.8,0.000583649,0.004560471,0.000886917,0,
00:00.9,0.000600815,0.004560471,0.000846863,0,
00:00.9,0.000629425,0.004577637,0.000829697,0,
00:00.9,0.000675201,0.004594803,0.000898361,0,
00:00.9,0.000658035,0.004617691,0.000886917,0,
00:00.9,0.000572205,0.004583359,0.000875473,0,
00:00.9,0.000509262,0.004537582,0.000898361,0,
00:00.9,0.000526428,0.004577637,0.000904083,0,
00:00.9,0.000555038,0.004623413,0.000875473,0,
00:00.9,0.000589371,0.004611969,0.000921249,0,
00:00.9,0.000577927,0.004583359,0.000938416,0,
00:00.9,0.00056076,0.004566193,0.000909805,0,
00:00.9,0.000595093,0.004611969,0.000881195,0,
00:00.9,0.000595093,0.004652023,0.000852585,0,
00:00.9,0.000549316,0.004594803,0.000858307,0,
00:00.9,0.000572205,0.004594803,0.000886917,0,
00:00.9,0.000566483,0.004583359,0.000869751,0,
00:00.9,0.000543594,0.00453186,0.000898361,0,
00:00.9,0.000537872,0.00453186,0.000904083,0,
00:00.9,0.000589371,0.004623413,0.000886917,0,
00:00.9,0.000612259,0.004657745,0.000909805,0,
00:00.9,0.000566483,0.004652023,0.000852585,0,
00:00.9,0.000509262,0.004549026,0.000875473,0,
00:00.9,0.000555038,0.004554749,0.000932693,0,
00:00.9,0.000583649,0.004577637,0.000886917,0,
00:00.9,0.000595093,0.004600525,0.000881195,0,
00:01.0,0.000623703,0.004640579,0.000846863,0,
00:01.0,0.000612259,0.004629135,0.000846863,0,
00:01.0,0.000595093,0.004611969,0.000886917,0,
00:01.0,0.000589371,0.004600525,0.000926971,0,
00:01.0,0.00056076,0.004589081,0.000892639,0,
00:01.0,0.00056076,0.004623413,0.000864029,0,
00:01.0,0.000566483,0.004600525,0.000881195,0,
00:01.0,0.000600815,0.004652023,0.000846863,0,
00:01.0,0.000549316,0.004634857,0.000881195,0,
00:01.0,0.000537872,0.004566193,0.000898361,0,
00:01.0,0.000566483,0.004594803,0.000892639,0,
00:01.0,0.00056076,0.004611969,0.000852585,0,
00:00:01,0.000612259,0.004692078,0.000881195,0,
00:01.0,0.000617981,0.004640579,0.000915527,0,
00:01.0,0.000577927,0.004571915,0.000915527,0,
00:01.0,0.000549316,0.004566193,0.000886917,0,
00:01.0,0.00053215,0.004606247,0.000864029,0,
00:01.0,0.00056076,0.004611969,0.000841141,0,
00:01.0,0.000583649,0.004617691,0.000886917,0,
00:01.0,0.000595093,0.004652023,0.000841141,0,
00:01.0,0.000566483,0.004669189,0.000869751,0,
00:01.0,0.000537872,0.004566193,0.000909805,0,
00:01.0,0.000572205,0.004566193,0.000875473,0,
00:01.0,0.000606537,0.004611969,0.000864029,0,
00:01.0,0.000606537,0.004646301,0.000881195,0,
00:01.1,0.000595093,0.004674911,0.000852585,0,
00:01.1,0.000595093,0.004652023,0.000858307,0,
00:01.1,0.000566483,0.004611969,0.000881195,0,
00:01.1,0.000543594,0.004600525,0.000909805,0,
00:01.1,0.000549316,0.004623413,0.000886917,0,
00:01.1,0.00056076,0.004611969,0.000875473,0,
00:01.1,0.000566483,0.004617691,0.000881195,0,
00:01.1,0.000583649,0.004652023,0.000841141,0,
00:01.1,0.000583649,0.004646301,0.000886917,0,
00:01.1,0.000555038,0.004611969,0.000892639,0,
00:01.1,0.000577927,0.004629135,0.000864029,0,
00:01.1,0.000577927,0.004611969,0.000875473,0,
00:01.1,0.000572205,0.004617691,0.000881195,0,
00:01.1,0.000566483,0.004623413,0.000881195,0,
00:01.1,0.000537872,0.004600525,0.000898361,0,
00:01.1,0.000526428,0.004611969,0.000869751,0,
00:01.1,0.000572205,0.004623413,0.000846863,0,
00:01.1,0.000606537,0.004634857,0.000858307,0,
00:01.1,0.000572205,0.004646301,0.000852585,0,
00:01.1,0.00056076,0.0046978,0.000858307,0,
00:01.1,0.00053215,0.004646301,0.000852585,0,
00:01.1,0.000577927,0.004611969,0.000886917,0,
00:01.1,0.000566483,0.004623413,0.000892639,0,
00:01.1,0.000526428,0.004640579,0.000835419,0,
00:01.1,0.000555038,0.004652023,0.000812531,0,
00:01.2,0.000606537,0.004663467,0.000858307,0,
00:01.2,0.00056076,0.004617691,0.000875473,0,
00:01.2,0.000572205,0.004634857,0.000858307,0,
00:01.2,0.000572205,0.004617691,0.000904083,0,
00:01.2,0.000589371,0.004600525,0.000904083,0,
00:01.2,0.000595093,0.004674911,0.000852585,0,
00:01.2,0.000555038,0.004674911,0.000846863,0,
00:01.2,0.000526428,0.004652023,0.000869751,0,
00:01.2,0.00053215,0.004657745,0.000875473,0,
00:01.2,0.000537872,0.004652023,0.000858307,0,
00:01.2,0.00056076,0.004640579,0.000841141,0,
00:01.2,0.000606537,0.004657745,0.000858307,0,
00:01.2,0.000640869,0.004674911,0.000898361,0,
00:01.2,0.000589371,0.004680634,0.000864029,0,
00:01.2,0.000497818,0.004600525,0.000852585,0,
00:01.2,0.000549316,0.004646301,0.000864029,0,
00:01.2,0.000555038,0.004652023,0.000869751,0,
00:01.2,0.00056076,0.004657745,0.000846863,0,
00:01.2,0.000583649,0.004674911,0.000875473,0,
00:01.2,0.000572205,0.004669189,0.000869751,0,
00:01.2,0.000549316,0.004623413,0.000869751,0,
00:01.2,0.00056076,0.004600525,0.000852585,0,
00:01.2,0.000549316,0.004657745,0.000869751,0,
00:01.2,0.000577927,0.0046978,0.000869751,0,
00:01.2,0.000635147,0.004737854,0.000795364,0,
00:01.3,0.000566483,0.004686356,0.000841141,0,
00:01.3,0.000492096,0.004606247,0.000875473,0,
00:01.3,0.00056076,0.004623413,0.000864029,0,
00:01.3,0.000589371,0.004663467,0.000841141,0,
00:01.3,0.000595093,0.0046978,0.000795364,0,
00:01.3,0.000577927,0.004692078,0.000869751,0,
00:01.3,0.000583649,0.004652023,0.000858307,0,
00:01.3,0.000566483,0.004634857,0.000898361,0,
00:01.3,0.00053215,0.004629135,0.000898361,0,
00:01.3,0.00056076,0.004663467,0.000858307,0,
00:01.3,0.000577927,0.004680634,0.000829697,0,
00:01.3,0.000600815,0.004703522,0.000818253,0,
00:01.3,0.000583649,0.004680634,0.000852585,0,
00:01.3,0.000543594,0.004611969,0.000864029,0,
00:01.3,0.000549316,0.004629135,0.000852585,0,
00:01.3,0.000589371,0.0046978,0.000852585,0,
00:01.3,0.00056076,0.004692078,0.000846863,0,
00:01.3,0.000480652,0.004629135,0.000886917,0,
00:01.3,0.000589371,0.00472641,0.000864029,0,
00:01.3,0.000629425,0.004720688,0.000823975,0,
00:01.3,0.000572205,0.004640579,0.000875473,0,
00:01.3,0.000543594,0.004640579,0.000864029,0,
00:01.3,0.000555038,0.004634857,0.000864029,0,
00:01.3,0.000589371,0.004669189,0.000858307,0,
00:01.3,0.000595093,0.004657745,0.000841141,0,
00:01.4,0.000589371,0.004663467,0.000789642,0,
00:01.4,0.000572205,0.004674911,0.000823975,0,
00:01.4,0.000555038,0.004663467,0.000858307,0,
00:01.4,0.000600815,0.0046978,0.000869751,0,
00:01.4,0.000623703,0.004692078,0.000875473,0,
00:01.4,0.000583649,0.004692078,0.000846863,0,
00:01.4,0.000555038,0.004680634,0.000858307,0,
00:01.4,0.000555038,0.004629135,0.000864029,0,
00:01.4,0.000572205,0.004669189,0.000852585,0,
00:01.4,0.000572205,0.004720688,0.000864029,0,
00:01.4,0.000537872,0.004640579,0.000869751,0,
00:01.4,0.000543594,0.004669189,0.000823975,0,
00:01.4,0.00056076,0.004703522,0.000818253,0,
00:01.4,0.000566483,0.004703522,0.000869751,0,
00:01.4,0.00053215,0.004646301,0.000886917,0,
00:01.4,0.000566483,0.004657745,0.000909805,0,
00:01.4,0.000572205,0.004674911,0.000875473,0,
00:01.4,0.000595093,0.004686356,0.000835419,0,
00:01.4,0.000600815,0.0046978,0.000823975,0,
00:01.4,0.000572205,0.004703522,0.000835419,0,
00:01.4,0.000566483,0.004703522,0.000789642,0,
00:01.4,0.000583649,0.004674911,0.000841141,0,
00:01.4,0.00056076,0.004703522,0.000852585,0,
00:01.4,0.00056076,0.004703522,0.000886917,0,
00:01.4,0.000549316,0.004657745,0.000886917,0,
00:01.5,0.000566483,0.004646301,0.000875473,0,
00:01.5,0.000555038,0.004663467,0.000846863,0,
00:01.5,0.000577927,0.004686356,0.000823975,0,
00:01.5,0.000595093,0.004703522,0.000835419,0,
00:01.5,0.000555038,0.0046978,0.000829697,0,
00:01.5,0.00056076,0.004692078,0.000823975,0,
00:01.5,0.000572205,0.004720688,0.000841141,0,
00:01.5,0.00056076,0.004686356,0.000835419,0,
00:01.5,0.000589371,0.004709244,0.000886917,0,
00:01.5,0.000589371,0.004680634,0.000864029,0,
00:01.5,0.00056076,0.004674911,0.000858307,0,
00:01.5,0.000555038,0.004680634,0.000846863,0,
00:01.5,0.000606537,0.004703522,0.000801086,0,
00:01.5,0.000617981,0.004686356,0.000858307,0,
00:01.5,0.000566483,0.004669189,0.000875473,0,
00:01.5,0.000543594,0.00472641,0.000858307,0,
00:01.5,0.000509262,0.004669189,0.000881195,0,
00:01.5,0.000509262,0.004669189,0.000864029,0,
00:01.5,0.00056076,0.004714966,0.000852585,0,
00:01.5,0.000595093,0.004703522,0.000846863,0,
00:01.5,0.000589371,0.004714966,0.000806808,0,
00:01.5,0.000589371,0.004692078,0.000829697,0,
00:01.5,0.000549316,0.004657745,0.000852585,0,
00:01.5,0.00056076,0.004692078,0.000852585,0,
00:01.5,0.000572205,0.004686356,0.000841141,0,
00:01.6,0.000572205,0.004714966,0.000835419,0,
00:01.6,0.000555038,0.004737854,0.000829697,0,
00:01.6,0.000577927,0.004777908,0.000818253,0,
00:01.6,0.00056076,0.004737854,0.000823975,0,
00:01.6,0.000520706,0.004629135,0.000881195,0,
00:01.6,0.00056076,0.004652023,0.000892639,0,
00:01.6,0.000549316,0.004674911,0.000841141,0,
00:01.6,0.000537872,0.004714966,0.000835419,0,
00:01.6,0.000617981,0.00472641,0.000829697,0,
00:01.6,0.000612259,0.004709244,0.000858307,0,
00:01.6,0.000526428,0.004657745,0.000864029,0,
00:01.6,0.000549316,0.00472641,0.000841141,0,
00:01.6,0.000600815,0.004772186,0.000829697,0,
00:01.6,0.000595093,0.004709244,0.000841141,0,
00:01.6,0.000543594,0.0046978,0.000766754,0,
00:01.6,0.000549316,0.004703522,0.000823975,0,
00:01.6,0.000572205,0.004703522,0.000864029,0,
00:01.6,0.000600815,0.004743576,0.000852585,0,
00:01.6,0.000549316,0.004686356,0.000858307,0,
00:01.6,0.000526428,0.004657745,0.000864029,0,
00:01.6,0.000549316,0.004686356,0.000858307,0,
00:01.6,0.000566483,0.004720688,0.000846863,0,
00:01.6,0.000583649,0.004732132,0.000818253,0,
00:01.6,0.000543594,0.004703522,0.000835419,0,
00:01.6,0.000549316,0.004720688,0.000823975,0,
00:01.7,0.000589371,0.004743576,0.000829697,0,
00:01.7,0.00053215,0.004732132,0.000846863,0,
00:01.7,0.000543594,0.004686356,0.000858307,0,
00:01.7,0.00053215,0.004686356,0.000823975,0,
00:01.7,0.000572205,0.004743576,0.000818253,0,
00:01.7,0.000600815,0.00472641,0.000835419,0,
00:01.7,0.00056076,0.004692078,0.000869751,0,
00:01.7,0.000572205,0.004714966,0.000835419,0,
00:01.7,0.000577927,0.004732132,0.000846863,0,
00:01.7,0.000566483,0.004720688,0.000846863,0,
00:01.7,0.000555038,0.004720688,0.000812531,0,
00:01.7,0.000555038,0.004732132,0.000801086,0,
00:01.7,0.000583649,0.004709244,0.000841141,0,
00:01.7,0.000600815,0.004743576,0.000818253,0,
00:01.7,0.000520706,0.004703522,0.000806808,0,
00:01.7,0.000543594,0.004714966,0.000858307,0,
00:01.7,0.000549316,0.004703522,0.000869751,0,
00:01.7,0.000549316,0.004709244,0.000829697,0,
00:01.7,0.000589371,0.00478363,0.000823975,0,
00:01.7,0.000617981,0.004777908,0.000806808,0,
00:01.7,0.000623703,0.00475502,0.000766754,0,
00:01.7,0.000577927,0.004737854,0.000801086,0,
00:01.7,0.000492096,0.004703522,0.000869751,0,
00:01.7,0.000520706,0.004692078,0.000886917,0,
00:01.7,0.000549316,0.004703522,0.000835419,0,
00:01.8,0.000526428,0.0046978,0.000806808,0,
00:01.8,0.000549316,0.004714966,0.000841141,0,
00:01.8,0.000566483,0.004743576,0.000835419,0,
00:01.8,0.000623703,0.004800797,0.000812531,0,
00:01.8,0.000658035,0.00478363,0.000772476,0,
00:01.8,0.000555038,0.00472641,0.000801086,0,
00:01.8,0.000526428,0.004709244,0.000829697,0,
00:01.8,0.00053215,0.004709244,0.000818253,0,
00:01.8,0.000526428,0.004692078,0.000852585,0,
00:01.8,0.000537872,0.0046978,0.000846863,0,
00:01.8,0.000566483,0.004749298,0.000869751,0,
00:01.8,0.000572205,0.004737854,0.000829697,0,
00:01.8,0.00056076,0.004709244,0.000835419,0,
00:01.8,0.000572205,0.004720688,0.000835419,0,
00:01.8,0.000577927,0.00478363,0.000766754,0,
00:01.8,0.000600815,0.004800797,0.000789642,0,
00:01.8,0.000577927,0.00472641,0.000841141,0,
00:01.8,0.000520706,0.004686356,0.000858307,0,
00:01.8,0.000543594,0.0046978,0.000841141,0,
00:01.8,0.000572205,0.004737854,0.000812531,0,
00:01.8,0.000566483,0.004760742,0.000761032,0,
00:01.8,0.000572205,0.004789352,0.000772476,0,
00:01.8,0.000549316,0.004720688,0.000829697,0,
00:01.8,0.000566483,0.004692078,0.000869751,0,
00:01.8,0.000566483,0.004777908,0.000812531,0,
00:01.9,0.000577927,0.004766464,0.000812531,0,
00:01.9,0.000549316,0.004720688,0.000829697,0,
00:01.9,0.000543594,0.004680634,0.000852585,0,
00:01.9,0.00056076,0.004743576,0.000829697,0,
00:01.9,0.000549316,0.004749298,0.00078392,0,
00:01.9,0.00056076,0.004749298,0.00078392,0,
00:01.9,0.000572205,0.00475502,0.000835419,0,
00:01.9,0.000577927,0.004749298,0.000846863,0,
00:01.9,0.000606537,0.004772186,0.000812531,0,
00:01.9,0.000566483,0.004749298,0.000801086,0,
00:01.9,0.000497818,0.00472641,0.000829697,0,
00:01.9,0.000486374,0.004703522,0.000835419,0,
00:01.9,0.00056076,0.004737854,0.00078392,0,
00:01.9,0.000583649,0.00478363,0.000766754,0,
00:01.9,0.000572205,0.004766464,0.000812531,0,
00:01.9,0.000577927,0.004760742,0.000835419,0,
00:01.9,0.000577927,0.00478363,0.000841141,0,
00:01.9,0.000572205,0.004766464,0.000829697,0,
00:01.9,0.000612259,0.004789352,0.000801086,0,
00:01.9,0.000606537,0.004829407,0.000806808,0,
00:01.9,0.000549316,0.004737854,0.000823975,0,
00:01.9,0.000543594,0.004749298,0.000801086,0,
00:01.9,0.000537872,0.004737854,0.000829697,0,
00:01.9,0.000543594,0.004737854,0.000835419,0,
00:01.9,0.00056076,0.004789352,0.000806808,0,
00:02.0,0.000572205,0.00475502,0.000795364,0,
00:02.0,0.000555038,0.00472641,0.000795364,0,
00:02.0,0.000549316,0.004743576,0.000823975,0,
00:02.0,0.000555038,0.004772186,0.000818253,0,
00:02.0,0.000549316,0.004772186,0.000841141,0,
00:02.0,0.000543594,0.004760742,0.000841141,0,
00:02.0,0.000543594,0.004743576,0.000841141,0,
00:02.0,0.000566483,0.004760742,0.000789642,0,
00:02.0,0.000583649,0.004789352,0.000795364,0,
00:02.0,0.000652313,0.004823685,0.000749588,0,
00:02.0,0.000652313,0.004772186,0.000761032,0,
00:02.0,0.000520706,0.004703522,0.000835419,0,
00:00:02,0.00050354,0.004720688,0.000835419,0,
00:02.0,0.000549316,0.004743576,0.000852585,0,
00:02.0,0.000520706,0.00475502,0.000806808,0,
00:02.0,0.000537872,0.004777908,0.000812531,0,
00:02.0,0.000572205,0.004800797,0.000835419,0,
00:02.0,0.000595093,0.004800797,0.000835419,0,
00:02.0,0.000577927,0.004737854,0.000829697,0,
00:02.0,0.000555038,0.00478363,0.000806808,0,
00:02.0,0.000526428,0.004766464,0.000841141,0,
00:02.0,0.000520706,0.00475502,0.000812531,0,
00:02.0,0.000549316,0.004760742,0.000829697,0,
00:02.0,0.000572205,0.004777908,0.000818253,0,
00:02.0,0.000583649,0.004789352,0.000789642,0,
00:02.1,0.00056076,0.004760742,0.000812531,0,
00:02.1,0.000537872,0.004772186,0.000829697,0,
00:02.1,0.000526428,0.00478363,0.000806808,0,
00:02.1,0.000537872,0.004766464,0.000829697,0,
00:02.1,0.000617981,0.00475502,0.000812531,0,
00:02.1,0.000635147,0.004766464,0.000823975,0,
00:02.1,0.000555038,0.004766464,0.000841141,0,
00:02.1,0.000526428,0.004766464,0.000823975,0,
00:02.1,0.000543594,0.004800797,0.000801086,0,
00:02.1,0.000549316,0.004777908,0.000761032,0,
00:02.1,0.000606537,0.004772186,0.000778198,0,
00:02.1,0.000589371,0.004789352,0.000829697,0,
00:02.1,0.00053215,0.004760742,0.000858307,0,
00:02.1,0.00053215,0.00475502,0.000869751,0,
00:02.1,0.000549316,0.004766464,0.000835419,0,
00:02.1,0.000543594,0.004760742,0.000812531,0,
00:02.1,0.00056076,0.004795074,0.000818253,0,
00:02.1,0.000589371,0.004800797,0.000801086,0,
00:02.1,0.000595093,0.004789352,0.000789642,0,
00:02.1,0.000572205,0.004777908,0.000818253,0,
00:02.1,0.00050354,0.004749298,0.000829697,0,
00:02.1,0.000514984,0.004749298,0.000829697,0,
00:02.1,0.000549316,0.00475502,0.000812531,0,
00:02.1,0.000577927,0.004777908,0.000829697,0,
00:02.1,0.000583649,0.004800797,0.000789642,0,
00:02.2,0.000543594,0.004795074,0.000823975,0,
00:02.2,0.000526428,0.004789352,0.000852585,0,
00:02.2,0.000572205,0.00478363,0.000823975,0,
00:02.2,0.000555038,0.004766464,0.000864029,0,
00:02.2,0.000566483,0.004777908,0.000835419,0,
00:02.2,0.000572205,0.004795074,0.000795364,0,
00:02.2,0.00053215,0.004789352,0.00078392,0,
00:02.2,0.00056076,0.004823685,0.000835419,0,
00:02.2,0.000566483,0.004777908,0.000858307,0,
00:02.2,0.000572205,0.004760742,0.000818253,0,
00:02.2,0.00056076,0.004772186,0.000823975,0,
00:02.2,0.00053215,0.004743576,0.000852585,0,
00:02.2,0.000566483,0.004777908,0.000835419,0,
00:02.2,0.000606537,0.004823685,0.000812531,0,
00:02.2,0.000612259,0.004806519,0.00075531,0,
00:02.2,0.000612259,0.004772186,0.000795364,0,
00:02.2,0.000566483,0.004777908,0.000869751,0,
00:02.2,0.000514984,0.004789352,0.000812531,0,
00:02.2,0.000514984,0.004766464,0.000812531,0,
00:02.2,0.00053215,0.00475502,0.000829697,0,
00:02.2,0.000577927,0.004795074,0.000852585,0,
00:02.2,0.000600815,0.004812241,0.000841141,0,
00:02.2,0.000543594,0.004800797,0.000835419,0,
00:02.2,0.00053215,0.004766464,0.000823975,0,
00:02.2,0.00053215,0.004777908,0.000829697,0,
00:02.3,0.000555038,0.004823685,0.000806808,0,
00:02.3,0.000577927,0.004829407,0.000806808,0,
00:02.3,0.000566483,0.004806519,0.000818253,0,
00:02.3,0.000572205,0.004812241,0.000829697,0,
00:02.3,0.000537872,0.004743576,0.000829697,0,
00:02.3,0.00056076,0.004772186,0.000841141,0,
00:02.3,0.000566483,0.004777908,0.000846863,0,
00:02.3,0.000583649,0.004795074,0.000829697,0,
00:02.3,0.000595093,0.004863739,0.000812531,0,
00:02.3,0.000543594,0.004806519,0.000795364,0,
00:02.3,0.000537872,0.004749298,0.000823975,0,
00:02.3,0.000509262,0.004777908,0.000829697,0,
00:02.3,0.000520706,0.004823685,0.000823975,0,
00:02.3,0.00056076,0.004812241,0.000801086,0,
00:02.3,0.000555038,0.00478363,0.000806808,0,
00:02.3,0.000537872,0.004812241,0.000795364,0,
00:02.3,0.000600815,0.004829407,0.000829697,0,
00:02.3,0.000583649,0.004806519,0.000846863,0,
00:02.3,0.000577927,0.004789352,0.000835419,0,
00:02.3,0.000566483,0.00478363,0.000812531,0,
00:02.3,0.000572205,0.004800797,0.000852585,0,
00:02.3,0.000566483,0.004817963,0.000823975,0,
00:02.3,0.000583649,0.004840851,0.000812531,0,
00:02.3,0.000537872,0.004749298,0.000864029,0,
00:02.3,0.000549316,0.00475502,0.000858307,0,
00:02.4,0.000555038,0.004795074,0.000841141,0,
00:02.4,0.000572205,0.004829407,0.000823975,0,
00:02.4,0.000566483,0.004858017,0.000818253,0,
00:02.4,0.000549316,0.004823685,0.000806808,0,
00:02.4,0.00056076,0.004812241,0.000835419,0,
00:02.4,0.000549316,0.004766464,0.000818253,0,
00:02.4,0.00056076,0.004806519,0.000829697,0,
00:02.4,0.000566483,0.004823685,0.000852585,0,
00:02.4,0.000549316,0.004789352,0.000841141,0,
00:02.4,0.000566483,0.004817963,0.000829697,0,
00:02.4,0.000520706,0.004795074,0.000829697,0,
00:02.4,0.000543594,0.004840851,0.000818253,0,
00:02.4,0.000583649,0.004846573,0.000823975,0,
00:02.4,0.000589371,0.004795074,0.000812531,0,
00:02.4,0.000566483,0.004817963,0.00078392,0,
00:02.4,0.000526428,0.004817963,0.000829697,0,
00:02.4,0.000526428,0.004806519,0.000858307,0,
00:02.4,0.00056076,0.004806519,0.000869751,0,
00:02.4,0.000537872,0.004823685,0.000858307,0,
00:02.4,0.000572205,0.004852295,0.000835419,0,
00:02.4,0.00053215,0.004823685,0.000841141,0,
00:02.4,0.000497818,0.00475502,0.000818253,0,
00:02.4,0.00056076,0.004777908,0.000829697,0,
00:02.4,0.000577927,0.004817963,0.000841141,0,
00:02.4,0.00056076,0.004835129,0.000858307,0,
00:02.5,0.000566483,0.004835129,0.000852585,0,
00:02.5,0.000543594,0.004829407,0.000818253,0,
00:02.5,0.000583649,0.004869461,0.000806808,0,
00:02.5,0.000612259,0.004840851,0.000823975,0,
00:02.5,0.000589371,0.004846573,0.000823975,0,
00:02.5,0.000549316,0.004852295,0.000823975,0,
00:02.5,0.000549316,0.004858017,0.000852585,0,
00:02.5,0.000566483,0.004829407,0.000881195,0,
00:02.5,0.00053215,0.004800797,0.000846863,0,
00:02.5,0.00053215,0.004806519,0.000829697,0,
00:02.5,0.000543594,0.004800797,0.000823975,0,
00:02.5,0.000549316,0.004817963,0.000829697,0,
00:02.5,0.000549316,0.004829407,0.000829697,0,
00:02.5,0.000543594,0.004817963,0.000852585,0,
00:02.5,0.00053215,0.004835129,0.000829697,0,
00:02.5,0.000543594,0.004852295,0.000812531,0,
00:02.5,0.000555038,0.004812241,0.000835419,0,
00:02.5,0.00056076,0.004812241,0.000829697,0,
00:02.5,0.000537872,0.004812241,0.000835419,0,
00:02.5,0.000572205,0.004823685,0.000852585,0,
00:02.5,0.000572205,0.004817963,0.000818253,0,
00:02.5,0.000520706,0.004823685,0.000841141,0,
00:02.5,0.000549316,0.004846573,0.000846863,0,
00:02.5,0.000572205,0.004869461,0.000806808,0,
00:02.5,0.000595093,0.004875183,0.000829697,0,
00:02.6,0.000583649,0.004840851,0.000869751,0,
00:02.6,0.000572205,0.004835129,0.000852585,0,
00:02.6,0.00050354,0.004829407,0.000806808,0,
00:02.6,0.000497818,0.004812241,0.000869751,0,
00:02.6,0.00056076,0.004846573,0.000875473,0,
00:02.6,0.000572205,0.004846573,0.000841141,0,
00:02.6,0.000572205,0.004852295,0.000835419,0,
00:02.6,0.000577927,0.004869461,0.000818253,0,
00:02.6,0.000543594,0.004812241,0.000846863,0,
00:02.6,0.000543594,0.004800797,0.000846863,0,
00:02.6,0.000555038,0.004812241,0.000864029,0,
00:02.6,0.000549316,0.004823685,0.000846863,0,
00:02.6,0.000555038,0.004840851,0.000823975,0,
00:02.6,0.000589371,0.004892349,0.000812531,0,
00:02.6,0.000600815,0.004903793,0.000818253,0,
00:02.6,0.000526428,0.00478363,0.000875473,0,
00:02.6,0.000492096,0.004760742,0.000875473,0,
00:02.6,0.000520706,0.004800797,0.000835419,0,
00:02.6,0.00053215,0.004823685,0.000852585,0,
00:02.6,0.000520706,0.004869461,0.000846863,0,
00:02.6,0.00056076,0.004840851,0.000835419,0,
00:02.6,0.000589371,0.004817963,0.000841141,0,
00:02.6,0.000606537,0.004852295,0.000841141,0,
00:02.6,0.000577927,0.004846573,0.000823975,0,
00:02.6,0.000537872,0.004835129,0.000852585,0,
00:02.7,0.000537872,0.004840851,0.000852585,0,
00:02.7,0.000583649,0.004858017,0.000818253,0,
00:02.7,0.000572205,0.004858017,0.000846863,0,
00:02.7,0.000537872,0.004835129,0.000841141,0,
00:02.7,0.00053215,0.004800797,0.000864029,0,
00:02.7,0.00053215,0.004835129,0.000858307,0,
00:02.7,0.000543594,0.004840851,0.000881195,0,
00:02.7,0.00053215,0.004817963,0.000841141,0,
00:02.7,0.000577927,0.004886627,0.000818253,0,
00:02.7,0.000572205,0.004880905,0.000852585,0,
00:02.7,0.000583649,0.004898071,0.000835419,0,
00:02.7,0.000520706,0.004800797,0.000864029,0,
00:02.7,0.000537872,0.004777908,0.000881195,0,
00:02.7,0.000537872,0.004812241,0.000864029,0,
00:02.7,0.000526428,0.004840851,0.000858307,0,
00:02.7,0.000555038,0.004846573,0.000864029,0,
00:02.7,0.000583649,0.004858017,0.000852585,0,
00:02.7,0.00056076,0.004880905,0.000864029,0,
00:02.7,0.000520706,0.004852295,0.000812531,0,
00:02.7,0.000526428,0.004806519,0.000818253,0,
00:02.7,0.000589371,0.004875183,0.000829697,0,
00:02.7,0.000595093,0.004886627,0.000852585,0,
00:02.7,0.000595093,0.004835129,0.000881195,0,
00:02.7,0.000572205,0.004863739,0.000835419,0,
00:02.7,0.000543594,0.004863739,0.000789642,0,
00:02.8,0.00056076,0.004852295,0.000858307,0,
00:02.8,0.000549316,0.004869461,0.000864029,0,
00:02.8,0.000595093,0.004915237,0.000835419,0,
00:02.8,0.000549316,0.004812241,0.000892639,0,
00:02.8,0.000543594,0.004800797,0.000869751,0,
00:02.8,0.000520706,0.004800797,0.000852585,0,
00:02.8,0.000549316,0.004858017,0.000858307,0,
00:02.8,0.000583649,0.004858017,0.000864029,0,
00:02.8,0.000549316,0.004863739,0.000864029,0,
00:02.8,0.000555038,0.004858017,0.000829697,0,
00:02.8,0.000555038,0.004858017,0.000835419,0,
00:02.8,0.000543594,0.004846573,0.000869751,0,
00:02.8,0.000549316,0.004840851,0.000864029,0,
00:02.8,0.000566483,0.004869461,0.000835419,0,
00:02.8,0.000577927,0.004880905,0.000801086,0,
00:02.8,0.00056076,0.004846573,0.000841141,0,
00:02.8,0.000577927,0.004835129,0.000841141,0,
00:02.8,0.00056076,0.004823685,0.000869751,0,
00:02.8,0.000577927,0.004858017,0.000881195,0,
00:02.8,0.000600815,0.004863739,0.000858307,0,
00:02.8,0.000606537,0.004869461,0.000846863,0,
00:02.8,0.000555038,0.004886627,0.000858307,0,
00:02.8,0.000537872,0.004880905,0.000864029,0,
00:02.8,0.000526428,0.004846573,0.000858307,0,
00:02.8,0.000543594,0.004846573,0.000858307,0,
00:02.9,0.00053215,0.004846573,0.000886917,0,
00:02.9,0.000572205,0.004898071,0.000852585,0,
00:02.9,0.000595093,0.004915237,0.000829697,0,
00:02.9,0.000543594,0.004840851,0.000841141,0,
00:02.9,0.00053215,0.004835129,0.000864029,0,
00:02.9,0.000566483,0.004875183,0.000864029,0,
00:02.9,0.000595093,0.004920959,0.000858307,0,
00:02.9,0.000589371,0.004875183,0.000852585,0,
00:02.9,0.000549316,0.004829407,0.000858307,0,
00:02.9,0.000537872,0.004829407,0.000864029,0,
00:02.9,0.000514984,0.004806519,0.000875473,0,
00:02.9,0.000566483,0.004869461,0.000869751,0,
00:02.9,0.000600815,0.004932404,0.000835419,0,
00:02.9,0.000577927,0.004926682,0.000858307,0,
00:02.9,0.00050354,0.004840851,0.000864029,0,
00:02.9,0.000537872,0.004852295,0.000846863,0,
00:02.9,0.000566483,0.004886627,0.000841141,0,
00:02.9,0.000543594,0.004880905,0.000864029,0,
00:02.9,0.000555038,0.004863739,0.000864029,0,
00:02.9,0.00056076,0.004863739,0.000858307,0,
00:02.9,0.000577927,0.004892349,0.000846863,0,
00:02.9,0.000572205,0.004886627,0.000801086,0,
00:02.9,0.000572205,0.004875183,0.000812531,0,
00:02.9,0.000566483,0.004886627,0.000869751,0,
00:02.9,0.000509262,0.004869461,0.000904083,0,
00:03.0,0.00053215,0.004869461,0.000881195,0,
00:03.0,0.000572205,0.004875183,0.000858307,0,
00:03.0,0.000583649,0.004886627,0.000858307,0,
00:03.0,0.000543594,0.004869461,0.000881195,0,
00:03.0,0.000549316,0.004840851,0.000858307,0,
00:03.0,0.000555038,0.004892349,0.000841141,0,
00:03.0,0.00056076,0.004943848,0.000812531,0,
00:03.0,0.000577927,0.004892349,0.000869751,0,
00:03.0,0.000555038,0.004875183,0.000864029,0,
00:03.0,0.000543594,0.004863739,0.000864029,0,
00:03.0,0.00053215,0.004846573,0.000858307,0,
00:03.0,0.000555038,0.004880905,0.000852585,0,
00:00:03,0.00056076,0.004892349,0.000852585,0,
00:03.0,0.000555038,0.004886627,0.000852585,0,
00:03.0,0.000577927,0.004915237,0.000818253,0,
00:03.0,0.000566483,0.004920959,0.000846863,0,
00:03.0,0.000526428,0.004886627,0.000846863,0,
00:03.0,0.000526428,0.004817963,0.000898361,0,
00:03.0,0.000543594,0.004840851,0.000852585,0,
00:03.0,0.000526428,0.004863739,0.000818253,0,
00:03.0,0.000543594,0.004875183,0.000829697,0,
00:03.0,0.000617981,0.004886627,0.000864029,0,
00:03.0,0.000566483,0.004892349,0.000886917,0,
00:03.0,0.000520706,0.004892349,0.000835419,0,
00:03.0,0.00053215,0.004892349,0.000892639,0,
00:03.1,0.00053215,0.004869461,0.000881195,0,
00:03.1,0.000549316,0.004858017,0.000864029,0,
00:03.1,0.000572205,0.004886627,0.000858307,0,
00:03.1,0.000577927,0.004898071,0.000829697,0,
00:03.1,0.000537872,0.004915237,0.000795364,0,
00:03.1,0.000509262,0.004840851,0.000898361,0,
00:03.1,0.00056076,0.004852295,0.000892639,0,
00:03.1,0.000583649,0.004915237,0.000858307,0,
00:03.1,0.00053215,0.004892349,0.000864029,0,
00:03.1,0.000555038,0.004863739,0.000869751,0,
00:03.1,0.000606537,0.004920959,0.000829697,0,
00:03.1,0.000600815,0.004932404,0.000829697,0,
00:03.1,0.000555038,0.004886627,0.000881195,0,
00:03.1,0.000526428,0.004863739,0.000858307,0,
00:03.1,0.00056076,0.004852295,0.000858307,0,
00:03.1,0.000549316,0.004886627,0.000852585,0,
00:03.1,0.000566483,0.004920959,0.000858307,0,
00:03.1,0.00056076,0.004898071,0.000852585,0,
00:03.1,0.00053215,0.004869461,0.000869751,0,
00:03.1,0.00053215,0.004863739,0.000875473,0,
00:03.1,0.000543594,0.004892349,0.000829697,0,
00:03.1,0.000537872,0.004898071,0.000835419,0,
00:03.1,0.00056076,0.004909515,0.000881195,0,
00:03.1,0.000612259,0.004909515,0.000835419,0,
00:03.1,0.000640869,0.004955292,0.000749588,0,
00:03.2,0.000600815,0.004972458,0.000829697,0,
00:03.2,0.000509262,0.004880905,0.000881195,0,
00:03.2,0.000486374,0.004806519,0.000915527,0,
00:03.2,0.000492096,0.004806519,0.000915527,0,
00:03.2,0.000520706,0.004840851,0.000886917,0,
00:03.2,0.00056076,0.004875183,0.000864029,0,
00:03.2,0.000572205,0.004863739,0.000858307,0,
00:03.2,0.000577927,0.004869461,0.000858307,0,
00:03.2,0.000583649,0.004926682,0.000835419,0,
00:03.2,0.000595093,0.004932404,0.000846863,0,
00:03.2,0.00053215,0.004898071,0.000846863,0,
00:03.2,0.000543594,0.004915237,0.000869751,0,
00:03.2,0.000537872,0.004892349,0.000846863,0,
00:03.2,0.00056076,0.004892349,0.000846863,0,
00:03.2,0.000555038,0.004869461,0.000886917,0,
00:03.2,0.000543594,0.004886627,0.000858307,0,
00:03.2,0.000543594,0.004892349,0.000835419,0,
00:03.2,0.000549316,0.004926682,0.000829697,0,
00:03.2,0.000520706,0.004898071,0.000864029,0,
00:03.2,0.000486374,0.004823685,0.000881195,0,
00:03.2,0.000514984,0.004835129,0.000886917,0,
00:03.2,0.000555038,0.004926682,0.000881195,0,
00:03.2,0.000583649,0.004920959,0.000869751,0,
00:03.2,0.000555038,0.004915237,0.000835419,0,
00:03.2,0.000566483,0.004932404,0.000806808,0,
00:03.3,0.00056076,0.004886627,0.000858307,0,
00:03.3,0.000537872,0.004875183,0.000864029,0,
00:03.3,0.000583649,0.004886627,0.000841141,0,
00:03.3,0.000555038,0.004869461,0.000858307,0,
00:03.3,0.000537872,0.004886627,0.000829697,0,
00:03.3,0.000520706,0.004858017,0.000858307,0,
00:03.3,0.000520706,0.004886627,0.000858307,0,
00:03.3,0.00053215,0.004920959,0.000823975,0,
00:03.3,0.000526428,0.004920959,0.000835419,0,
00:03.3,0.000566483,0.004880905,0.000841141,0,
00:03.3,0.00056076,0.004846573,0.000852585,0,
00:03.3,0.00056076,0.004920959,0.000812531,0,
00:03.3,0.000526428,0.004898071,0.000823975,0,
00:03.3,0.00050354,0.004840851,0.000886917,0,
00:03.3,0.000549316,0.004852295,0.000864029,0,
00:03.3,0.000555038,0.004886627,0.000858307,0,
00:03.3,0.000543594,0.004892349,0.000852585,0,
00:03.3,0.00053215,0.004903793,0.000864029,0,
00:03.3,0.000520706,0.004909515,0.000823975,0,
00:03.3,0.000514984,0.004886627,0.000852585,0,
00:03.3,0.000486374,0.004852295,0.000869751,0,
00:03.3,0.000492096,0.004852295,0.000823975,0,
00:03.3,0.000555038,0.004886627,0.000841141,0,
00:03.3,0.000572205,0.004915237,0.000852585,0,
00:03.3,0.000486374,0.004886627,0.000858307,0,
00:03.4,0.00050354,0.004863739,0.000823975,0,
00:03.4,0.000543594,0.004892349,0.000795364,0,
00:03.4,0.000526428,0.004886627,0.000829697,0,
00:03.4,0.000520706,0.004892349,0.000829697,0,
00:03.4,0.00053215,0.004892349,0.000835419,0,
00:03.4,0.000520706,0.004863739,0.000852585,0,
00:03.4,0.000514984,0.004858017,0.000818253,0,
00:03.4,0.000537872,0.004898071,0.000806808,0,
00:03.4,0.00056076,0.004920959,0.000841141,0,
00:03.4,0.000526428,0.004909515,0.000806808,0,
00:03.4,0.000537872,0.004926682,0.000806808,0,
00:03.4,0.000549316,0.004909515,0.000818253,0,
00:03.4,0.000520706,0.004898071,0.000846863,0,
00:03.4,0.000486374,0.004846573,0.000829697,0,
00:03.4,0.000486374,0.004840851,0.000818253,0,
00:03.4,0.000486374,0.004858017,0.000789642,0,
00:03.4,0.000497818,0.004875183,0.00075531,0,
00:03.4,0.00053215,0.004880905,0.000818253,0,
00:03.4,0.000549316,0.004875183,0.000852585,0,
00:03.4,0.000566483,0.004880905,0.000858307,0,
00:03.4,0.000526428,0.004875183,0.000823975,0,
00:03.4,0.00050354,0.004920959,0.000789642,0,
00:03.4,0.000520706,0.004955292,0.000766754,0,
00:03.4,0.000497818,0.004886627,0.000806808,0,
00:03.4,0.000492096,0.004846573,0.000823975,0,
00:03.5,0.000463486,0.004840851,0.000795364,0,
00:03.5,0.00050354,0.004846573,0.000818253,0,
00:03.5,0.000566483,0.004863739,0.000795364,0,
00:03.5,0.000555038,0.004915237,0.000789642,0,
00:03.5,0.000520706,0.004938126,0.000795364,0,
00:03.5,0.00050354,0.004903793,0.000772476,0,
00:03.5,0.000514984,0.004898071,0.00078392,0,
00:03.5,0.000543594,0.004875183,0.000841141,0,
00:03.5,0.000520706,0.004880905,0.000801086,0,
00:03.5,0.000480652,0.004869461,0.000806808,0,
00:03.5,0.000463486,0.004875183,0.000789642,0,
00:03.5,0.000486374,0.004869461,0.000812531,0,
00:03.5,0.000486374,0.004852295,0.000806808,0,
00:03.5,0.000514984,0.004869461,0.000801086,0,
00:03.5,0.000549316,0.004909515,0.000766754,0,
00:03.5,0.000555038,0.004932404,0.00075531,0,
00:03.5,0.000497818,0.004909515,0.000732422,0,
00:03.5,0.000497818,0.004909515,0.000801086,0,
00:03.5,0.000457764,0.004823685,0.000829697,0,
00:03.5,0.000480652,0.004869461,0.000795364,0,
00:03.5,0.000492096,0.004875183,0.000778198,0,
00:03.5,0.000486374,0.004846573,0.000772476,0,
00:03.5,0.000492096,0.004863739,0.00075531,0,
00:03.5,0.00053215,0.004903793,0.000720978,0,
00:03.5,0.00053215,0.004920959,0.000720978,0,
00:03.6,0.000492096,0.004903793,0.000761032,0,
00:03.6,0.000497818,0.004909515,0.000801086,0,
00:03.6,0.000514984,0.004920959,0.000795364,0,
00:03.6,0.000526428,0.004926682,0.000772476,0,
00:03.6,0.000492096,0.004886627,0.00075531,0,
00:03.6,0.000486374,0.004817963,0.00078392,0,
00:03.6,0.000486374,0.004846573,0.000772476,0,
00:03.6,0.000492096,0.004863739,0.000778198,0,
00:03.6,0.00047493,0.004869461,0.000789642,0,
00:03.6,0.000486374,0.004886627,0.000766754,0,
00:03.6,0.00053215,0.004955292,0.000720978,0,
00:03.6,0.00050354,0.00494957,0.000732422,0,
00:03.6,0.00044632,0.004863739,0.000772476,0,
00:03.6,0.000469208,0.004835129,0.000789642,0,
00:03.6,0.00047493,0.004840851,0.000749588,0,
00:03.6,0.000480652,0.004852295,0.000772476,0,
00:03.6,0.000509262,0.004863739,0.000738144,0,
00:03.6,0.00050354,0.004886627,0.000743866,0,
00:03.6,0.00050354,0.004909515,0.000680923,0,
00:03.6,0.000497818,0.004875183,0.000715256,0,
00:03.6,0.000514984,0.004898071,0.000738144,0,
00:03.6,0.000514984,0.004909515,0.000761032,0,
00:03.6,0.000486374,0.004863739,0.000778198,0,
00:03.6,0.000497818,0.004903793,0.000743866,0,
00:03.6,0.000492096,0.004898071,0.000709534,0,
00:03.7,0.000520706,0.004875183,0.000738144,0,
00:03.7,0.000514984,0.004903793,0.000715256,0,
00:03.7,0.000492096,0.004886627,0.000715256,0,
00:03.7,0.000509262,0.004898071,0.000732422,0,
00:03.7,0.000526428,0.004938126,0.000732422,0,
00:03.7,0.000520706,0.004875183,0.000749588,0,
00:03.7,0.000452042,0.004812241,0.000766754,0,
00:03.7,0.000457764,0.004863739,0.00075531,0,
00:03.7,0.000440598,0.004863739,0.000738144,0,
00:03.7,0.00047493,0.004898071,0.000715256,0,
00:03.7,0.000526428,0.004932404,0.000709534,0,
00:03.7,0.000492096,0.004920959,0.000686646,0,
00:03.7,0.000509262,0.004932404,0.000686646,0,
00:03.7,0.000480652,0.004898071,0.0007267,0,
00:03.7,0.00047493,0.004852295,0.00075531,0,
00:03.7,0.000520706,0.004863739,0.000732422,0,
00:03.7,0.000492096,0.004909515,0.000720978,0,
00:03.7,0.00047493,0.004903793,0.000720978,0,
00:03.7,0.000509262,0.004869461,0.000709534,0,
00:03.7,0.000492096,0.004869461,0.000709534,0,
00:03.7,0.000486374,0.004915237,0.000703812,0,
00:03.7,0.000543594,0.004966736,0.000658035,0,
00:03.7,0.000514984,0.004915237,0.000692368,0,
00:03.7,0.000463486,0.004858017,0.000720978,0,
00:03.7,0.00047493,0.004852295,0.00069809,0,
00:03.8,0.000492096,0.004886627,0.00069809,0,
00:03.8,0.00053215,0.004920959,0.000686646,0,
00:03.8,0.000514984,0.004903793,0.000703812,0,
00:03.8,0.000492096,0.004920959,0.00069809,0,
00:03.8,0.000492096,0.004920959,0.000658035,0,
00:03.8,0.000480652,0.004903793,0.000663757,0,
00:03.8,0.00047493,0.004886627,0.000743866,0,
00:03.8,0.000492096,0.004886627,0.000709534,0,
00:03.8,0.000480652,0.004898071,0.000675201,0,
00:03.8,0.00047493,0.004909515,0.000680923,0,
00:03.8,0.000463486,0.004903793,0.00069809,0,
00:03.8,0.000492096,0.004909515,0.000709534,0,
00:03.8,0.000509262,0.004915237,0.000692368,0,
00:03.8,0.000480652,0.004886627,0.000686646,0,
00:03.8,0.000492096,0.004869461,0.000692368,0,
00:03.8,0.00053215,0.004920959,0.000675201,0,
00:03.8,0.000543594,0.004903793,0.000686646,0,
00:03.8,0.000497818,0.004858017,0.000692368,0,
00:03.8,0.000469208,0.004846573,0.000680923,0,
00:03.8,0.00047493,0.004886627,0.000675201,0,
00:03.8,0.00050354,0.004938126,0.000640869,0,
00:03.8,0.000526428,0.004989624,0.000652313,0,
00:03.8,0.000526428,0.004943848,0.000652313,0,
00:03.8,0.000497818,0.004892349,0.000675201,0,
00:03.8,0.000486374,0.004880905,0.000675201,0,
00:03.9,0.00050354,0.004880905,0.000675201,0,
00:03.9,0.00047493,0.004880905,0.000658035,0,
00:03.9,0.000469208,0.004903793,0.000629425,0,
00:03.9,0.000492096,0.004898071,0.000640869,0,
00:03.9,0.00050354,0.004886627,0.000680923,0,
00:03.9,0.00050354,0.004892349,0.000652313,0,
00:03.9,0.000520706,0.004898071,0.000629425,0,
00:03.9,0.00050354,0.004932404,0.000595093,0,
00:03.9,0.000520706,0.004898071,0.000680923,0,
00:03.9,0.000486374,0.004892349,0.000709534,0,
00:03.9,0.000497818,0.004909515,0.000669479,0,
00:03.9,0.00050354,0.004903793,0.000646591,0,
00:03.9,0.00050354,0.004880905,0.000652313,0,
00:03.9,0.00050354,0.004880905,0.000675201,0,
00:03.9,0.000497818,0.004886627,0.000669479,0,
00:03.9,0.00050354,0.004898071,0.000658035,0,
00:03.9,0.000497818,0.004909515,0.000652313,0,
00:03.9,0.000520706,0.004932404,0.000617981,0,
00:03.9,0.000526428,0.004938126,0.000617981,0,
00:03.9,0.000497818,0.004886627,0.000640869,0,
00:03.9,0.000486374,0.004863739,0.000612259,0,
00:03.9,0.000520706,0.004880905,0.000640869,0,
00:03.9,0.000520706,0.004898071,0.000675201,0,
00:03.9,0.000520706,0.004886627,0.000646591,0,
00:03.9,0.000492096,0.004869461,0.000635147,0,
00:04.0,0.00050354,0.004863739,0.000629425,0,
00:04.0,0.000486374,0.004852295,0.000663757,0,
00:04.0,0.000497818,0.004875183,0.000629425,0,
00:04.0,0.000509262,0.004920959,0.000635147,0,
00:04.0,0.00050354,0.004892349,0.000629425,0,
00:04.0,0.000514984,0.004875183,0.000606537,0,
00:04.0,0.000526428,0.004898071,0.000617981,0,
00:04.0,0.000514984,0.004898071,0.000635147,0,
00:04.0,0.00050354,0.004880905,0.000635147,0,
00:04.0,0.000509262,0.004892349,0.000617981,0,
00:04.0,0.00053215,0.004892349,0.000595093,0,
00:04.0,0.000520706,0.004840851,0.000629425,0,
00:00:04,0.000520706,0.004880905,0.000623703,0,
00:04.0,0.000509262,0.004880905,0.000629425,0,
00:04.0,0.000514984,0.004892349,0.000617981,0,
00:04.0,0.000555038,0.004955292,0.000606537,0,
00:04.0,0.000526428,0.004892349,0.000646591,0,
00:04.0,0.00050354,0.004858017,0.000629425,0,
00:04.0,0.00053215,0.004915237,0.000612259,0,
00:04.0,0.000509262,0.004898071,0.000595093,0,
00:04.0,0.000480652,0.004852295,0.000652313,0,
00:04.0,0.000497818,0.004840851,0.000640869,0,
00:04.0,0.000520706,0.004858017,0.000629425,0,
00:04.0,0.000537872,0.004880905,0.000629425,0,
00:04.0,0.000526428,0.004886627,0.000612259,0,
00:04.1,0.000480652,0.004926682,0.000583649,0,
00:04.1,0.000537872,0.004898071,0.000600815,0,
00:04.1,0.000572205,0.004886627,0.000577927,0,
00:04.1,0.000549316,0.004858017,0.000595093,0,
00:04.1,0.000520706,0.004852295,0.000640869,0,
00:04.1,0.000520706,0.004852295,0.000623703,0,
00:04.1,0.000497818,0.004875183,0.000617981,0,
00:04.1,0.000526428,0.004898071,0.000600815,0,
00:04.1,0.00053215,0.004903793,0.000577927,0,
00:04.1,0.000537872,0.004892349,0.000612259,0,
00:04.1,0.00053215,0.004852295,0.000612259,0,
00:04.1,0.000526428,0.004863739,0.000589371,0,
00:04.1,0.000526428,0.004858017,0.000589371,0,
00:04.1,0.00053215,0.004863739,0.000600815,0,
00:04.1,0.00050354,0.004852295,0.000606537,0,
00:04.1,0.000526428,0.004903793,0.000583649,0,
00:04.1,0.00053215,0.004920959,0.000566483,0,
00:04.1,0.000537872,0.004886627,0.000623703,0,
00:04.1,0.000526428,0.004829407,0.000640869,0,
00:04.1,0.000514984,0.004817963,0.000629425,0,
00:04.1,0.000549316,0.004863739,0.000600815,0,
00:04.1,0.000492096,0.004875183,0.000577927,0,
00:04.1,0.000543594,0.004875183,0.000572205,0,
00:04.1,0.000537872,0.004846573,0.000612259,0,
00:04.1,0.000572205,0.004846573,0.000583649,0,
00:04.2,0.000572205,0.004852295,0.000572205,0,
00:04.2,0.000537872,0.004863739,0.000583649,0,
00:04.2,0.000520706,0.004869461,0.000589371,0,
00:04.2,0.00056076,0.004880905,0.000583649,0,
00:04.2,0.00056076,0.004892349,0.000595093,0,
00:04.2,0.000543594,0.004806519,0.000629425,0,
00:04.2,0.000526428,0.004806519,0.000623703,0,
00:04.2,0.00050354,0.004875183,0.000600815,0,
00:04.2,0.000526428,0.004863739,0.000600815,0,
00:04.2,0.000549316,0.004846573,0.000583649,0,
00:04.2,0.00053215,0.004846573,0.000566483,0,
00:04.2,0.000537872,0.004875183,0.000600815,0,
00:04.2,0.000566483,0.004903793,0.000589371,0,
00:04.2,0.000589371,0.004880905,0.000583649,0,
00:04.2,0.000566483,0.004846573,0.000600815,0,
00:04.2,0.00053215,0.004789352,0.000589371,0,
00:04.2,0.000543594,0.004835129,0.000589371,0,
00:04.2,0.000520706,0.004846573,0.000606537,0,
00:04.2,0.00053215,0.004829407,0.000606537,0,
00:04.2,0.000537872,0.004852295,0.000589371,0,
00:04.2,0.000543594,0.004875183,0.000566483,0,
00:04.2,0.000520706,0.004875183,0.000589371,0,
00:04.2,0.000537872,0.004880905,0.000577927,0,
00:04.2,0.000566483,0.004869461,0.000589371,0,
00:04.2,0.000543594,0.004863739,0.000583649,0,
00:04.3,0.000526428,0.004806519,0.000589371,0,
00:04.3,0.000617981,0.004823685,0.000617981,0,
00:04.3,0.000617981,0.004858017,0.000589371,0,
00:04.3,0.000543594,0.004863739,0.000572205,0,
00:04.3,0.000537872,0.004858017,0.000566483,0,
00:04.3,0.000514984,0.004835129,0.000577927,0,
00:04.3,0.000526428,0.004829407,0.00056076,0,
00:04.3,0.000572205,0.004835129,0.000640869,0,
00:04.3,0.000566483,0.004852295,0.000612259,0,
00:04.3,0.000600815,0.004869461,0.000572205,0,
00:04.3,0.000577927,0.004852295,0.00056076,0,
00:04.3,0.000555038,0.004880905,0.000572205,0,
00:04.3,0.000583649,0.004858017,0.000583649,0,
00:04.3,0.000555038,0.004823685,0.000606537,0,
00:04.3,0.000543594,0.004835129,0.000577927,0,
00:04.3,0.000526428,0.004806519,0.000555038,0,
00:04.3,0.00056076,0.004829407,0.000623703,0,
00:04.3,0.000566483,0.004840851,0.000606537,0,
00:04.3,0.000566483,0.004840851,0.000595093,0,
00:04.3,0.000617981,0.004846573,0.000600815,0,
00:04.3,0.000577927,0.004823685,0.000589371,0,
00:04.3,0.000577927,0.004835129,0.000583649,0,
00:04.3,0.000595093,0.004863739,0.00056076,0,
00:04.3,0.000572205,0.004840851,0.000566483,0,
00:04.3,0.000566483,0.004840851,0.000543594,0,
00:04.4,0.000577927,0.004840851,0.00053215,0,
00:04.4,0.000572205,0.004840851,0.00056076,0,
00:04.4,0.00056076,0.004806519,0.000600815,0,
00:04.4,0.000549316,0.004800797,0.000629425,0,
00:04.4,0.000583649,0.004829407,0.000617981,0,
00:04.4,0.000537872,0.004835129,0.000595093,0,
00:04.4,0.00056076,0.004817963,0.000589371,0,
00:04.4,0.000600815,0.004840851,0.000589371,0,
00:04.4,0.000600815,0.004835129,0.00056076,0,
00:04.4,0.00056076,0.004795074,0.00056076,0,
00:04.4,0.000572205,0.004800797,0.000589371,0,
00:04.4,0.000595093,0.004840851,0.000566483,0,
00:04.4,0.000617981,0.004880905,0.00053215,0,
00:04.4,0.000635147,0.004880905,0.000566483,0,
00:04.4,0.000537872,0.004772186,0.000646591,0,
00:04.4,0.00056076,0.004766464,0.000623703,0,
00:04.4,0.000589371,0.004800797,0.000555038,0,
00:04.4,0.000612259,0.004817963,0.000537872,0,
00:04.4,0.000612259,0.004858017,0.000595093,0,
00:04.4,0.000589371,0.004869461,0.000612259,0,
00:04.4,0.000583649,0.004817963,0.000595093,0,
00:04.4,0.000549316,0.004789352,0.000617981,0,
00:04.4,0.000543594,0.004806519,0.000577927,0,
00:04.4,0.000577927,0.004800797,0.000583649,0,
00:04.4,0.000600815,0.004846573,0.000606537,0,
00:04.5,0.000595093,0.004817963,0.000600815,0,
00:04.5,0.000549316,0.004760742,0.000612259,0,
00:04.5,0.000555038,0.004772186,0.000600815,0,
00:04.5,0.000583649,0.004835129,0.000555038,0,
00:04.5,0.000612259,0.004892349,0.00056076,0,
00:04.5,0.000589371,0.004795074,0.000589371,0,
00:04.5,0.000572205,0.004772186,0.000606537,0,
00:04.5,0.000589371,0.004789352,0.000577927,0,
00:04.5,0.000595093,0.004789352,0.000595093,0,
00:04.5,0.000583649,0.004800797,0.000589371,0,
00:04.5,0.000617981,0.004846573,0.00056076,0,
00:04.5,0.000583649,0.004840851,0.000543594,0,
00:04.5,0.000555038,0.004812241,0.000520706,0,
00:04.5,0.000566483,0.004777908,0.000617981,0,
00:04.5,0.000566483,0.00472641,0.000686646,0,
00:04.5,0.000595093,0.004749298,0.000623703,0,
00:04.5,0.000595093,0.004772186,0.000635147,0,
00:04.5,0.000549316,0.004806519,0.000623703,0,
00:04.5,0.000543594,0.004795074,0.000583649,0,
00:04.5,0.000606537,0.004795074,0.000566483,0,
00:04.5,0.000669479,0.004800797,0.000566483,0,
00:04.5,0.000629425,0.004800797,0.000583649,0,
00:04.5,0.000589371,0.004817963,0.000606537,0,
00:04.5,0.000577927,0.004800797,0.000606537,0,
00:04.5,0.000577927,0.00478363,0.000606537,0,
00:04.6,0.000617981,0.004800797,0.000589371,0,
00:04.6,0.000612259,0.004806519,0.000600815,0,
00:04.6,0.000606537,0.004806519,0.000600815,0,
00:04.6,0.000612259,0.004800797,0.000600815,0,
00:04.6,0.000577927,0.00478363,0.000572205,0,
00:04.6,0.000577927,0.004800797,0.000549316,0,
00:04.6,0.000577927,0.00478363,0.000566483,0,
00:04.6,0.000595093,0.004749298,0.000640869,0,
00:04.6,0.000589371,0.004743576,0.000635147,0,
00:04.6,0.000572205,0.004760742,0.000583649,0,
00:04.6,0.000617981,0.004829407,0.000543594,0,
00:04.6,0.000663757,0.004852295,0.000526428,0,
00:04.6,0.000635147,0.004795074,0.000520706,0,
00:04.6,0.000577927,0.004732132,0.000669479,0,
00:04.6,0.000583649,0.004709244,0.000692368,0,
00:04.6,0.000595093,0.004743576,0.000640869,0,
00:04.6,0.000600815,0.00475502,0.000635147,0,
00:04.6,0.000600815,0.004772186,0.000623703,0,
00:04.6,0.000566483,0.004772186,0.000606537,0,
00:04.6,0.000566483,0.00475502,0.000600815,0,
00:04.6,0.000600815,0.00475502,0.000572205,0,
00:04.6,0.000617981,0.004766464,0.000600815,0,
00:04.6,0.000612259,0.004777908,0.000577927,0,
00:04.6,0.000600815,0.004749298,0.000572205,0,
00:04.6,0.000629425,0.004743576,0.000606537,0,
00:04.7,0.000629425,0.004806519,0.000566483,0,
00:04.7,0.000635147,0.004812241,0.000572205,0,
00:04.7,0.000600815,0.004772186,0.000600815,0,
00:04.7,0.000577927,0.004760742,0.000623703,0,
00:04.7,0.000589371,0.00475502,0.000629425,0,
00:04.7,0.000577927,0.0046978,0.000635147,0,
00:04.7,0.000595093,0.004714966,0.000606537,0,
00:04.7,0.000600815,0.004760742,0.000566483,0,
00:04.7,0.000600815,0.00478363,0.000606537,0,
00:04.7,0.000629425,0.004812241,0.000595093,0,
00:04.7,0.000617981,0.004795074,0.000595093,0,
00:04.7,0.000675201,0.004772186,0.000577927,0,
00:04.7,0.000589371,0.004703522,0.000617981,0,
00:04.7,0.000572205,0.004686356,0.000658035,0,
00:04.7,0.000583649,0.004737854,0.000629425,0,
00:04.7,0.000606537,0.004772186,0.000606537,0,
00:04.7,0.000612259,0.004789352,0.000572205,0,
00:04.7,0.000606537,0.004766464,0.00056076,0,
00:04.7,0.000595093,0.0046978,0.000635147,0,
00:04.7,0.000617981,0.004720688,0.000652313,0,
00:04.7,0.000600815,0.004766464,0.000629425,0,
00:04.7,0.000612259,0.004777908,0.000623703,0,
00:04.7,0.000600815,0.004749298,0.000566483,0,
00:04.7,0.000623703,0.00472641,0.000566483,0,
00:04.7,0.000600815,0.004709244,0.000606537,0,
00:04.8,0.000577927,0.00472641,0.000623703,0,
00:04.8,0.000606537,0.00475502,0.000629425,0,
00:04.8,0.000623703,0.004766464,0.000606537,0,
00:04.8,0.00056076,0.004720688,0.000623703,0,
00:04.8,0.000572205,0.004743576,0.000600815,0,
00:04.8,0.000595093,0.004737854,0.000583649,0,
00:04.8,0.000572205,0.0046978,0.000640869,0,
00:04.8,0.000600815,0.004743576,0.000629425,0,
00:04.8,0.000612259,0.00475502,0.000617981,0,
00:04.8,0.000617981,0.004720688,0.000612259,0,
00:04.8,0.000629425,0.004720688,0.000606537,0,
00:04.8,0.000600815,0.004737854,0.000600815,0,
00:04.8,0.000646591,0.004777908,0.000514984,0,
00:04.8,0.000652313,0.004817963,0.000577927,0,
00:04.8,0.000572205,0.0046978,0.000612259,0,
00:04.8,0.000514984,0.004640579,0.000703812,0,
00:04.8,0.000583649,0.004703522,0.000663757,0,
00:04.8,0.000617981,0.004743576,0.000617981,0,
00:04.8,0.000623703,0.00472641,0.000617981,0,
00:04.8,0.000640869,0.004760742,0.000595093,0,
00:04.8,0.000566483,0.004795074,0.000617981,0,
00:04.8,0.000577927,0.004720688,0.000623703,0,
00:04.8,0.000635147,0.004720688,0.000555038,0,
00:04.8,0.000629425,0.004732132,0.000572205,0,
00:04.8,0.000595093,0.004692078,0.000652313,0,
00:04.9,0.000612259,0.0046978,0.000646591,0,
00:04.9,0.000629425,0.004732132,0.000646591,0,
00:04.9,0.000612259,0.00472641,0.000617981,0,
00:04.9,0.000606537,0.004714966,0.000623703,0,
00:04.9,0.000606537,0.004686356,0.000623703,0,
00:04.9,0.000595093,0.004692078,0.000617981,0,
00:04.9,0.000595093,0.00472641,0.000612259,0,
00:04.9,0.000612259,0.00472641,0.000600815,0,
00:04.9,0.000612259,0.004680634,0.000600815,0,
00:04.9,0.000606537,0.004709244,0.000600815,0,
00:04.9,0.000600815,0.004749298,0.000640869,0,
00:04.9,0.000623703,0.004743576,0.000652313,0,
00:04.9,0.000606537,0.004720688,0.000646591,0,
00:04.9,0.000629425,0.004720688,0.000646591,0,
00:04.9,0.000595093,0.004709244,0.000612259,0,
00:04.9,0.000543594,0.004714966,0.000629425,0,
00:04.9,0.00056076,0.004720688,0.000612259,0,
00:04.9,0.000635147,0.004720688,0.000600815,0,
00:04.9,0.000640869,0.004743576,0.000629425,0,
00:04.9,0.000595093,0.00472641,0.000635147,0,
00:04.9,0.000617981,0.004737854,0.000635147,0,
00:04.9,0.000629425,0.004737854,0.000658035,0,
00:04.9,0.000583649,0.004686356,0.000663757,0,
00:04.9,0.000612259,0.004680634,0.000640869,0,
00:04.9,0.000629425,0.0046978,0.000595093,0,
00:05.0,0.000600815,0.0046978,0.000646591,0,
00:05.0,0.000595093,0.004709244,0.000623703,0,
00:05.0,0.000617981,0.00472641,0.000623703,0,
00:05.0,0.000629425,0.00472641,0.000629425,0,
00:05.0,0.000595093,0.004714966,0.000669479,0,
00:05.0,0.000555038,0.004692078,0.000663757,0,
00:05.0,0.000577927,0.004674911,0.000640869,0,
00:05.0,0.000589371,0.004680634,0.000640869,0,
00:05.0,0.000583649,0.004703522,0.000623703,0,
00:05.0,0.000612259,0.00472641,0.000612259,0,
00:05.0,0.000583649,0.004703522,0.000617981,0,
00:05.0,0.000600815,0.004720688,0.000640869,0,
00:00:05,0.000623703,0.004749298,0.000658035,0,
00:05.0,0.000623703,0.004743576,0.000629425,0,
00:05.0,0.000617981,0.004680634,0.000640869,0,
00:05.0,0.000612259,0.004680634,0.000652313,0,
00:05.0,0.000589371,0.004703522,0.000669479,0,
00:05.0,0.000589371,0.004703522,0.000652313,0,
00:05.0,0.000612259,0.00472641,0.000617981,0,
00:05.0,0.000589371,0.004732132,0.000606537,0,
00:05.0,0.000595093,0.004680634,0.000703812,0,
00:05.0,0.000606537,0.004680634,0.000680923,0,
00:05.0,0.000595093,0.004674911,0.000663757,0,
00:05.0,0.000577927,0.004686356,0.000652313,0,
00:05.0,0.000583649,0.004692078,0.000635147,0,
00:05.1,0.000583649,0.004709244,0.000629425,0,
00:05.1,0.000572205,0.004703522,0.000635147,0,
00:05.1,0.000595093,0.004709244,0.000635147,0,
00:05.1,0.000589371,0.0046978,0.000635147,0,
00:05.1,0.000606537,0.004714966,0.000663757,0,
00:05.1,0.000640869,0.004703522,0.000663757,0,
00:05.1,0.000635147,0.004680634,0.000640869,0,
00:05.1,0.000583649,0.004674911,0.000635147,0,
00:05.1,0.000612259,0.0046978,0.000629425,0,
00:05.1,0.000606537,0.004686356,0.000658035,0,
00:05.1,0.000595093,0.004680634,0.000646591,0,
00:05.1,0.000606537,0.004714966,0.000612259,0,
00:05.1,0.000600815,0.004720688,0.000623703,0,
00:05.1,0.000589371,0.004674911,0.000635147,0,
00:05.1,0.000589371,0.004657745,0.000675201,0,
00:05.1,0.000600815,0.004680634,0.000686646,0,
00:05.1,0.000595093,0.004709244,0.000669479,0,
00:05.1,0.000583649,0.004663467,0.000680923,0,
00:05.1,0.000589371,0.004680634,0.000663757,0,
00:05.1,0.000600815,0.004703522,0.000640869,0,
00:05.1,0.000606537,0.004692078,0.000617981,0,
00:05.1,0.000629425,0.004737854,0.000652313,0,
00:05.1,0.000617981,0.004709244,0.000663757,0,
00:05.1,0.000595093,0.004674911,0.000658035,0,
00:05.1,0.000572205,0.004686356,0.000675201,0,
00:05.2,0.000589371,0.004714966,0.000663757,0,
00:05.2,0.000612259,0.004714966,0.000658035,0,
00:05.2,0.000566483,0.004663467,0.000663757,0,
00:05.2,0.000555038,0.004669189,0.000658035,0,
00:05.2,0.000589371,0.004674911,0.000658035,0,
00:05.2,0.000577927,0.004674911,0.000663757,0,
00:05.2,0.000555038,0.004646301,0.000669479,0,
00:05.2,0.000640869,0.004674911,0.000623703,0,
00:05.2,0.000606537,0.004669189,0.000658035,0,
00:05.2,0.000600815,0.004663467,0.000663757,0,
00:05.2,0.000617981,0.004680634,0.000675201,0,
00:05.2,0.000617981,0.004686356,0.000675201,0,
00:05.2,0.000617981,0.004680634,0.000658035,0,
00:05.2,0.000612259,0.004692078,0.000635147,0,
00:05.2,0.000595093,0.004669189,0.000675201,0,
00:05.2,0.000583649,0.004657745,0.000663757,0,
00:05.2,0.000589371,0.004686356,0.000658035,0,
00:05.2,0.000606537,0.004709244,0.000669479,0,
00:05.2,0.000606537,0.004692078,0.000669479,0,
00:05.2,0.000600815,0.004692078,0.000640869,0,
00:05.2,0.000600815,0.004617691,0.000669479,0,
00:05.2,0.00056076,0.004577637,0.00069809,0,
00:05.2,0.000583649,0.004646301,0.000692368,0,
00:05.2,0.000589371,0.004680634,0.000663757,0,
00:05.2,0.000600815,0.004692078,0.000658035,0,
00:05.3,0.000595093,0.004680634,0.000658035,0,
00:05.3,0.000583649,0.004674911,0.000669479,0,
00:05.3,0.00056076,0.004629135,0.000680923,0,
00:05.3,0.000617981,0.004674911,0.000658035,0,
00:05.3,0.000600815,0.004674911,0.000640869,0,
00:05.3,0.000572205,0.004646301,0.000646591,0,
00:05.3,0.000589371,0.004652023,0.000686646,0,
00:05.3,0.000606537,0.004646301,0.000692368,0,
00:05.3,0.000583649,0.004646301,0.000663757,0,
00:05.3,0.000572205,0.004634857,0.000640869,0,
00:05.3,0.000572205,0.004634857,0.000663757,0,
00:05.3,0.000577927,0.004623413,0.000692368,0,
00:05.3,0.000589371,0.004657745,0.000686646,0,
00:05.3,0.000583649,0.004709244,0.000669479,0,
00:05.3,0.000549316,0.004686356,0.000629425,0,
00:05.3,0.00050354,0.004594803,0.000640869,0,
00:05.3,0.000640869,0.004634857,0.000680923,0,
00:05.3,0.000617981,0.004634857,0.000692368,0,
00:05.3,0.000572205,0.004617691,0.0007267,0,
00:05.3,0.000589371,0.004640579,0.000703812,0,
00:05.3,0.000606537,0.004663467,0.000686646,0,
00:05.3,0.000600815,0.004652023,0.000675201,0,
00:05.3,0.000595093,0.004674911,0.000646591,0,
00:05.3,0.000589371,0.004674911,0.000635147,0,
00:05.3,0.000583649,0.004617691,0.000680923,0,
00:05.4,0.000589371,0.004617691,0.000675201,0,
00:05.4,0.000583649,0.004634857,0.000680923,0,
00:05.4,0.00056076,0.004623413,0.000692368,0,
00:05.4,0.000572205,0.004611969,0.000692368,0,
00:05.4,0.000595093,0.004634857,0.000669479,0,
00:05.4,0.000595093,0.004652023,0.000675201,0,
00:05.4,0.000589371,0.004646301,0.000658035,0,
00:05.4,0.000583649,0.004663467,0.000652313,0,
00:05.4,0.000572205,0.004652023,0.000669479,0,
00:05.4,0.000572205,0.004640579,0.000646591,0,
00:05.4,0.000566483,0.004629135,0.000686646,0,
00:05.4,0.000549316,0.004600525,0.000692368,0,
00:05.4,0.000583649,0.004623413,0.000658035,0,
00:05.4,0.000589371,0.004669189,0.000640869,0,
00:05.4,0.000566483,0.004646301,0.000640869,0,
00:05.4,0.000617981,0.004634857,0.000686646,0,
00:05.4,0.000612259,0.004634857,0.000686646,0,
00:05.4,0.000595093,0.004640579,0.000658035,0,
00:05.4,0.000577927,0.004629135,0.000663757,0,
00:05.4,0.000572205,0.004629135,0.000663757,0,
00:05.4,0.000566483,0.004606247,0.000686646,0,
00:05.4,0.000566483,0.004629135,0.00069809,0,
00:05.4,0.000555038,0.004652023,0.000680923,0,
00:05.4,0.000577927,0.004634857,0.000663757,0,
00:05.4,0.000600815,0.004652023,0.000646591,0,
00:05.5,0.000612259,0.004686356,0.000680923,0,
00:05.5,0.000583649,0.004652023,0.000680923,0,
00:05.5,0.00056076,0.004611969,0.000663757,0,
00:05.5,0.00056076,0.004600525,0.000669479,0,
00:05.5,0.000555038,0.004606247,0.000703812,0,
00:05.5,0.000566483,0.004640579,0.000692368,0,
00:05.5,0.00056076,0.004652023,0.000680923,0,
00:05.5,0.000555038,0.004634857,0.000675201,0,
00:05.5,0.000543594,0.004583359,0.000669479,0,
00:05.5,0.000606537,0.004606247,0.000617981,0,
00:05.5,0.000600815,0.004629135,0.000629425,0,
00:05.5,0.00056076,0.004640579,0.000686646,0,
00:05.5,0.000577927,0.004652023,0.000703812,0,
00:05.5,0.000577927,0.004623413,0.000663757,0,
00:05.5,0.000566483,0.004606247,0.000680923,0,
00:05.5,0.00056076,0.004623413,0.000703812,0,
00:05.5,0.000566483,0.004611969,0.000692368,0,
00:05.5,0.00056076,0.004600525,0.000680923,0,
00:05.5,0.000589371,0.004640579,0.00069809,0,
00:05.5,0.000589371,0.004657745,0.000680923,0,
00:05.5,0.000572205,0.004646301,0.000680923,0,
00:05.5,0.000577927,0.004606247,0.000709534,0,
00:05.5,0.000600815,0.004606247,0.000658035,0,
00:05.5,0.000555038,0.004606247,0.000635147,0,
00:05.5,0.00056076,0.004623413,0.000680923,0,
00:05.6,0.000555038,0.004600525,0.000709534,0,
00:05.6,0.000572205,0.004623413,0.000692368,0,
00:05.6,0.000577927,0.004623413,0.00069809,0,
00:05.6,0.000577927,0.004617691,0.000680923,0,
00:05.6,0.000577927,0.004617691,0.000663757,0,
00:05.6,0.000572205,0.004629135,0.000652313,0,
00:05.6,0.000543594,0.004640579,0.000646591,0,
00:05.6,0.000526428,0.004646301,0.000680923,0,
00:05.6,0.00056076,0.004606247,0.000675201,0,
00:05.6,0.000577927,0.004577637,0.000715256,0,
00:05.6,0.000566483,0.004589081,0.0007267,0,
00:05.6,0.000566483,0.004594803,0.000692368,0,
00:05.6,0.00053215,0.004594803,0.000680923,0,
00:05.6,0.000537872,0.004600525,0.000652313,0,
00:05.6,0.000600815,0.004600525,0.000640869,0,
00:05.6,0.00056076,0.004571915,0.000686646,0,
00:05.6,0.00056076,0.004589081,0.000663757,0,
00:05.6,0.00056076,0.004617691,0.000646591,0,
00:05.6,0.00056076,0.004629135,0.00069809,0,
00:05.6,0.00056076,0.004589081,0.00069809,0,
00:05.6,0.000566483,0.004594803,0.000692368,0,
00:05.6,0.000577927,0.004611969,0.000663757,0,
00:05.6,0.000577927,0.004594803,0.000680923,0,
00:05.6,0.000549316,0.004554749,0.00069809,0,
00:05.6,0.000549316,0.004583359,0.000692368,0,
00:05.7,0.000549316,0.004594803,0.000680923,0,
00:05.7,0.000600815,0.004646301,0.000669479,0,
00:05.7,0.000572205,0.004577637,0.00069809,0,
00:05.7,0.000543594,0.004560471,0.000686646,0,
00:05.7,0.000543594,0.004589081,0.000680923,0,
00:05.7,0.000566483,0.004589081,0.000703812,0,
00:05.7,0.000583649,0.004583359,0.000675201,0,
00:05.7,0.000572205,0.004589081,0.000658035,0,
00:05.7,0.000555038,0.004571915,0.000652313,0,
00:05.7,0.000537872,0.004554749,0.000669479,0,
00:05.7,0.000566483,0.004577637,0.000675201,0,
00:05.7,0.000543594,0.004600525,0.00069809,0,
00:05.7,0.000577927,0.004611969,0.000675201,0,
00:05.7,0.000589371,0.004589081,0.000658035,0,
00:05.7,0.00056076,0.004589081,0.000658035,0,
00:05.7,0.000572205,0.004566193,0.000692368,0,
00:05.7,0.000566483,0.004543304,0.000675201,0,
00:05.7,0.000566483,0.004549026,0.000663757,0,
00:05.7,0.00056076,0.004554749,0.000669479,0,
00:05.7,0.000543594,0.004571915,0.000686646,0,
00:05.7,0.000549316,0.004583359,0.000680923,0,
00:05.7,0.000549316,0.004566193,0.000675201,0,
00:05.7,0.000543594,0.004554749,0.000669479,0,
00:05.7,0.000572205,0.004560471,0.000663757,0,
00:05.7,0.000595093,0.004583359,0.000680923,0,
00:05.8,0.000595093,0.004629135,0.000635147,0,
00:05.8,0.000589371,0.004611969,0.000692368,0,
00:05.8,0.000572205,0.004526138,0.000715256,0,
00:05.8,0.000543594,0.00453186,0.000692368,0,
00:05.8,0.000543594,0.004543304,0.000680923,0,
00:05.8,0.000555038,0.00450325,0.000680923,0,
00:05.8,0.000566483,0.004537582,0.000686646,0,
00:05.8,0.000572205,0.004589081,0.000675201,0,
00:05.8,0.000566483,0.004583359,0.000652313,0,
00:05.8,0.00056076,0.004577637,0.000675201,0,
00:05.8,0.000589371,0.004560471,0.000703812,0,
00:05.8,0.000612259,0.004571915,0.00069809,0,
00:05.8,0.000583649,0.004583359,0.000680923,0,
00:05.8,0.000566483,0.004549026,0.000680923,0,
00:05.8,0.000566483,0.004526138,0.000669479,0,
00:05.8,0.000543594,0.004514694,0.000658035,0,
00:05.8,0.000543594,0.004549026,0.00069809,0,
00:05.8,0.000572205,0.004560471,0.000692368,0,
00:05.8,0.000629425,0.004577637,0.000663757,0,
00:05.8,0.000612259,0.004566193,0.000669479,0,
00:05.8,0.000589371,0.004537582,0.000686646,0,
00:05.8,0.000589371,0.004537582,0.000680923,0,
00:05.8,0.000572205,0.00453186,0.000652313,0,
00:05.8,0.000577927,0.004554749,0.000629425,0,
00:05.8,0.000600815,0.004577637,0.000675201,0,
00:05.9,0.000617981,0.004606247,0.000680923,0,
00:05.9,0.000595093,0.004520416,0.000715256,0,
00:05.9,0.000566483,0.004497528,0.000738144,0,
00:05.9,0.000566483,0.00450325,0.00069809,0,
00:05.9,0.000595093,0.004526138,0.000669479,0,
00:05.9,0.000606537,0.004571915,0.000646591,0,
00:05.9,0.000595093,0.004583359,0.000675201,0,
00:05.9,0.000635147,0.004577637,0.000692368,0,
00:05.9,0.000549316,0.004514694,0.000720978,0,
00:05.9,0.000555038,0.00453186,0.000709534,0,
00:05.9,0.000612259,0.004554749,0.000709534,0,
00:05.9,0.000589371,0.004526138,0.000709534,0,
00:05.9,0.000600815,0.004526138,0.000703812,0,
00:05.9,0.000577927,0.004526138,0.000675201,0,
00:05.9,0.000583649,0.004537582,0.000680923,0,
00:05.9,0.000566483,0.00453186,0.000703812,0,
00:05.9,0.000595093,0.004537582,0.000675201,0,
00:05.9,0.000623703,0.004543304,0.000669479,0,
00:05.9,0.000589371,0.004537582,0.000686646,0,
00:05.9,0.000595093,0.00450325,0.000703812,0,
00:05.9,0.000612259,0.004508972,0.000692368,0,
00:05.9,0.000623703,0.004526138,0.000669479,0,
00:05.9,0.000629425,0.004549026,0.000658035,0,
00:05.9,0.000629425,0.004583359,0.000669479,0,
00:05.9,0.000600815,0.00453186,0.00069809,0,
00:06.0,0.000606537,0.004514694,0.000720978,0,
00:06.0,0.000595093,0.004520416,0.000703812,0,
00:06.0,0.000600815,0.004491806,0.00069809,0,
00:06.0,0.000600815,0.004491806,0.000686646,0,
00:06.0,0.000595093,0.004508972,0.000703812,0,
00:06.0,0.000612259,0.004537582,0.000686646,0,
00:06.0,0.000658035,0.004577637,0.000663757,0,
00:06.0,0.000646591,0.004549026,0.000675201,0,
00:06.0,0.000617981,0.004491806,0.000669479,0,
00:06.0,0.000572205,0.004486084,0.00069809,0,
00:06.0,0.000577927,0.004480362,0.0007267,0,
00:06.0,0.000595093,0.00450325,0.000709534,0,
00:00:06,0.000617981,0.00447464,0.000703812,0,
00:06.0,0.000612259,0.004451752,0.00069809,0,
00:06.0,0.000629425,0.004486084,0.000629425,0,
00:06.0,0.000629425,0.004514694,0.000680923,0,
00:06.0,0.000635147,0.004526138,0.000738144,0,
00:06.0,0.000629425,0.004491806,0.000738144,0,
00:06.0,0.000623703,0.004486084,0.000720978,0,
00:06.0,0.000617981,0.004491806,0.000709534,0,
00:06.0,0.000623703,0.004514694,0.000692368,0,
00:06.0,0.000623703,0.004491806,0.000709534,0,
00:06.0,0.000612259,0.004463196,0.00069809,0,
00:06.0,0.000646591,0.004497528,0.00069809,0,
00:06.0,0.000635147,0.004491806,0.000703812,0,
00:06.1,0.000606537,0.004480362,0.000686646,0,
00:06.1,0.000623703,0.00447464,0.000720978,0,
00:06.1,0.000612259,0.004451752,0.000715256,0,
00:06.1,0.000612259,0.004440308,0.000732422,0,
00:06.1,0.000623703,0.004457474,0.0007267,0,
00:06.1,0.000640869,0.004480362,0.000709534,0,
00:06.1,0.000640869,0.004486084,0.000703812,0,
00:06.1,0.000635147,0.00447464,0.00069809,0,
00:06.1,0.000640869,0.004463196,0.000715256,0,
00:06.1,0.000612259,0.004457474,0.000709534,0,
00:06.1,0.000640869,0.004457474,0.000686646,0,
00:06.1,0.000623703,0.004440308,0.000709534,0,
00:06.1,0.000555038,0.004434586,0.000732422,0,
00:06.1,0.000646591,0.00444603,0.000703812,0,
00:06.1,0.000720978,0.00447464,0.000692368,0,
00:06.1,0.000658035,0.004463196,0.000692368,0,
00:06.1,0.000652313,0.004468918,0.000732422,0,
00:06.1,0.000652313,0.004451752,0.000749588,0,
00:06.1,0.000646591,0.004423141,0.000715256,0,
00:06.1,0.000629425,0.004405975,0.000703812,0,
00:06.1,0.000646591,0.00444603,0.00075531,0,
00:06.1,0.000680923,0.004463196,0.000743866,0,
00:06.1,0.000663757,0.004451752,0.000743866,0,
00:06.1,0.000652313,0.004457474,0.000715256,0,
00:06.1,0.000663757,0.00444603,0.000720978,0,
00:06.2,0.000646591,0.004417419,0.000749588,0,
00:06.2,0.000629425,0.004400253,0.000761032,0,
00:06.2,0.000646591,0.004423141,0.000732422,0,
00:06.2,0.000658035,0.004440308,0.000732422,0,
00:06.2,0.000652313,0.004417419,0.0007267,0,
00:06.2,0.000635147,0.004417419,0.000720978,0,
00:06.2,0.000652313,0.004457474,0.000675201,0,
00:06.2,0.000703812,0.00447464,0.000715256,0,
00:06.2,0.000675201,0.004434586,0.000761032,0,
00:06.2,0.000663757,0.004400253,0.000749588,0,
00:06.2,0.000658035,0.004405975,0.000743866,0,
00:06.2,0.000652313,0.004411697,0.000743866,0,
00:06.2,0.000680923,0.004423141,0.000738144,0,
00:06.2,0.000663757,0.004434586,0.000720978,0,
00:06.2,0.000680923,0.004440308,0.000732422,0,
00:06.2,0.000686646,0.004400253,0.000738144,0,
00:06.2,0.000675201,0.004365921,0.0007267,0,
00:06.2,0.000663757,0.004388809,0.000743866,0,
00:06.2,0.000680923,0.004428864,0.000732422,0,
00:06.2,0.000675201,0.004434586,0.000738144,0,
00:06.2,0.000686646,0.004440308,0.000738144,0,
00:06.2,0.000686646,0.004411697,0.000732422,0,
00:06.2,0.000675201,0.004400253,0.000709534,0,
00:06.2,0.00069809,0.004440308,0.000743866,0,
00:06.2,0.000715256,0.004468918,0.0007267,0,
00:06.3,0.000692368,0.004428864,0.000766754,0,
00:06.3,0.000663757,0.004388809,0.00075531,0,
00:06.3,0.000635147,0.004360199,0.000732422,0,
00:06.3,0.000680923,0.004343033,0.00078392,0,
00:06.3,0.00069809,0.004377365,0.000778198,0,
00:06.3,0.000732422,0.004440308,0.000761032,0,
00:06.3,0.000686646,0.00444603,0.000738144,0,
00:06.3,0.000675201,0.004400253,0.000772476,0,
00:06.3,0.000680923,0.004371643,0.000749588,0,
00:06.3,0.000720978,0.004383087,0.000720978,0,
00:06.3,0.0007267,0.004400253,0.000761032,0,
00:06.3,0.000703812,0.004411697,0.000772476,0,
00:06.3,0.000709534,0.004417419,0.000720978,0,
00:06.3,0.000709534,0.004428864,0.000686646,0,
00:06.3,0.00069809,0.004405975,0.000738144,0,
00:06.3,0.000720978,0.004365921,0.000801086,0,
00:06.3,0.000720978,0.004377365,0.000795364,0,
00:06.3,0.000720978,0.004394531,0.000778198,0,
00:06.3,0.000703812,0.004377365,0.000766754,0,
00:06.3,0.000709534,0.004377365,0.000761032,0,
00:06.3,0.000720978,0.004405975,0.00075531,0,
00:06.3,0.000720978,0.004400253,0.000778198,0,
00:06.3,0.000703812,0.004354477,0.000761032,0,
00:06.3,0.0007267,0.004371643,0.0007267,0,
00:06.3,0.000715256,0.004371643,0.000766754,0,
00:06.4,0.000703812,0.004365921,0.00078392,0,
00:06.4,0.000703812,0.004365921,0.00078392,0,
00:06.4,0.0007267,0.004371643,0.000778198,0,
00:06.4,0.000732422,0.004388809,0.00075531,0,
00:06.4,0.00069809,0.004394531,0.00078392,0,
00:06.4,0.000715256,0.004377365,0.000766754,0,
00:06.4,0.000703812,0.004314423,0.000738144,0,
00:06.4,0.000715256,0.004274368,0.000806808,0,
00:06.4,0.0007267,0.004331589,0.00078392,0,
00:06.4,0.000732422,0.004405975,0.00078392,0,
00:06.4,0.000766754,0.004440308,0.000743866,0,
00:06.4,0.000732422,0.004377365,0.000766754,0,
00:06.4,0.000709534,0.004331589,0.000806808,0,
00:06.4,0.000709534,0.004348755,0.000801086,0,
00:06.4,0.000715256,0.004343033,0.000801086,0,
00:06.4,0.000715256,0.004325867,0.000766754,0,
00:06.4,0.000720978,0.004360199,0.000778198,0,
00:06.4,0.000715256,0.004348755,0.000778198,0,
00:06.4,0.000761032,0.004331589,0.000778198,0,
00:06.4,0.000743866,0.004325867,0.000801086,0,
00:06.4,0.0007267,0.004314423,0.000818253,0,
00:06.4,0.000738144,0.004325867,0.000812531,0,
00:06.4,0.000743866,0.004337311,0.000795364,0,
00:06.4,0.000738144,0.004348755,0.000778198,0,
00:06.4,0.000738144,0.004354477,0.000766754,0,
00:06.5,0.000749588,0.004365921,0.000789642,0,
00:06.5,0.000738144,0.004331589,0.000795364,0,
00:06.5,0.000743866,0.004325867,0.00078392,0,
00:06.5,0.000743866,0.004291534,0.000823975,0,
00:06.5,0.0007267,0.004268646,0.000835419,0,
00:06.5,0.000732422,0.004314423,0.000806808,0,
00:06.5,0.000732422,0.004343033,0.000829697,0,
00:06.5,0.000743866,0.004348755,0.000806808,0,
00:06.5,0.000749588,0.004343033,0.000789642,0,
00:06.5,0.000720978,0.004302979,0.000823975,0,
00:06.5,0.000732422,0.004291534,0.000829697,0,
00:06.5,0.00075531,0.00428009,0.000835419,0,
00:06.5,0.000761032,0.004274368,0.000812531,0,
00:06.5,0.000766754,0.00428009,0.000812531,0,
00:06.5,0.000766754,0.004308701,0.000812531,0,
00:06.5,0.000766754,0.004325867,0.000806808,0,
00:06.5,0.000749588,0.004302979,0.000806808,0,
00:06.5,0.000761032,0.004308701,0.000818253,0,
00:06.5,0.000766754,0.004331589,0.000812531,0,
00:06.5,0.000761032,0.004325867,0.000818253,0,
00:06.5,0.000766754,0.004308701,0.000852585,0,
00:06.5,0.000732422,0.004285812,0.000829697,0,
00:06.5,0.000738144,0.004291534,0.000823975,0,
00:06.5,0.000766754,0.004320145,0.000858307,0,
00:06.5,0.000766754,0.004320145,0.000846863,0,
00:06.6,0.000795364,0.004314423,0.000823975,0,
00:06.6,0.000801086,0.004285812,0.000801086,0,
00:06.6,0.000772476,0.004274368,0.000852585,0,
00:06.6,0.000772476,0.00428009,0.000864029,0,
00:06.6,0.000772476,0.004274368,0.000858307,0,
00:06.6,0.000778198,0.004291534,0.000846863,0,
00:06.6,0.00078392,0.004331589,0.000835419,0,
00:06.6,0.000795364,0.004343033,0.000841141,0,
00:06.6,0.000806808,0.004291534,0.000864029,0,
00:06.6,0.00078392,0.004274368,0.000858307,0,
00:06.6,0.000766754,0.004274368,0.000846863,0,
00:06.6,0.000778198,0.004268646,0.000846863,0,
00:06.6,0.000778198,0.004274368,0.000846863,0,
00:06.6,0.000772476,0.004274368,0.000852585,0,
00:06.6,0.000732422,0.004245758,0.000852585,0,
00:06.6,0.00078392,0.004274368,0.000852585,0,
00:06.6,0.000823975,0.004320145,0.000858307,0,
00:06.6,0.000818253,0.004308701,0.000835419,0,
00:06.6,0.000795364,0.004245758,0.000864029,0,
00:06.6,0.000789642,0.004245758,0.000881195,0,
00:06.6,0.00078392,0.004262924,0.000875473,0,
00:06.6,0.000772476,0.004245758,0.000858307,0,
00:06.6,0.000789642,0.004262924,0.000858307,0,
00:06.6,0.000778198,0.004274368,0.000835419,0,
00:06.6,0.000738144,0.004245758,0.000852585,0,
00:06.7,0.00069809,0.00422287,0.000904083,0,
00:06.7,0.000789642,0.004240036,0.000909805,0,
00:06.7,0.000823975,0.004262924,0.000892639,0,
00:06.7,0.000801086,0.004285812,0.000869751,0,
00:06.7,0.000841141,0.00428009,0.000875473,0,
00:06.7,0.000858307,0.004302979,0.000881195,0,
00:06.7,0.000806808,0.004262924,0.000875473,0,
00:06.7,0.000743866,0.004199982,0.000881195,0,
00:06.7,0.000749588,0.004211426,0.000898361,0,
00:06.7,0.00078392,0.00425148,0.000898361,0,
00:06.7,0.000795364,0.004257202,0.000886917,0,
00:06.7,0.000806808,0.004245758,0.000881195,0,
00:06.7,0.000801086,0.004228592,0.000904083,0,
00:06.7,0.000812531,0.004274368,0.000881195,0,
00:06.7,0.000818253,0.004285812,0.000875473,0,
00:06.7,0.000806808,0.00428009,0.000881195,0,
00:06.7,0.000812531,0.004274368,0.000904083,0,
00:06.7,0.000795364,0.004234314,0.000932693,0,
00:06.7,0.000778198,0.004171371,0.000938416,0,
00:06.7,0.000789642,0.004234314,0.000921249,0,
00:06.7,0.000801086,0.004262924,0.000909805,0,
00:06.7,0.000823975,0.004262924,0.000926971,0,
00:06.7,0.000795364,0.004240036,0.000938416,0,
00:06.7,0.000772476,0.004228592,0.000961304,0,
00:06.7,0.000789642,0.00422287,0.000961304,0,
00:06.8,0.000846863,0.00425148,0.000909805,0,
00:06.8,0.000823975,0.00425148,0.000926971,0,
00:06.8,0.000806808,0.004211426,0.000955582,0,
00:06.8,0.000818253,0.004234314,0.000961304,0,
00:06.8,0.000795364,0.004240036,0.000944138,0,
00:06.8,0.000812531,0.004245758,0.000926971,0,
00:06.8,0.000829697,0.004240036,0.000938416,0,
00:06.8,0.000812531,0.004199982,0.000967026,0,
00:06.8,0.000806808,0.004182816,0.000972748,0,
00:06.8,0.000823975,0.004245758,0.000938416,0,
00:06.8,0.000812531,0.004240036,0.000909805,0,
00:06.8,0.000789642,0.00422287,0.000955582,0,
00:06.8,0.000801086,0.004199982,0.001012802,0,
00:06.8,0.000823975,0.00419426,0.001001358,0,
00:06.8,0.000829697,0.004217148,0.000961304,0,
00:06.8,0.000823975,0.00425148,0.000961304,0,
00:06.8,0.000818253,0.004262924,0.000955582,0,
00:06.8,0.000795364,0.004245758,0.000967026,0,
00:06.8,0.000795364,0.004211426,0.000972748,0,
00:06.8,0.000818253,0.004199982,0.00097847,0,
00:06.8,0.000846863,0.00419426,0.000984192,0,
00:06.8,0.000835419,0.004205704,0.000989914,0,
00:06.8,0.000818253,0.004177094,0.000995636,0,
00:06.8,0.000801086,0.004171371,0.000989914,0,
00:06.8,0.000789642,0.004188538,0.000995636,0,
00:06.9,0.000818253,0.004217148,0.001001358,0,
00:06.9,0.000846863,0.004228592,0.000972748,0,
00:06.9,0.000829697,0.004228592,0.000961304,0,
00:06.9,0.000795364,0.004205704,0.000989914,0,
00:06.9,0.000835419,0.004177094,0.001018524,0,
00:06.9,0.000852585,0.004171371,0.000995636,0,
00:06.9,0.000823975,0.00422287,0.000972748,0,
00:06.9,0.000795364,0.004217148,0.000989914,0,
00:06.9,0.000823975,0.004228592,0.00097847,0,
00:06.9,0.000823975,0.004228592,0.001024246,0,
00:06.9,0.000772476,0.004171371,0.001029968,0,
00:06.9,0.000749588,0.004148483,0.001029968,0,
00:06.9,0.000841141,0.004205704,0.001012802,0,
00:06.9,0.000841141,0.00425148,0.00100708,0,
00:06.9,0.000875473,0.004245758,0.00103569,0,
00:06.9,0.000801086,0.004188538,0.001018524,0,
00:06.9,0.000829697,0.004171371,0.00103569,0,
00:06.9,0.000766754,0.004148483,0.001070023,0,
00:06.9,0.000669479,0.004148483,0.001092911,0,
00:06.9,0.000869751,0.00419426,0.001012802,0,
00:06.9,0.000926971,0.004234314,0.000989914,0,
00:06.9,0.000858307,0.004211426,0.001001358,0,
00:06.9,0.000846863,0.004199982,0.001001358,0,
00:06.9,0.000829697,0.004188538,0.000989914,0,
00:06.9,0.000835419,0.004199982,0.001012802,0,
00:07.0,0.000852585,0.004217148,0.00103569,0,
00:07.0,0.000852585,0.004211426,0.001024246,0,
00:07.0,0.000841141,0.004154205,0.001047134,0,
00:07.0,0.000835419,0.004159927,0.001041412,0,
00:07.0,0.000818253,0.004148483,0.001041412,0,
00:07.0,0.000806808,0.004148483,0.001047134,0,
00:07.0,0.000801086,0.00422287,0.001052856,0,
00:07.0,0.000812531,0.00422287,0.001041412,0,
00:07.0,0.000841141,0.004217148,0.00100708,0,
00:07.0,0.000864029,0.004211426,0.001018524,0,
00:07.0,0.000841141,0.004188538,0.001047134,0,
00:07.0,0.000761032,0.004154205,0.001098633,0,
00:00:07,0.000812531,0.004159927,0.001087189,0,
00:07.0,0.000858307,0.004182816,0.001064301,0,
00:07.0,0.000864029,0.004205704,0.001012802,0,
00:07.0,0.000886917,0.004199982,0.001029968,0,
00:07.0,0.000886917,0.004205704,0.001087189,0,
00:07.0,0.000846863,0.004177094,0.001064301,0,
00:07.0,0.000852585,0.004148483,0.001041412,0,
00:07.0,0.000812531,0.004108429,0.001052856,0,
00:07.0,0.000835419,0.004154205,0.001047134,0,
00:07.0,0.000835419,0.004205704,0.00103569,0,
00:07.0,0.000841141,0.00419426,0.001064301,0,
00:07.0,0.000846863,0.00419426,0.001070023,0,
00:07.0,0.000846863,0.00419426,0.001052856,0,
00:07.1,0.000858307,0.00419426,0.001070023,0,
00:07.1,0.000841141,0.004199982,0.001070023,0,
00:07.1,0.000841141,0.004205704,0.001029968,0,
00:07.1,0.000835419,0.004205704,0.001024246,0,
00:07.1,0.000801086,0.004171371,0.001075745,0,
00:07.1,0.000812531,0.004188538,0.001087189,0,
00:07.1,0.000829697,0.004171371,0.001052856,0,
00:07.1,0.000823975,0.004165649,0.00103569,0,
00:07.1,0.000841141,0.004177094,0.001064301,0,
00:07.1,0.000789642,0.004159927,0.001098633,0,
00:07.1,0.000835419,0.004154205,0.001092911,0,
00:07.1,0.000864029,0.004182816,0.001075745,0,
00:07.1,0.000835419,0.004154205,0.001052856,0,
00:07.1,0.000864029,0.004137039,0.001058578,0,
00:07.1,0.000869751,0.004154205,0.001081467,0,
00:07.1,0.000835419,0.004199982,0.001070023,0,
00:07.1,0.000829697,0.00419426,0.001075745,0,
00:07.1,0.000852585,0.004188538,0.001070023,0,
00:07.1,0.000846863,0.004142761,0.001070023,0,
00:07.1,0.000846863,0.004159927,0.001070023,0,
00:07.1,0.000841141,0.00422287,0.001047134,0,
00:07.1,0.000846863,0.004228592,0.001047134,0,
00:07.1,0.000869751,0.00422287,0.001064301,0,
00:07.1,0.000858307,0.004228592,0.001024246,0,
00:07.1,0.000835419,0.004137039,0.001081467,0,
00:07.2,0.000829697,0.004154205,0.001115799,0,
00:07.2,0.000823975,0.004142761,0.001115799,0,
00:07.2,0.000852585,0.004154205,0.001098633,0,
00:07.2,0.000858307,0.004159927,0.001092911,0,
00:07.2,0.000795364,0.004148483,0.001087189,0,
00:07.2,0.000772476,0.004159927,0.001075745,0,
00:07.2,0.000835419,0.00419426,0.001070023,0,
00:07.2,0.000852585,0.004211426,0.001104355,0,
00:07.2,0.000875473,0.00419426,0.001070023,0,
00:07.2,0.000858307,0.004188538,0.001092911,0,
00:07.2,0.000881195,0.004205704,0.001087189,0,
00:07.2,0.000864029,0.004171371,0.001064301,0,
00:07.2,0.000841141,0.004142761,0.001121521,0,
00:07.2,0.000852585,0.004148483,0.001087189,0,
00:07.2,0.000864029,0.004182816,0.001070023,0,
00:07.2,0.000858307,0.004199982,0.001058578,0,
00:07.2,0.000858307,0.004205704,0.001075745,0,
00:07.2,0.000858307,0.004199982,0.001092911,0,
00:07.2,0.000829697,0.004177094,0.001110077,0,
00:07.2,0.000823975,0.004171371,0.001087189,0,
00:07.2,0.000818253,0.004142761,0.001092911,0,
00:07.2,0.000858307,0.004188538,0.001092911,0,
00:07.2,0.000846863,0.00422287,0.001070023,0,
00:07.2,0.000829697,0.004165649,0.001081467,0,
00:07.2,0.000812531,0.004131317,0.001138687,0,
00:07.3,0.00078392,0.004159927,0.001115799,0,
00:07.3,0.000818253,0.004142761,0.001081467,0,
00:07.3,0.000778198,0.004131317,0.001092911,0,
00:07.3,0.000823975,0.004159927,0.001110077,0,
00:07.3,0.000864029,0.004199982,0.001110077,0,
00:07.3,0.000835419,0.004171371,0.001127243,0,
00:07.3,0.000869751,0.004165649,0.001110077,0,
00:07.3,0.000875473,0.004159927,0.001098633,0,
00:07.3,0.000869751,0.004165649,0.001064301,0,
00:07.3,0.000875473,0.004165649,0.001075745,0,
00:07.3,0.000852585,0.004148483,0.001075745,0,
00:07.3,0.000841141,0.004171371,0.001064301,0,
00:07.3,0.000835419,0.004171371,0.001075745,0,
00:07.3,0.000852585,0.004159927,0.001098633,0,
00:07.3,0.000846863,0.004165649,0.001110077,0,
00:07.3,0.000846863,0.004165649,0.001121521,0,
00:07.3,0.000846863,0.004154205,0.001098633,0,
00:07.3,0.000846863,0.004171371,0.001070023,0,
00:07.3,0.000829697,0.004182816,0.001064301,0,
00:07.3,0.000806808,0.004142761,0.001070023,0,
00:07.3,0.000806808,0.004114151,0.001132965,0,
00:07.3,0.000823975,0.004102707,0.001132965,0,
00:07.3,0.000818253,0.004154205,0.001115799,0,
00:07.3,0.000835419,0.004188538,0.001087189,0,
00:07.3,0.000835419,0.004188538,0.001110077,0,
00:07.4,0.000766754,0.004171371,0.001132965,0,
00:07.4,0.000795364,0.004148483,0.001155853,0,
00:07.4,0.000869751,0.004165649,0.001104355,0,
00:07.4,0.000852585,0.004217148,0.001087189,0,
00:07.4,0.000812531,0.004199982,0.001070023,0,
00:07.4,0.000812531,0.004159927,0.001110077,0,
00:07.4,0.000846863,0.004159927,0.001138687,0,
00:07.4,0.000846863,0.004159927,0.001115799,0,
00:07.4,0.000869751,0.004188538,0.001104355,0,
00:07.4,0.000858307,0.00419426,0.001098633,0,
00:07.4,0.000841141,0.004171371,0.001081467,0,
00:07.4,0.000818253,0.004125595,0.001092911,0,
00:07.4,0.000818253,0.004119873,0.001132965,0,
00:07.4,0.000823975,0.004148483,0.001104355,0,
00:07.4,0.000841141,0.004182816,0.001104355,0,
00:07.4,0.000835419,0.004199982,0.001110077,0,
00:07.4,0.000852585,0.004177094,0.001115799,0,
00:07.4,0.000823975,0.004137039,0.001121521,0,
00:07.4,0.000823975,0.004165649,0.001104355,0,
00:07.4,0.000835419,0.004188538,0.001127243,0,
00:07.4,0.000823975,0.004165649,0.001115799,0,
00:07.4,0.00078392,0.004165649,0.001132965,0,
00:07.4,0.000812531,0.004171371,0.001121521,0,
00:07.4,0.000835419,0.004154205,0.001110077,0,
00:07.4,0.000818253,0.004154205,0.001121521,0,
00:07.5,0.000812531,0.004154205,0.001110077,0,
00:07.5,0.000835419,0.004154205,0.001144409,0,
00:07.5,0.000835419,0.00419426,0.001127243,0,
00:07.5,0.000869751,0.004171371,0.001098633,0,
00:07.5,0.000864029,0.004177094,0.001127243,0,
00:07.5,0.000829697,0.004171371,0.001138687,0,
00:07.5,0.000823975,0.004159927,0.001138687,0,
00:07.5,0.000818253,0.004159927,0.001127243,0,
00:07.5,0.000829697,0.004148483,0.001144409,0,
00:07.5,0.000823975,0.004131317,0.001121521,0,
00:07.5,0.000795364,0.004142761,0.001104355,0,
00:07.5,0.000818253,0.004182816,0.001127243,0,
00:07.5,0.000846863,0.004171371,0.001121521,0,
00:07.5,0.000835419,0.004148483,0.001132965,0,
00:07.5,0.000818253,0.004154205,0.001144409,0,
00:07.5,0.000829697,0.004182816,0.001138687,0,
00:07.5,0.000841141,0.004188538,0.001127243,0,
00:07.5,0.000812531,0.004165649,0.001081467,0,
00:07.5,0.00078392,0.004142761,0.001092911,0,
00:07.5,0.000823975,0.004131317,0.001195908,0,
00:07.5,0.000801086,0.004119873,0.001161575,0,
00:07.5,0.000806808,0.004137039,0.001138687,0,
00:07.5,0.00078392,0.004159927,0.001127243,0,
00:07.5,0.000835419,0.004165649,0.001127243,0,
00:07.5,0.000846863,0.004154205,0.001121521,0,
00:07.6,0.000835419,0.004165649,0.001144409,0,
00:07.6,0.000823975,0.004142761,0.001132965,0,
00:07.6,0.000869751,0.004148483,0.001098633,0,
00:07.6,0.000864029,0.004131317,0.001115799,0,
00:07.6,0.000846863,0.004131317,0.001155853,0,
00:07.6,0.000823975,0.004154205,0.001155853,0,
00:07.6,0.000795364,0.004131317,0.001138687,0,
00:07.6,0.000812531,0.004148483,0.001115799,0,
00:07.6,0.000829697,0.004171371,0.001098633,0,
00:07.6,0.000829697,0.004159927,0.001127243,0,
00:07.6,0.000823975,0.004125595,0.001144409,0,
00:07.6,0.000835419,0.004125595,0.001132965,0,
00:07.6,0.000829697,0.004165649,0.001161575,0,
00:07.6,0.000778198,0.004159927,0.001167297,0,
00:07.6,0.000795364,0.004159927,0.001173019,0,
00:07.6,0.000829697,0.004154205,0.001161575,0,
00:07.6,0.000818253,0.004125595,0.001155853,0,
00:07.6,0.000812531,0.004165649,0.001144409,0,
00:07.6,0.000841141,0.004199982,0.001132965,0,
00:07.6,0.000829697,0.004182816,0.001132965,0,
00:07.6,0.000812531,0.004137039,0.001121521,0,
00:07.6,0.000795364,0.004125595,0.001161575,0,
00:07.6,0.000761032,0.004148483,0.001167297,0,
00:07.6,0.000789642,0.004154205,0.001115799,0,
00:07.6,0.000846863,0.004148483,0.001144409,0,
00:07.7,0.000829697,0.004137039,0.001150131,0,
00:07.7,0.000812531,0.004131317,0.001132965,0,
00:07.7,0.000829697,0.004154205,0.001132965,0,
00:07.7,0.000846863,0.004188538,0.001144409,0,
00:07.7,0.000846863,0.004182816,0.001132965,0,
00:07.7,0.000835419,0.004159927,0.001138687,0,
00:07.7,0.000789642,0.004154205,0.001138687,0,
00:07.7,0.000801086,0.004114151,0.001144409,0,
00:07.7,0.000829697,0.004154205,0.001127243,0,
00:07.7,0.000823975,0.004165649,0.001138687,0,
00:07.7,0.000846863,0.004154205,0.001155853,0,
00:07.7,0.000823975,0.004137039,0.001155853,0,
00:07.7,0.000806808,0.004154205,0.001167297,0,
00:07.7,0.000789642,0.004137039,0.001155853,0,
00:07.7,0.000789642,0.004131317,0.001144409,0,
00:07.7,0.000823975,0.004148483,0.001132965,0,
00:07.7,0.000829697,0.004142761,0.001150131,0,
00:07.7,0.000789642,0.004137039,0.001173019,0,
00:07.7,0.000772476,0.004114151,0.001167297,0,
00:07.7,0.000795364,0.004108429,0.001144409,0,
00:07.7,0.000846863,0.004154205,0.001161575,0,
00:07.7,0.000829697,0.004165649,0.001155853,0,
00:07.7,0.000812531,0.004137039,0.001161575,0,
00:07.7,0.000823975,0.004165649,0.001178741,0,
00:07.7,0.000829697,0.004171371,0.001161575,0,
00:07.8,0.000795364,0.004137039,0.001144409,0,
00:07.8,0.000761032,0.004131317,0.001144409,0,
00:07.8,0.00075531,0.004125595,0.001138687,0,
00:07.8,0.000812531,0.004137039,0.001150131,0,
00:07.8,0.000835419,0.004165649,0.001178741,0,
00:07.8,0.000818253,0.004171371,0.001173019,0,
00:07.8,0.000818253,0.004125595,0.001161575,0,
00:07.8,0.000829697,0.004125595,0.001138687,0,
00:07.8,0.000829697,0.004177094,0.001110077,0,
00:07.8,0.000829697,0.004205704,0.001121521,0,
00:07.8,0.000818253,0.004165649,0.001150131,0,
00:07.8,0.000795364,0.004091263,0.001150131,0,
00:07.8,0.000795364,0.004079819,0.001155853,0,
00:07.8,0.000812531,0.004148483,0.001167297,0,
00:07.8,0.000818253,0.004211426,0.001150131,0,
00:07.8,0.000829697,0.004228592,0.001127243,0,
00:07.8,0.00078392,0.004125595,0.001173019,0,
00:07.8,0.000789642,0.004119873,0.001173019,0,
00:07.8,0.000789642,0.004137039,0.001161575,0,
00:07.8,0.000795364,0.004177094,0.001110077,0,
00:07.8,0.000806808,0.00419426,0.001092911,0,
00:07.8,0.000823975,0.004165649,0.00120163,0,
00:07.8,0.000801086,0.004159927,0.001150131,0,
00:07.8,0.000789642,0.004125595,0.001190186,0,
00:07.8,0.000789642,0.004114151,0.001184464,0,
00:07.9,0.000761032,0.004125595,0.001178741,0,
00:07.9,0.000715256,0.004148483,0.001155853,0,
00:07.9,0.000835419,0.004177094,0.001121521,0,
00:07.9,0.000932693,0.004188538,0.001087189,0,
00:07.9,0.000864029,0.004159927,0.001178741,0,
00:07.9,0.000835419,0.004125595,0.001167297,0,
00:07.9,0.000823975,0.004154205,0.001150131,0,
00:07.9,0.000823975,0.004171371,0.001144409,0,
00:07.9,0.000846863,0.004177094,0.001138687,0,
00:07.9,0.000823975,0.004171371,0.001138687,0,
00:07.9,0.000789642,0.004108429,0.001155853,0,
00:07.9,0.00078392,0.004091263,0.001178741,0,
00:07.9,0.000795364,0.004108429,0.001173019,0,
00:07.9,0.000806808,0.004137039,0.001132965,0,
00:07.9,0.000801086,0.004148483,0.001155853,0,
00:07.9,0.000806808,0.004148483,0.001155853,0,
00:07.9,0.000818253,0.004177094,0.001144409,0,
00:07.9,0.000818253,0.004228592,0.001070023,0,
00:07.9,0.000818253,0.004188538,0.001127243,0,
00:07.9,0.000772476,0.004119873,0.001213074,0,
00:07.9,0.00078392,0.004114151,0.001184464,0,
00:07.9,0.000789642,0.004137039,0.001155853,0,
00:07.9,0.000795364,0.004182816,0.001115799,0,
00:07.9,0.000778198,0.004177094,0.001110077,0,
00:07.9,0.000812531,0.004119873,0.001161575,0,
00:08.0,0.000846863,0.004154205,0.001178741,0,
00:08.0,0.000778198,0.004114151,0.001195908,0,
00:08.0,0.000772476,0.004131317,0.001178741,0,
00:08.0,0.000852585,0.00419426,0.001127243,0,
00:08.0,0.000875473,0.004188538,0.001155853,0,
00:08.0,0.000812531,0.004154205,0.001161575,0,
00:08.0,0.000789642,0.004125595,0.001144409,0,
00:08.0,0.00078392,0.004137039,0.001150131,0,
00:08.0,0.000772476,0.004177094,0.001138687,0,
00:08.0,0.000858307,0.004240036,0.001104355,0,
00:08.0,0.000841141,0.004211426,0.001098633,0,
00:08.0,0.000789642,0.004165649,0.001150131,0,
00:00:08,0.000761032,0.004051208,0.001241684,0,
00:08.0,0.000772476,0.004068375,0.001218796,0,
00:08.0,0.000795364,0.004125595,0.001178741,0,
00:08.0,0.000795364,0.004131317,0.001161575,0,
00:08.0,0.000789642,0.004171371,0.001127243,0,
00:08.0,0.000789642,0.00419426,0.001081467,0,
00:08.0,0.000812531,0.004199982,0.001150131,0,
00:08.0,0.000801086,0.004154205,0.001195908,0,
00:08.0,0.000778198,0.004125595,0.00120163,0,
00:08.0,0.000761032,0.004154205,0.001195908,0,
00:08.0,0.000795364,0.004205704,0.001138687,0,
00:08.0,0.000841141,0.004182816,0.001075745,0,
00:08.0,0.000875473,0.004125595,0.001092911,0,
00:08.1,0.000864029,0.004114151,0.00120163,0,
00:08.1,0.000761032,0.004137039,0.001178741,0,
00:08.1,0.00075531,0.004137039,0.001195908,0,
00:08.1,0.000795364,0.004119873,0.001173019,0,
00:08.1,0.000795364,0.004119873,0.001161575,0,
00:08.1,0.000841141,0.004217148,0.001098633,0,
00:08.1,0.000818253,0.004205704,0.001110077,0,
00:08.1,0.000801086,0.004125595,0.001195908,0,
00:08.1,0.000841141,0.004119873,0.00120163,0,
00:08.1,0.000801086,0.004142761,0.001178741,0,
00:08.1,0.000789642,0.004159927,0.001155853,0,
00:08.1,0.000823975,0.004262924,0.001081467,0,
00:08.1,0.000812531,0.004217148,0.001121521,0,
00:08.1,0.000749588,0.004034042,0.001264572,0,
00:08.1,0.000772476,0.004068375,0.001247406,0,
00:08.1,0.000841141,0.004177094,0.001167297,0,
00:08.1,0.000932693,0.004308701,0.001110077,0,
00:08.1,0.000875473,0.004268646,0.001161575,0,
00:08.1,0.000715256,0.004051208,0.00120163,0,
00:08.1,0.000686646,0.004034042,0.001253128,0,
00:08.1,0.000869751,0.004119873,0.001144409,0,
00:08.1,0.000921249,0.004177094,0.001127243,0,
00:08.1,0.000846863,0.004159927,0.001178741,0,
00:08.1,0.000761032,0.004137039,0.001167297,0,
00:08.1,0.000743866,0.004068375,0.00123024,0,
00:08.2,0.00078392,0.004091263,0.001224518,0,
00:08.2,0.000823975,0.004159927,0.001155853,0,
00:08.2,0.000829697,0.004188538,0.001132965,0,
00:08.2,0.000841141,0.004211426,0.001115799,0,
00:08.2,0.000812531,0.004182816,0.001150131,0,
00:08.2,0.000806808,0.004114151,0.001173019,0,
00:08.2,0.000944138,0.004114151,0.001184464,0,
00:08.2,0.000932693,0.004137039,0.001144409,0,
00:08.2,0.000846863,0.00422287,0.001098633,0,
00:08.2,0.000818253,0.004262924,0.001064301,0,
00:08.2,0.000715256,0.004096985,0.001264572,0,
00:08.2,0.000720978,0.004034042,0.001276016,0,
00:08.2,0.000801086,0.004119873,0.001184464,0,
00:08.2,0.000869751,0.004245758,0.001075745,0,
00:08.2,0.000898361,0.004325867,0.001075745,0,
00:08.2,0.000772476,0.004131317,0.001253128,0,
00:08.2,0.000652313,0.004011154,0.001310349,0,
00:08.2,0.000778198,0.004079819,0.001218796,0,
00:08.2,0.000881195,0.004137039,0.001132965,0,
00:08.2,0.000823975,0.004108429,0.001178741,0,
00:08.2,0.000812531,0.004217148,0.001155853,0,
00:08.2,0.000789642,0.004228592,0.001110077,0,
00:08.2,0.000778198,0.004137039,0.001173019,0,
00:08.2,0.000772476,0.004068375,0.001253128,0,
00:08.2,0.00078392,0.004085541,0.001253128,0,
00:08.3,0.000772476,0.004125595,0.001213074,0,
00:08.3,0.000743866,0.004188538,0.001150131,0,
00:08.3,0.000818253,0.004165649,0.001127243,0,
00:08.3,0.000881195,0.004171371,0.001173019,0,
00:08.3,0.000932693,0.004171371,0.001173019,0,
00:08.3,0.001058578,0.004079819,0.001195908,0,
00:08.3,0.001018524,0.004079819,0.001144409,0,
00:08.3,0.000806808,0.004096985,0.001115799,0,
00:08.3,0.000715256,0.004142761,0.001087189,0,
00:08.3,0.000761032,0.004234314,0.001138687,0,
00:08.3,0.000732422,0.004148483,0.001247406,0,
00:08.3,0.000703812,0.004068375,0.001207352,0,
00:08.3,0.000772476,0.004085541,0.001190186,0,
00:08.3,0.000795364,0.004108429,0.00120163,0,
00:08.3,0.000852585,0.004142761,0.001173019,0,
00:08.3,0.000823975,0.004108429,0.001195908,0,
00:08.3,0.000772476,0.004079819,0.001270294,0,
00:08.3,0.00078392,0.004114151,0.001218796,0,
00:08.3,0.000829697,0.004079819,0.001213074,0,
00:08.3,0.000829697,0.004148483,0.001150131,0,
00:08.3,0.000846863,0.00419426,0.001115799,0,
00:08.3,0.000772476,0.004096985,0.001184464,0,
00:08.3,0.000778198,0.004051208,0.00125885,0,
00:08.3,0.00075531,0.004051208,0.001213074,0,
00:08.3,0.00078392,0.004137039,0.001150131,0,
00:08.4,0.000864029,0.004217148,0.001110077,0,
00:08.4,0.000846863,0.004137039,0.001218796,0,
00:08.4,0.000818253,0.004096985,0.001247406,0,
00:08.4,0.000852585,0.004131317,0.001155853,0,
00:08.4,0.000904083,0.004182816,0.001150131,0,
00:08.4,0.000864029,0.004177094,0.001155853,0,
00:08.4,0.000812531,0.004102707,0.001207352,0,
00:08.4,0.00075531,0.004016876,0.001253128,0,
00:08.4,0.000738144,0.004068375,0.00123024,0,
00:08.4,0.000761032,0.004091263,0.001178741,0,
00:08.4,0.000795364,0.004182816,0.001138687,0,
00:08.4,0.000846863,0.004211426,0.001087189,0,
00:08.4,0.000789642,0.004085541,0.001218796,0,
00:08.4,0.000761032,0.004096985,0.00125885,0,
00:08.4,0.000818253,0.004131317,0.001253128,0,
00:08.4,0.000961304,0.004108429,0.001235962,0,
00:08.4,0.001001358,0.004085541,0.001178741,0,
00:08.4,0.000829697,0.004068375,0.001121521,0,
00:08.4,0.000720978,0.004142761,0.001104355,0,
00:08.4,0.0007267,0.004171371,0.001132965,0,
00:08.4,0.000749588,0.004142761,0.001161575,0,
00:08.4,0.000806808,0.004159927,0.001190186,0,
00:08.4,0.000801086,0.004102707,0.001213074,0,
00:08.4,0.00078392,0.004062653,0.001213074,0,
00:08.4,0.000789642,0.004091263,0.001173019,0,
00:08.5,0.000852585,0.004131317,0.001167297,0,
00:08.5,0.000823975,0.004154205,0.001132965,0,
00:08.5,0.000801086,0.004154205,0.001110077,0,
00:08.5,0.000812531,0.004142761,0.001121521,0,
00:08.5,0.000801086,0.004062653,0.001218796,0,
00:08.5,0.000801086,0.004125595,0.00123024,0,
00:08.5,0.000789642,0.004119873,0.001213074,0,
00:08.5,0.00078392,0.004114151,0.001178741,0,
00:08.5,0.000829697,0.004108429,0.00120163,0,
00:08.5,0.000823975,0.004114151,0.001150131,0,
00:08.5,0.000801086,0.004079819,0.001144409,0,
00:08.5,0.00078392,0.004114151,0.001173019,0,
00:08.5,0.000806808,0.004154205,0.001190186,0,
00:08.5,0.000852585,0.004154205,0.001195908,0,
00:08.5,0.000823975,0.004096985,0.001213074,0,
00:08.5,0.000795364,0.004114151,0.001213074,0,
00:08.5,0.00078392,0.004119873,0.001207352,0,
00:08.5,0.00075531,0.004074097,0.001167297,0,
00:08.5,0.000875473,0.004079819,0.001173019,0,
00:08.5,0.000926971,0.004177094,0.001110077,0,
00:08.5,0.000801086,0.004171371,0.001155853,0,
00:08.5,0.000778198,0.004119873,0.001207352,0,
00:08.5,0.000806808,0.004154205,0.001195908,0,
00:08.5,0.00078392,0.004108429,0.001213074,0,
00:08.5,0.000789642,0.004062653,0.001213074,0,
00:08.6,0.000823975,0.004102707,0.001173019,0,
00:08.6,0.000823975,0.004085541,0.001144409,0,
00:08.6,0.000846863,0.004137039,0.001138687,0,
00:08.6,0.000864029,0.004154205,0.001178741,0,
00:08.6,0.000892639,0.004119873,0.001173019,0,
00:08.6,0.000904083,0.004125595,0.001110077,0,
00:08.6,0.000818253,0.004114151,0.001110077,0,
00:08.6,0.00075531,0.004114151,0.001190186,0,
00:08.6,0.000761032,0.004108429,0.001150131,0,
00:08.6,0.000806808,0.004108429,0.00120163,0,
00:08.6,0.000818253,0.004102707,0.001235962,0,
00:08.6,0.000858307,0.004114151,0.001195908,0,
00:08.6,0.000852585,0.004171371,0.001161575,0,
00:08.6,0.000761032,0.004131317,0.001144409,0,
00:08.6,0.000732422,0.004039764,0.001184464,0,
00:08.6,0.000789642,0.004102707,0.001224518,0,
00:08.6,0.000829697,0.004177094,0.001178741,0,
00:08.6,0.000909805,0.00422287,0.001121521,0,
00:08.6,0.000846863,0.004125595,0.001144409,0,
00:08.6,0.000761032,0.004045486,0.001241684,0,
00:08.6,0.000818253,0.004091263,0.001235962,0,
00:08.6,0.000835419,0.004131317,0.00120163,0,
00:08.6,0.000818253,0.004091263,0.001195908,0,
00:08.6,0.000812531,0.004102707,0.001155853,0,
00:08.6,0.000841141,0.004102707,0.001161575,0,
00:08.7,0.000801086,0.004108429,0.001167297,0,
00:08.7,0.000823975,0.004137039,0.001184464,0,
00:08.7,0.00078392,0.004114151,0.001190186,0,
00:08.7,0.000806808,0.004119873,0.001150131,0,
00:08.7,0.000806808,0.004096985,0.001150131,0,
00:08.7,0.00078392,0.004074097,0.001235962,0,
00:08.7,0.000829697,0.004096985,0.001167297,0,
00:08.7,0.000869751,0.004125595,0.001144409,0,
00:08.7,0.000829697,0.004096985,0.001161575,0,
00:08.7,0.000772476,0.004039764,0.001184464,0,
00:08.7,0.000795364,0.004119873,0.001241684,0,
00:08.7,0.000818253,0.004137039,0.001218796,0,
00:08.7,0.000869751,0.004165649,0.001161575,0,
00:08.7,0.000875473,0.004119873,0.001178741,0,
00:08.7,0.000789642,0.004039764,0.001253128,0,
00:08.7,0.00078392,0.004045486,0.001218796,0,
00:08.7,0.000806808,0.004108429,0.001195908,0,
00:08.7,0.000772476,0.004171371,0.001144409,0,
00:08.7,0.000789642,0.004102707,0.001167297,0,
00:08.7,0.000801086,0.004034042,0.001235962,0,
00:08.7,0.000829697,0.004074097,0.00123024,0,
00:08.7,0.000829697,0.004102707,0.001184464,0,
00:08.7,0.000846863,0.004119873,0.001167297,0,
00:08.7,0.000818253,0.004096985,0.001178741,0,
00:08.7,0.000801086,0.004096985,0.001207352,0,
00:08.8,0.000812531,0.004096985,0.001213074,0,
00:08.8,0.000846863,0.004142761,0.001195908,0,
00:08.8,0.000852585,0.004108429,0.001161575,0,
00:08.8,0.000829697,0.004039764,0.001195908,0,
00:08.8,0.000801086,0.004062653,0.001213074,0,
00:08.8,0.00078392,0.004114151,0.001195908,0,
00:08.8,0.000864029,0.004182816,0.001144409,0,
00:08.8,0.000909805,0.004205704,0.001138687,0,
00:08.8,0.000818253,0.004045486,0.001264572,0,
00:08.8,0.000789642,0.0039711,0.001264572,0,
00:08.8,0.000864029,0.00399971,0.001207352,0,
00:08.8,0.000881195,0.004108429,0.001161575,0,
00:08.8,0.000875473,0.004199982,0.001155853,0,
00:08.8,0.000864029,0.00425148,0.001155853,0,
00:08.8,0.000818253,0.004131317,0.00120163,0,
00:08.8,0.000720978,0.003993988,0.001293182,0,
00:08.8,0.000778198,0.004079819,0.00123024,0,
00:08.8,0.000806808,0.004114151,0.001224518,0,
00:08.8,0.000829697,0.004114151,0.001241684,0,
00:08.8,0.000795364,0.004074097,0.001213074,0,
00:08.8,0.000795364,0.004068375,0.001218796,0,
00:08.8,0.000841141,0.004074097,0.001224518,0,
00:08.8,0.000846863,0.004119873,0.001144409,0,
00:08.8,0.000846863,0.004125595,0.001190186,0,
00:08.8,0.000835419,0.004108429,0.001218796,0,
00:08.9,0.000829697,0.004131317,0.001207352,0,
00:08.9,0.000806808,0.004062653,0.001195908,0,
00:08.9,0.000846863,0.004085541,0.001144409,0,
00:08.9,0.000823975,0.004056931,0.00123024,0,
00:08.9,0.000801086,0.004045486,0.001270294,0,
00:08.9,0.000812531,0.004062653,0.00123024,0,
00:08.9,0.000835419,0.004102707,0.001213074,0,
00:08.9,0.000841141,0.004148483,0.001144409,0,
00:08.9,0.000858307,0.004137039,0.001161575,0,
00:08.9,0.000858307,0.004125595,0.00123024,0,
00:08.9,0.000806808,0.004074097,0.00123024,0,
00:08.9,0.000818253,0.004062653,0.001184464,0,
00:08.9,0.000823975,0.004114151,0.001213074,0,
00:08.9,0.000789642,0.004016876,0.00123024,0,
00:08.9,0.000795364,0.004045486,0.001235962,0,
00:08.9,0.000812531,0.004125595,0.001235962,0,
00:08.9,0.000875473,0.004171371,0.001178741,0,
00:08.9,0.000898361,0.00419426,0.001115799,0,
00:08.9,0.000875473,0.004079819,0.001224518,0,
00:08.9,0.000806808,0.00399971,0.001281738,0,
00:08.9,0.000801086,0.004022598,0.00125885,0,
00:08.9,0.000795364,0.004039764,0.001224518,0,
00:08.9,0.00078392,0.004056931,0.001247406,0,
00:08.9,0.000829697,0.004051208,0.001207352,0,
00:08.9,0.000852585,0.004108429,0.001138687,0,
00:09.0,0.000841141,0.004131317,0.001138687,0,
00:09.0,0.000875473,0.004125595,0.001213074,0,
00:09.0,0.000886917,0.004102707,0.001218796,0,
00:09.0,0.000852585,0.004102707,0.00123024,0,
00:09.0,0.000818253,0.004102707,0.001241684,0,
00:09.0,0.000823975,0.004108429,0.001195908,0,
00:09.0,0.000841141,0.004114151,0.001213074,0,
00:09.0,0.000846863,0.004137039,0.001224518,0,
00:09.0,0.000812531,0.004039764,0.001264572,0,
00:09.0,0.000841141,0.004034042,0.001235962,0,
00:09.0,0.000823975,0.004062653,0.001195908,0,
00:09.0,0.000795364,0.004045486,0.001247406,0,
00:00:09,0.000818253,0.004079819,0.001224518,0,
00:09.0,0.000818253,0.004085541,0.001207352,0,
00:09.0,0.000858307,0.004125595,0.00120163,0,
00:09.0,0.000864029,0.004159927,0.001150131,0,
00:09.0,0.000778198,0.004062653,0.001190186,0,
00:09.0,0.000806808,0.004056931,0.00123024,0,
00:09.0,0.000823975,0.004056931,0.001247406,0,
00:09.0,0.000789642,0.004045486,0.001293182,0,
00:09.0,0.000823975,0.004085541,0.001213074,0,
00:09.0,0.000841141,0.004068375,0.001184464,0,
00:09.0,0.000818253,0.004045486,0.001241684,0,
00:09.0,0.000818253,0.004074097,0.001224518,0,
00:09.0,0.000852585,0.004085541,0.00123024,0,
00:09.1,0.000864029,0.004079819,0.001218796,0,
00:09.1,0.000864029,0.004056931,0.001224518,0,
00:09.1,0.000852585,0.004102707,0.001235962,0,
00:09.1,0.000858307,0.004148483,0.001218796,0,
00:09.1,0.000835419,0.004096985,0.001218796,0,
00:09.1,0.000795364,0.004022598,0.001195908,0,
00:09.1,0.000789642,0.004051208,0.001207352,0,
00:09.1,0.000812531,0.004079819,0.00123024,0,
00:09.1,0.000818253,0.004085541,0.001247406,0,
00:09.1,0.000823975,0.004102707,0.001218796,0,
00:09.1,0.000829697,0.004096985,0.001213074,0,
00:09.1,0.000818253,0.004091263,0.001218796,0,
00:09.1,0.000818253,0.004096985,0.001253128,0,
00:09.1,0.000818253,0.004068375,0.001247406,0,
00:09.1,0.000818253,0.004039764,0.001253128,0,
00:09.1,0.000806808,0.004056931,0.001241684,0,
00:09.1,0.000818253,0.004079819,0.001195908,0,
00:09.1,0.000886917,0.004148483,0.001138687,0,
00:09.1,0.00094986,0.004205704,0.001150131,0,
00:09.1,0.000886917,0.004096985,0.001235962,0,
00:09.1,0.000772476,0.0039711,0.00128746,0,
00:09.1,0.000715256,0.004011154,0.001264572,0,
00:09.1,0.000761032,0.004062653,0.001276016,0,
00:09.1,0.000806808,0.004079819,0.001241684,0,
00:09.1,0.00078392,0.004051208,0.001241684,0,
00:09.2,0.000864029,0.004085541,0.001207352,0,
00:09.2,0.000852585,0.004125595,0.001173019,0,
00:09.2,0.000852585,0.004137039,0.001195908,0,
00:09.2,0.000795364,0.004039764,0.001264572,0,
00:09.2,0.000789642,0.00402832,0.001241684,0,
00:09.2,0.000812531,0.004039764,0.00120163,0,
00:09.2,0.000812531,0.004068375,0.001213074,0,
00:09.2,0.000841141,0.004102707,0.001241684,0,
00:09.2,0.000846863,0.004108429,0.001247406,0,
00:09.2,0.000852585,0.004091263,0.001241684,0,
00:09.2,0.000864029,0.004114151,0.00120163,0,
00:09.2,0.000846863,0.004137039,0.001144409,0,
00:09.2,0.000841141,0.004091263,0.001144409,0,
00:09.2,0.000858307,0.004056931,0.001247406,0,
00:09.2,0.000818253,0.004045486,0.00128746,0,
00:09.2,0.000789642,0.004074097,0.001276016,0,
00:09.2,0.000801086,0.004102707,0.00123024,0,
00:09.2,0.000789642,0.004056931,0.001241684,0,
00:09.2,0.000795364,0.004045486,0.001235962,0,
00:09.2,0.000835419,0.004068375,0.001218796,0,
00:09.2,0.000823975,0.004131317,0.001173019,0,
00:09.2,0.000841141,0.004165649,0.001178741,0,
00:09.2,0.000812531,0.004096985,0.001207352,0,
00:09.2,0.000801086,0.004045486,0.001218796,0,
00:09.2,0.000772476,0.00399971,0.001281738,0,
00:09.3,0.000743866,0.004016876,0.001310349,0,
00:09.3,0.00078392,0.004079819,0.001235962,0,
00:09.3,0.000841141,0.004102707,0.001218796,0,
00:09.3,0.000852585,0.004096985,0.00123024,0,
00:09.3,0.000864029,0.004131317,0.001184464,0,
00:09.3,0.000789642,0.004056931,0.001184464,0,
00:09.3,0.000749588,0.004034042,0.001224518,0,
00:09.3,0.000829697,0.004074097,0.001241684,0,
00:09.3,0.000812531,0.004079819,0.001270294,0,
00:09.3,0.00078392,0.004091263,0.00125885,0,
00:09.3,0.000795364,0.004079819,0.001270294,0,
00:09.3,0.000829697,0.004096985,0.001218796,0,
00:09.3,0.000823975,0.004091263,0.001207352,0,
00:09.3,0.000789642,0.004062653,0.001235962,0,
00:09.3,0.000806808,0.004079819,0.001241684,0,
00:09.3,0.000829697,0.004114151,0.00125885,0,
00:09.3,0.000841141,0.004131317,0.001235962,0,
00:09.3,0.000818253,0.004131317,0.001178741,0,
00:09.3,0.000795364,0.004079819,0.001253128,0,
00:09.3,0.000835419,0.004034042,0.001293182,0,
00:09.3,0.000806808,0.004005432,0.001270294,0,
00:09.3,0.000789642,0.004085541,0.001235962,0,
00:09.3,0.000812531,0.004142761,0.001213074,0,
00:09.3,0.000818253,0.004108429,0.001207352,0,
00:09.3,0.000818253,0.004108429,0.001190186,0,
00:09.4,0.000778198,0.004034042,0.001241684,0,
00:09.4,0.000772476,0.004005432,0.001304626,0,
00:09.4,0.00078392,0.004056931,0.001276016,0,
00:09.4,0.000806808,0.004108429,0.001253128,0,
00:09.4,0.000823975,0.004096985,0.001195908,0,
00:09.4,0.000835419,0.004108429,0.001207352,0,
00:09.4,0.000738144,0.004056931,0.001264572,0,
00:09.4,0.00075531,0.004039764,0.001270294,0,
00:09.4,0.000795364,0.004062653,0.001218796,0,
00:09.4,0.000852585,0.004096985,0.001167297,0,
00:09.4,0.000881195,0.004114151,0.001218796,0,
00:09.4,0.000835419,0.004085541,0.001253128,0,
00:09.4,0.000818253,0.004051208,0.001270294,0,
00:09.4,0.000818253,0.004085541,0.001241684,0,
00:09.4,0.000766754,0.004022598,0.001293182,0,
00:09.4,0.000772476,0.004016876,0.00128746,0,
00:09.4,0.000812531,0.004079819,0.001207352,0,
00:09.4,0.000806808,0.004096985,0.001235962,0,
00:09.4,0.000812531,0.004096985,0.001276016,0,
00:09.4,0.000835419,0.004108429,0.001235962,0,
00:09.4,0.000789642,0.004045486,0.001207352,0,
00:09.4,0.000772476,0.004039764,0.001241684,0,
00:09.4,0.000801086,0.004062653,0.001281738,0,
00:09.4,0.000818253,0.004091263,0.001218796,0,
00:09.4,0.000806808,0.004079819,0.001241684,0,
00:09.5,0.000795364,0.00402832,0.001270294,0,
00:09.5,0.000818253,0.004045486,0.001241684,0,
00:09.5,0.000846863,0.004091263,0.001213074,0,
00:09.5,0.000778198,0.004085541,0.001235962,0,
00:09.5,0.000761032,0.004142761,0.001224518,0,
00:09.5,0.000766754,0.004085541,0.001270294,0,
00:09.5,0.000789642,0.004051208,0.001293182,0,
00:09.5,0.00078392,0.004034042,0.00128746,0,
00:09.5,0.000801086,0.004068375,0.001218796,0,
00:09.5,0.000841141,0.004091263,0.00120163,0,
00:09.5,0.000829697,0.004085541,0.001253128,0,
00:09.5,0.000795364,0.004085541,0.001304626,0,
00:09.5,0.000772476,0.004039764,0.001276016,0,
00:09.5,0.000778198,0.004074097,0.001241684,0,
00:09.5,0.000789642,0.004119873,0.001253128,0,
00:09.5,0.000801086,0.004125595,0.001213074,0,
00:09.5,0.000829697,0.004148483,0.001207352,0,
00:09.5,0.000801086,0.004102707,0.00128746,0,
00:09.5,0.000766754,0.004051208,0.00125885,0,
00:09.5,0.000743866,0.004056931,0.001235962,0,
00:09.5,0.000778198,0.004085541,0.00123024,0,
00:09.5,0.000795364,0.004096985,0.001264572,0,
00:09.5,0.000789642,0.004119873,0.001253128,0,
00:09.5,0.000772476,0.004062653,0.001235962,0,
00:09.5,0.00078392,0.004079819,0.001270294,0,
00:09.6,0.000795364,0.004114151,0.001247406,0,
00:09.6,0.000772476,0.004125595,0.001224518,0,
00:09.6,0.00075531,0.004159927,0.001218796,0,
00:09.6,0.000818253,0.004096985,0.00128746,0,
00:09.6,0.000829697,0.004102707,0.001276016,0,
00:09.6,0.000795364,0.004068375,0.00125885,0,
00:09.6,0.000772476,0.004062653,0.001253128,0,
00:09.6,0.000812531,0.004108429,0.00123024,0,
00:09.6,0.000806808,0.004142761,0.001247406,0,
00:09.6,0.000806808,0.004119873,0.001224518,0,
00:09.6,0.000789642,0.004108429,0.001235962,0,
00:09.6,0.000761032,0.004085541,0.001281738,0,
00:09.6,0.000766754,0.004091263,0.001253128,0,
00:09.6,0.000772476,0.004119873,0.001235962,0,
00:09.6,0.000761032,0.004108429,0.001241684,0,
00:09.6,0.000789642,0.004148483,0.001207352,0,
00:09.6,0.000812531,0.004217148,0.001184464,0,
00:09.6,0.000806808,0.004159927,0.001241684,0,
00:09.6,0.00075531,0.004085541,0.001298904,0,
00:09.6,0.000761032,0.004102707,0.001270294,0,
00:09.6,0.00078392,0.004085541,0.001213074,0,
00:09.6,0.000858307,0.004154205,0.001218796,0,
00:09.6,0.000829697,0.004171371,0.001207352,0,
00:09.6,0.000715256,0.004085541,0.001264572,0,
00:09.6,0.000738144,0.004074097,0.00128746,0,
00:09.7,0.000761032,0.004068375,0.001253128,0,
00:09.7,0.00075531,0.004102707,0.001218796,0,
00:09.7,0.000812531,0.004188538,0.001253128,0,
00:09.7,0.000835419,0.004165649,0.001276016,0,
00:09.7,0.000789642,0.004154205,0.001264572,0,
00:09.7,0.000738144,0.004131317,0.001264572,0,
00:09.7,0.000743866,0.004154205,0.001224518,0,
00:09.7,0.000801086,0.004188538,0.001207352,0,
00:09.7,0.000806808,0.004177094,0.00120163,0,
00:09.7,0.000766754,0.004102707,0.001276016,0,
00:09.7,0.00075531,0.004091263,0.00125885,0,
00:09.7,0.000801086,0.004137039,0.001235962,0,
00:09.7,0.000812531,0.004165649,0.001207352,0,
00:09.7,0.0007267,0.004119873,0.001207352,0,
00:09.7,0.00078392,0.004171371,0.001235962,0,
00:09.7,0.000778198,0.004142761,0.001195908,0,
00:09.7,0.000795364,0.004119873,0.001253128,0,
00:09.7,0.000812531,0.004205704,0.001264572,0,
00:09.7,0.00078392,0.00419426,0.001247406,0,
00:09.7,0.000766754,0.004096985,0.001270294,0,
00:09.7,0.000761032,0.004131317,0.001253128,0,
00:09.7,0.000806808,0.004188538,0.001155853,0,
00:09.7,0.000772476,0.004159927,0.00123024,0,
00:09.7,0.000720978,0.004125595,0.001310349,0,
00:09.7,0.000738144,0.004125595,0.001281738,0,
00:09.8,0.000749588,0.004148483,0.001253128,0,
00:09.8,0.00075531,0.004177094,0.001235962,0,
00:09.8,0.000761032,0.004154205,0.001218796,0,
00:09.8,0.000812531,0.004182816,0.001207352,0,
00:09.8,0.000806808,0.004177094,0.00123024,0,
00:09.8,0.000789642,0.004177094,0.001235962,0,
00:09.8,0.000749588,0.004154205,0.00120163,0,
00:09.8,0.000766754,0.004188538,0.001235962,0,
00:09.8,0.00078392,0.00419426,0.001241684,0,
00:09.8,0.000766754,0.004119873,0.001235962,0,
00:09.8,0.000795364,0.004148483,0.001218796,0,
00:09.8,0.00078392,0.00419426,0.00120163,0,
00:09.8,0.000743866,0.004154205,0.001276016,0,
00:09.8,0.000738144,0.004142761,0.001270294,0,
00:09.8,0.000789642,0.004154205,0.001235962,0,
00:09.8,0.000778198,0.004154205,0.00123024,0,
00:09.8,0.000761032,0.004154205,0.00123024,0,
00:09.8,0.00078392,0.004171371,0.001184464,0,
00:09.8,0.000766754,0.004217148,0.001207352,0,
00:09.8,0.000749588,0.004211426,0.001218796,0,
00:09.8,0.000732422,0.004114151,0.001264572,0,
00:09.8,0.00075531,0.004114151,0.00125885,0,
00:09.8,0.000749588,0.004125595,0.00123024,0,
00:09.8,0.000772476,0.004159927,0.001241684,0,
00:09.8,0.000766754,0.004182816,0.00123024,0,
00:09.9,0.000778198,0.004205704,0.00120163,0,
00:09.9,0.000772476,0.004148483,0.001184464,0,
00:09.9,0.000795364,0.004182816,0.00120163,0,
00:09.9,0.000766754,0.004199982,0.001247406,0,
00:09.9,0.000772476,0.004131317,0.001253128,0,
00:09.9,0.000778198,0.004154205,0.001213074,0,
00:09.9,0.00075531,0.004177094,0.00123024,0,
00:09.9,0.000715256,0.004142761,0.00125885,0,
00:09.9,0.000761032,0.004177094,0.001247406,0,
00:09.9,0.000761032,0.004171371,0.001247406,0,
00:09.9,0.000738144,0.004159927,0.001213074,0,
00:09.9,0.000761032,0.004217148,0.001184464,0,
00:09.9,0.000743866,0.004228592,0.001224518,0,
00:09.9,0.000709534,0.004114151,0.001264572,0,
00:09.9,0.000743866,0.004125595,0.001253128,0,
00:09.9,0.00075531,0.004159927,0.001235962,0,
00:09.9,0.000749588,0.004159927,0.00123024,0,
00:09.9,0.00075531,0.004165649,0.00123024,0,
00:09.9,0.000749588,0.00419426,0.001207352,0,
00:09.9,0.000749588,0.004234314,0.001167297,0,
00:09.9,0.000795364,0.004268646,0.001161575,0,
00:09.9,0.000772476,0.004165649,0.00123024,0,
00:09.9,0.00075531,0.004148483,0.00125885,0,
00:09.9,0.000692368,0.004119873,0.00123024,0,
00:09.9,0.000720978,0.004137039,0.001224518,0,
00:10.0,0.000743866,0.004142761,0.001253128,0,
00:10.0,0.000766754,0.004177094,0.001213074,0,
00:10.0,0.000806808,0.004177094,0.001190186,0,
00:10.0,0.000772476,0.00419426,0.00120163,0,
00:10.0,0.000749588,0.00422287,0.001207352,0,
00:10.0,0.000749588,0.00419426,0.001224518,0,
00:10.0,0.00069809,0.004142761,0.001281738,0,
00:10.0,0.000709534,0.004165649,0.001213074,0,
00:10.0,0.000749588,0.00419426,0.001190186,0,
00:10.0,0.000749588,0.004199982,0.001235962,0,
00:10.0,0.000772476,0.004245758,0.001235962,0,
00:10.0,0.00075531,0.004217148,0.001253128,0,
00:00:10,0.000709534,0.004137039,0.001264572,0,
00:10.0,0.00069809,0.004137039,0.001253128,0,
00:10.0,0.000715256,0.004154205,0.001224518,0,
00:10.0,0.000749588,0.004205704,0.001190186,0,
00:10.0,0.00075531,0.004257202,0.001161575,0,
00:10.0,0.0007267,0.004182816,0.001207352,0,
00:10.0,0.000709534,0.004114151,0.001270294,0,
00:10.0,0.000720978,0.004148483,0.001224518,0,
00:10.0,0.00075531,0.004177094,0.001184464,0,
00:10.0,0.00075531,0.00419426,0.001190186,0,
00:10.0,0.000703812,0.004177094,0.001207352,0,
00:10.0,0.000686646,0.004171371,0.001235962,0,
00:10.0,0.000720978,0.004205704,0.001207352,0,
00:10.1,0.0007267,0.004211426,0.001207352,0,
00:10.1,0.000772476,0.004182816,0.001195908,0,
00:10.1,0.000732422,0.004165649,0.001235962,0,
00:10.1,0.00069809,0.004171371,0.001190186,0,
00:10.1,0.000732422,0.00419426,0.001213074,0,
00:10.1,0.000743866,0.004211426,0.001218796,0,
00:10.1,0.000766754,0.004228592,0.001207352,0,
00:10.1,0.00075531,0.00425148,0.001184464,0,
00:10.1,0.00075531,0.00425148,0.00120163,0,
00:10.1,0.000743866,0.004217148,0.001213074,0,
00:10.1,0.000692368,0.004137039,0.001253128,0,
00:10.1,0.000703812,0.004159927,0.001213074,0,
00:10.1,0.000732422,0.004228592,0.00120163,0,
00:10.1,0.0007267,0.004217148,0.001218796,0,
00:10.1,0.000709534,0.00419426,0.001195908,0,
00:10.1,0.000703812,0.004188538,0.001173019,0,
00:10.1,0.000749588,0.004205704,0.001173019,0,
00:10.1,0.00078392,0.004228592,0.001190186,0,
00:10.1,0.000749588,0.004240036,0.001190186,0,
00:10.1,0.000652313,0.004217148,0.001235962,0,
00:10.1,0.000652313,0.004159927,0.001213074,0,
00:10.1,0.000703812,0.004171371,0.001155853,0,
00:10.1,0.0007267,0.004171371,0.001207352,0,
00:10.1,0.000692368,0.004199982,0.001241684,0,
00:10.1,0.000715256,0.004188538,0.001190186,0,
00:10.2,0.0007267,0.004165649,0.001144409,0,
00:10.2,0.00075531,0.004217148,0.001150131,0,
00:10.2,0.00078392,0.004285812,0.001184464,0,
00:10.2,0.000743866,0.004274368,0.001218796,0,
00:10.2,0.000743866,0.004285812,0.001224518,0,
00:10.2,0.00069809,0.004217148,0.001213074,0,
00:10.2,0.000675201,0.004182816,0.001195908,0,
00:10.2,0.000669479,0.004154205,0.001195908,0,
00:10.2,0.000686646,0.004171371,0.001224518,0,
00:10.2,0.000720978,0.004199982,0.00120163,0,
00:10.2,0.000720978,0.004205704,0.001195908,0,
00:10.2,0.00069809,0.004240036,0.001173019,0,
00:10.2,0.000732422,0.004268646,0.001127243,0,
00:10.2,0.000692368,0.004199982,0.001155853,0,
00:10.2,0.000703812,0.00419426,0.001218796,0,
00:10.2,0.000743866,0.004234314,0.001178741,0,
00:10.2,0.000732422,0.004274368,0.001173019,0,
00:10.2,0.000686646,0.004205704,0.001173019,0,
00:10.2,0.000635147,0.004131317,0.001195908,0,
00:10.2,0.000658035,0.004217148,0.001218796,0,
00:10.2,0.000680923,0.004234314,0.00120163,0,
00:10.2,0.000703812,0.004217148,0.001132965,0,
00:10.2,0.000720978,0.004217148,0.001132965,0,
00:10.2,0.0007267,0.004234314,0.001190186,0,
00:10.2,0.00069809,0.004211426,0.001213074,0,
00:10.3,0.000692368,0.00425148,0.001190186,0,
00:10.3,0.000709534,0.004274368,0.001161575,0,
00:10.3,0.00069809,0.004217148,0.00120163,0,
