Elapsed_Time,EMG1,EMG2,EMG3,BioRadio Event,Unnamed: 5
0:00:00,-0.002838135,-0.009567261,0.00279808,0
00:00.0,-0.0028266909999999997,-0.009550095,0.002775192,0
00:00.0,-0.0028553009999999998,-0.009544373,0.00279808,0
00:00.0,-0.002843857,-0.009550095,0.002838135,0
00:00.0,-0.002843857,-0.009555817,0.0028209690000000004,0
00:00.0,-0.002861023,-0.009555817,0.0028324129999999998,0
00:00.0,-0.002849579,-0.009550095,0.0028324129999999998,0
00:00.0,-0.002843857,-0.009538651,0.0028152470000000003,0
00:00.0,-0.002838135,-0.009555817,0.002803802,0
00:00.0,-0.0028324129999999998,-0.009572983,0.002803802,0
00:00.0,-0.002843857,-0.009550095,0.002763748,0
00:00.0,-0.0028553009999999998,-0.009544373,0.002786636,0
00:00.0,-0.002861023,-0.009567261,0.002849579,0
00:00.1,-0.002849579,-0.009561539,0.002843857,0
00:00.1,-0.002838135,-0.009550095,0.002809525,0
00:00.1,-0.0028553009999999998,-0.009555817,0.002786636,0
00:00.1,-0.002843857,-0.009555817,0.002843857,0
00:00.1,-0.0028324129999999998,-0.009567261,0.0028209690000000004,0
00:00.1,-0.002809525,-0.009572983,0.002780914,0
00:00.1,-0.002843857,-0.009544373,0.002780914,0
00:00.1,-0.002843857,-0.009555817,0.002803802,0
00:00.1,-0.002878189,-0.009550095,0.002838135,0
00:00.1,-0.002872467,-0.009567261,0.002838135,0
00:00.1,-0.002843857,-0.009561539,0.0028152470000000003,0
00:00.1,-0.002849579,-0.009561539,0.002803802,0
00:00.1,-0.0028553009999999998,-0.009555817,0.002838135,0
00:00.1,-0.002849579,-0.009555817,0.0028152470000000003,0
00:00.1,-0.002838135,-0.009561539,0.002780914,0
00:00.1,-0.0028553009999999998,-0.009555817,0.0028152470000000003,0
00:00.1,-0.0028266909999999997,-0.009544373,0.002792358,0
00:00.1,-0.0028553009999999998,-0.009550095,0.002809525,0
00:00.1,-0.0028553009999999998,-0.009555817,0.002758026,0
00:00.1,-0.002843857,-0.009561539,0.002809525,0
00:00.1,-0.0028553009999999998,-0.009572983,0.002849579,0
00:00.1,-0.002861023,-0.009567261,0.0028266909999999997,0
00:00.1,-0.002843857,-0.009567261,0.002809525,0
00:00.1,-0.0028209690000000004,-0.009567261,0.002775192,0
00:00.1,-0.0028266909999999997,-0.009544373,0.002786636,0
00:00.2,-0.002861023,-0.009538651,0.0028209690000000004,0
00:00.2,-0.002861023,-0.009561539,0.0028266909999999997,0
00:00.2,-0.0028266909999999997,-0.009555817,0.0028324129999999998,0
00:00.2,-0.0028152470000000003,-0.009550095,0.0028209690000000004,0
00:00.2,-0.002866745,-0.009567261,0.00279808,0
00:00.2,-0.0028553009999999998,-0.009555817,0.00276947,0
00:00.2,-0.002849579,-0.009561539,0.002758026,0
00:00.2,-0.002866745,-0.009578705,0.002775192,0
00:00.2,-0.002849579,-0.009572983,0.002809525,0
00:00.2,-0.0028553009999999998,-0.009567261,0.0028324129999999998,0
00:00.2,-0.002849579,-0.009555817,0.0028266909999999997,0
00:00.2,-0.002849579,-0.009550095,0.0028152470000000003,0
00:00.2,-0.002843857,-0.009561539,0.0028324129999999998,0
00:00.2,-0.002849579,-0.009561539,0.0028152470000000003,0
00:00.2,-0.0028553009999999998,-0.009567261,0.002780914,0
00:00.2,-0.002849579,-0.009561539,0.00279808,0
00:00.2,-0.0028324129999999998,-0.009561539,0.002809525,0
00:00.2,-0.0028209690000000004,-0.009561539,0.002786636,0
00:00.2,-0.002861023,-0.009555817,0.002803802,0
00:00.2,-0.0028553009999999998,-0.009550095,0.00279808,0
00:00.2,-0.002843857,-0.009555817,0.00276947,0
00:00.2,-0.002849579,-0.009561539,0.0028152470000000003,0
00:00.2,-0.0028553009999999998,-0.009567261,0.002803802,0
00:00.2,-0.002861023,-0.009567261,0.0028152470000000003,0
00:00.2,-0.002843857,-0.009572983,0.002803802,0
00:00.3,-0.002838135,-0.009567261,0.002775192,0
00:00.3,-0.002861023,-0.009567261,0.002775192,0
00:00.3,-0.002838135,-0.009555817,0.002792358,0
00:00.3,-0.002843857,-0.009550095,0.002763748,0
00:00.3,-0.002872467,-0.009572983,0.002792358,0
00:00.3,-0.002849579,-0.009567261,0.0028266909999999997,0
00:00.3,-0.0028266909999999997,-0.009555817,0.002809525,0
00:00.3,-0.002849579,-0.009567261,0.00279808,0
00:00.3,-0.002866745,-0.009572983,0.002780914,0
00:00.3,-0.0028209690000000004,-0.009572983,0.002758026,0
00:00.3,-0.002849579,-0.009561539,0.002780914,0
00:00.3,-0.002861023,-0.009561539,0.0028266909999999997,0
00:00.3,-0.002849579,-0.009567261,0.0028266909999999997,0
00:00.3,-0.002872467,-0.009561539,0.00279808,0
00:00.3,-0.0028553009999999998,-0.009550095,0.002758026,0
00:00.3,-0.002861023,-0.009567261,0.00279808,0
00:00.3,-0.0028553009999999998,-0.009572983,0.0028152470000000003,0
00:00.3,-0.0028553009999999998,-0.009578705,0.00279808,0
00:00.3,-0.002849579,-0.009584427,0.002809525,0
00:00.3,-0.002849579,-0.009555817,0.002803802,0
00:00.3,-0.002849579,-0.009555817,0.00279808,0
00:00.3,-0.002849579,-0.009561539,0.002792358,0
00:00.3,-0.002849579,-0.009567261,0.00279808,0
00:00.3,-0.0028553009999999998,-0.009567261,0.002792358,0
00:00.3,-0.002849579,-0.009567261,0.002786636,0
00:00.4,-0.0028553009999999998,-0.009561539,0.002746582,0
00:00.4,-0.0028324129999999998,-0.009561539,0.002746582,0
00:00.4,-0.0028266909999999997,-0.009555817,0.002803802,0
00:00.4,-0.002809525,-0.009561539,0.002803802,0
00:00.4,-0.002861023,-0.009567261,0.002763748,0
00:00.4,-0.0028553009999999998,-0.009578705,0.002780914,0
00:00.4,-0.002883911,-0.009572983,0.002792358,0
00:00.4,-0.002861023,-0.009572983,0.0028324129999999998,0
00:00.4,-0.002866745,-0.009572983,0.00279808,0
00:00.4,-0.002878189,-0.009561539,0.002746582,0
00:00.4,-0.0028553009999999998,-0.009561539,0.002786636,0
00:00.4,-0.002849579,-0.009578705,0.002792358,0
00:00.4,-0.002849579,-0.009567261,0.0028152470000000003,0
00:00.4,-0.0028553009999999998,-0.009561539,0.0028152470000000003,0
00:00.4,-0.002849579,-0.009578705,0.00279808,0
00:00.4,-0.002843857,-0.009572983,0.002775192,0
00:00.4,-0.002849579,-0.009561539,0.002775192,0
00:00.4,-0.002843857,-0.009555817,0.002780914,0
00:00.4,-0.002861023,-0.009561539,0.0028152470000000003,0
00:00.4,-0.0028553009999999998,-0.009567261,0.002786636,0
00:00.4,-0.0028553009999999998,-0.009572983,0.002792358,0
00:00.4,-0.002843857,-0.009572983,0.002786636,0
00:00.4,-0.0028324129999999998,-0.009561539,0.002780914,0
00:00.4,-0.002861023,-0.009567261,0.002758026,0
00:00.4,-0.0028553009999999998,-0.009567261,0.00276947,0
00:00.5,-0.0028324129999999998,-0.009567261,0.00279808,0
00:00.5,-0.002843857,-0.009572983,0.0027294159999999997,0
00:00.5,-0.002878189,-0.009567261,0.0026893620000000003,0
00:00.5,-0.002866745,-0.009567261,0.002792358,0
00:00.5,-0.0028553009999999998,-0.009567261,0.0028152470000000003,0
00:00.5,-0.002849579,-0.009567261,0.002786636,0
00:00.5,-0.002866745,-0.009567261,0.002809525,0
00:00.5,-0.002843857,-0.009567261,0.0028209690000000004,0
00:00.5,-0.002861023,-0.009572983,0.002809525,0
00:00.5,-0.002866745,-0.009572983,0.00279808,0
00:00.5,-0.002861023,-0.009561539,0.002775192,0
00:00.5,-0.0028553009999999998,-0.009572983,0.002775192,0
00:00.5,-0.0028553009999999998,-0.009567261,0.002780914,0
00:00.5,-0.002838135,-0.009544373,0.002792358,0
00:00.5,-0.002849579,-0.009561539,0.00279808,0
00:00.5,-0.002861023,-0.009561539,0.002792358,0
00:00.5,-0.0028553009999999998,-0.009561539,0.002786636,0
00:00.5,-0.002849579,-0.009561539,0.002775192,0
00:00.5,-0.002838135,-0.009561539,0.002786636,0
00:00.5,-0.002861023,-0.009567261,0.002780914,0
00:00.5,-0.002843857,-0.009572983,0.002763748,0
00:00.5,-0.002878189,-0.009578705,0.002758026,0
00:00.5,-0.002878189,-0.009572983,0.002786636,0
00:00.5,-0.002861023,-0.009567261,0.002792358,0
00:00.5,-0.0028209690000000004,-0.009555817,0.002758026,0
00:00.6,-0.002872467,-0.009555817,0.002746582,0
00:00.6,-0.002861023,-0.009555817,0.002780914,0
00:00.6,-0.0028266909999999997,-0.009572983,0.002780914,0
00:00.6,-0.002878189,-0.009578705,0.002792358,0
00:00.6,-0.002861023,-0.009567261,0.002792358,0
00:00.6,-0.002861023,-0.009567261,0.00276947,0
00:00.6,-0.002861023,-0.009572983,0.00276947,0
00:00.6,-0.002866745,-0.009572983,0.00279808,0
00:00.6,-0.002861023,-0.009567261,0.00279808,0
00:00.6,-0.0028553009999999998,-0.009572983,0.002752304,0
00:00.6,-0.0028553009999999998,-0.009561539,0.002775192,0
00:00.6,-0.002849579,-0.009561539,0.002803802,0
00:00.6,-0.002866745,-0.009567261,0.002803802,0
00:00.6,-0.002872467,-0.009567261,0.002792358,0
00:00.6,-0.002843857,-0.009572983,0.002780914,0
00:00.6,-0.002872467,-0.009561539,0.002780914,0
00:00.6,-0.0028553009999999998,-0.009567261,0.002780914,0
00:00.6,-0.002866745,-0.009567261,0.00276947,0
00:00.6,-0.002861023,-0.009567261,0.00276947,0
00:00.6,-0.0028266909999999997,-0.009578705,0.002792358,0
00:00.6,-0.002878189,-0.009572983,0.002780914,0
00:00.6,-0.002872467,-0.009561539,0.002780914,0
00:00.6,-0.002849579,-0.009550095,0.002758026,0
00:00.6,-0.0028324129999999998,-0.009550095,0.002763748,0
00:00.6,-0.002883911,-0.009572983,0.002792358,0
00:00.7,-0.002889633,-0.009578705,0.002786636,0
00:00.7,-0.002849579,-0.009567261,0.00276947,0
00:00.7,-0.002861023,-0.009561539,0.002717972,0
00:00.7,-0.002866745,-0.009578705,0.002758026,0
00:00.7,-0.002838135,-0.009567261,0.002763748,0
00:00.7,-0.0028553009999999998,-0.009578705,0.002780914,0
00:00.7,-0.002878189,-0.009578705,0.0028152470000000003,0
00:00.7,-0.002878189,-0.009572983,0.00279808,0
00:00.7,-0.002872467,-0.009572983,0.002780914,0
00:00.7,-0.002878189,-0.009567261,0.00276947,0
00:00.7,-0.002866745,-0.009567261,0.002763748,0
00:00.7,-0.002866745,-0.009572983,0.002775192,0
00:00.7,-0.002866745,-0.009578705,0.002792358,0
00:00.7,-0.002866745,-0.009584427,0.002786636,0
00:00.7,-0.002861023,-0.009578705,0.002780914,0
00:00.7,-0.002861023,-0.009561539,0.002763748,0
00:00.7,-0.002861023,-0.009561539,0.00276947,0
00:00.7,-0.002861023,-0.009567261,0.002780914,0
00:00.7,-0.002866745,-0.009572983,0.00276947,0
00:00.7,-0.002866745,-0.009561539,0.00276947,0
00:00.7,-0.002861023,-0.009567261,0.002763748,0
00:00.7,-0.002861023,-0.009567261,0.00276947,0
00:00.7,-0.002866745,-0.009572983,0.002775192,0
00:00.7,-0.002866745,-0.009561539,0.002780914,0
00:00.7,-0.002866745,-0.009567261,0.00276947,0
00:00.8,-0.002843857,-0.009561539,0.00276947,0
00:00.8,-0.0028209690000000004,-0.009567261,0.002746582,0
00:00.8,-0.0028266909999999997,-0.009567261,0.002655029,0
00:00.8,-0.002849579,-0.009567261,0.0027008059999999996,0
00:00.8,-0.002923965,-0.009584427,0.002838135,0
00:00.8,-0.002895355,-0.009584427,0.0028209690000000004,0
00:00.8,-0.002883911,-0.009584427,0.002786636,0
00:00.8,-0.002866745,-0.009578705,0.00274086,0
00:00.8,-0.002872467,-0.009572983,0.0027294159999999997,0
00:00.8,-0.002866745,-0.009572983,0.002786636,0
00:00.8,-0.002866745,-0.009590149000000001,0.002803802,0
00:00.8,-0.002866745,-0.009578705,0.002780914,0
00:00.8,-0.002872467,-0.009584427,0.002786636,0
00:00.8,-0.002866745,-0.009561539,0.002786636,0
00:00.8,-0.002866745,-0.009561539,0.002775192,0
00:00.8,-0.002866745,-0.009584427,0.00276947,0
00:00.8,-0.002872467,-0.009584427,0.002775192,0
00:00.8,-0.002861023,-0.009567261,0.002775192,0
00:00.8,-0.002861023,-0.009561539,0.002775192,0
00:00.8,-0.002878189,-0.009561539,0.00276947,0
00:00.8,-0.002872467,-0.009555817,0.002752304,0
00:00.8,-0.0028266909999999997,-0.009555817,0.00271225,0
00:00.8,-0.002872467,-0.009590149000000001,0.0027294159999999997,0
00:00.8,-0.002889633,-0.009590149000000001,0.002809525,0
00:00.8,-0.002883911,-0.009584427,0.002803802,0
00:00.9,-0.002843857,-0.009572983,0.002752304,0
00:00.9,-0.002861023,-0.009561539,0.00271225,0
00:00.9,-0.002889633,-0.009578705,0.002775192,0
00:00.9,-0.002878189,-0.009578705,0.002803802,0
00:00.9,-0.002883911,-0.009578705,0.00279808,0
00:00.9,-0.002866745,-0.009584427,0.002758026,0
00:00.9,-0.0028553009999999998,-0.009584427,0.0027294159999999997,0
00:00.9,-0.002878189,-0.009572983,0.00279808,0
00:00.9,-0.002895355,-0.009567261,0.002792358,0
00:00.9,-0.002883911,-0.009567261,0.00276947,0
00:00.9,-0.002878189,-0.009567261,0.00276947,0
00:00.9,-0.002872467,-0.009567261,0.002763748,0
00:00.9,-0.002883911,-0.009584427,0.002746582,0
00:00.9,-0.002849579,-0.009584427,0.002717972,0
00:00.9,-0.002872467,-0.009572983,0.002763748,0
00:00.9,-0.002872467,-0.009567261,0.002758026,0
00:00.9,-0.002883911,-0.009572983,0.002746582,0
00:00.9,-0.0028553009999999998,-0.009572983,0.002746582,0
00:00.9,-0.002866745,-0.009572983,0.002786636,0
00:00.9,-0.002895355,-0.009572983,0.002780914,0
00:00.9,-0.002872467,-0.009572983,0.002752304,0
00:00.9,-0.002872467,-0.009578705,0.002752304,0
00:00.9,-0.002866745,-0.009578705,0.00274086,0
00:00.9,-0.002872467,-0.009567261,0.00271225,0
00:00.9,-0.002895355,-0.009578705,0.002758026,0
00:01.0,-0.002889633,-0.009572983,0.002763748,0
00:01.0,-0.002872467,-0.009572983,0.00276947,0
00:01.0,-0.002878189,-0.009572983,0.002775192,0
00:01.0,-0.002861023,-0.009572983,0.002763748,0
00:01.0,-0.002849579,-0.009578705,0.00271225,0
00:01.0,-0.002895355,-0.009567261,0.002723694,0
00:01.0,-0.002878189,-0.009578705,0.0027008059999999996,0
00:01.0,-0.002883911,-0.009572983,0.002717972,0
00:01.0,-0.002889633,-0.009561539,0.00279808,0
00:01.0,-0.002883911,-0.009572983,0.00276947,0
00:01.0,-0.002883911,-0.009584427,0.002775192,0
00:01.0,-0.0028553009999999998,-0.009578705,0.002758026,0
0:00:01,-0.002849579,-0.009567261,0.002735138,0
00:01.0,-0.002895355,-0.009578705,0.002746582,0
00:01.0,-0.002889633,-0.009584427,0.00274086,0
00:01.0,-0.002883911,-0.009578705,0.00276947,0
00:01.0,-0.002883911,-0.009584427,0.00276947,0
00:01.0,-0.002878189,-0.009578705,0.002758026,0
00:01.0,-0.002866745,-0.009572983,0.0027065279999999997,0
00:01.0,-0.002866745,-0.009572983,0.002717972,0
00:01.0,-0.002878189,-0.009567261,0.002763748,0
00:01.0,-0.002901077,-0.009578705,0.002763748,0
00:01.0,-0.002895355,-0.009590149000000001,0.00274086,0
00:01.0,-0.002878189,-0.009590149000000001,0.00271225,0
00:01.0,-0.002889633,-0.009555817,0.00271225,0
00:01.1,-0.002883911,-0.009561539,0.002717972,0
00:01.1,-0.002861023,-0.009567261,0.002746582,0
00:01.1,-0.002878189,-0.009584427,0.002746582,0
00:01.1,-0.002889633,-0.009607315,0.002758026,0
00:01.1,-0.002878189,-0.009584427,0.0027294159999999997,0
00:01.1,-0.002872467,-0.009572983,0.00274086,0
00:01.1,-0.002872467,-0.009584427,0.00274086,0
00:01.1,-0.0028553009999999998,-0.009555817,0.002746582,0
00:01.1,-0.002889633,-0.009572983,0.002752304,0
00:01.1,-0.002883911,-0.009572983,0.002717972,0
00:01.1,-0.002883911,-0.009561539,0.0027008059999999996,0
00:01.1,-0.002866745,-0.009572983,0.00268364,0
00:01.1,-0.0028553009999999998,-0.009584427,0.0026893620000000003,0
00:01.1,-0.0029067990000000003,-0.009590149000000001,0.002752304,0
00:01.1,-0.0029067990000000003,-0.009567261,0.002758026,0
00:01.1,-0.002861023,-0.009572983,0.002780914,0
00:01.1,-0.002861023,-0.009578705,0.002723694,0
00:01.1,-0.002895355,-0.009584427,0.002717972,0
00:01.1,-0.002901077,-0.009584427,0.0027008059999999996,0
00:01.1,-0.002883911,-0.009590149000000001,0.0026950840000000004,0
00:01.1,-0.002872467,-0.009584427,0.0027294159999999997,0
00:01.1,-0.002866745,-0.009595871,0.0027294159999999997,0
00:01.1,-0.002883911,-0.009567261,0.002717972,0
00:01.1,-0.002878189,-0.009561539,0.002758026,0
00:01.1,-0.002878189,-0.009561539,0.002746582,0
00:01.2,-0.002861023,-0.009578705,0.0027294159999999997,0
00:01.2,-0.0028152470000000003,-0.009578705,0.0027008059999999996,0
00:01.2,-0.002912521,-0.009601593,0.0026893620000000003,0
00:01.2,-0.0029067990000000003,-0.009584427,0.0027294159999999997,0
00:01.2,-0.002883911,-0.009578705,0.0027294159999999997,0
00:01.2,-0.002861023,-0.009572983,0.002626419,0
00:01.2,-0.002895355,-0.009607315,0.00268364,0
00:01.2,-0.002878189,-0.009601593,0.0027008059999999996,0
00:01.2,-0.002883911,-0.009555817,0.00276947,0
00:01.2,-0.002901077,-0.009572983,0.002746582,0
00:01.2,-0.002878189,-0.009578705,0.0027294159999999997,0
00:01.2,-0.002878189,-0.009590149000000001,0.0027294159999999997,0
00:01.2,-0.002866745,-0.009561539,0.002723694,0
00:01.2,-0.002861023,-0.009584427,0.0026950840000000004,0
00:01.2,-0.002895355,-0.009584427,0.002723694,0
00:01.2,-0.002878189,-0.009572983,0.002717972,0
00:01.2,-0.002889633,-0.009572983,0.00268364,0
00:01.2,-0.002872467,-0.009584427,0.0026950840000000004,0
00:01.2,-0.0028152470000000003,-0.009572983,0.00268364,0
00:01.2,-0.002883911,-0.009590149000000001,0.0026893620000000003,0
00:01.2,-0.002918243,-0.009590149000000001,0.002758026,0
00:01.2,-0.002861023,-0.009578705,0.0026893620000000003,0
00:01.2,-0.002849579,-0.009578705,0.0026092529999999997,0
00:01.2,-0.002849579,-0.009578705,0.002717972,0
00:01.2,-0.002878189,-0.009584427,0.002746582,0
00:01.3,-0.002901077,-0.009590149000000001,0.002735138,0
00:01.3,-0.002895355,-0.009567261,0.002752304,0
00:01.3,-0.002901077,-0.009584427,0.0027294159999999997,0
00:01.3,-0.002889633,-0.009584427,0.002666473,0
00:01.3,-0.002843857,-0.009584427,0.002637863,0
00:01.3,-0.002878189,-0.009590149000000001,0.002735138,0
00:01.3,-0.0029067990000000003,-0.009578705,0.00274086,0
00:01.3,-0.002889633,-0.009595871,0.002717972,0
00:01.3,-0.002866745,-0.009595871,0.002677917,0
00:01.3,-0.002861023,-0.009601593,0.00268364,0
00:01.3,-0.002883911,-0.009567261,0.0027294159999999997,0
00:01.3,-0.002878189,-0.009572983,0.0027008059999999996,0
00:01.3,-0.002866745,-0.009578705,0.002655029,0
00:01.3,-0.002878189,-0.009572983,0.002586365,0
00:01.3,-0.002889633,-0.009572983,0.0026092529999999997,0
00:01.3,-0.002866745,-0.009601593,0.00276947,0
00:01.3,-0.002889633,-0.009595871,0.00279808,0
00:01.3,-0.002872467,-0.009578705,0.0027065279999999997,0
00:01.3,-0.002872467,-0.009584427,0.00268364,0
00:01.3,-0.002901077,-0.009578705,0.00271225,0
00:01.3,-0.0028553009999999998,-0.009578705,0.002672195,0
00:01.3,-0.002889633,-0.009590149000000001,0.00271225,0
00:01.3,-0.002866745,-0.009584427,0.0027065279999999997,0
00:01.3,-0.002849579,-0.009601593,0.00268364,0
00:01.3,-0.002883911,-0.009607315,0.00268364,0
00:01.4,-0.0029067990000000003,-0.009590149000000001,0.002677917,0
00:01.4,-0.002866745,-0.009590149000000001,0.0026321409999999997,0
00:01.4,-0.0028152470000000003,-0.009572983,0.002660751,0
00:01.4,-0.0028209690000000004,-0.009561539,0.002580643,0
00:01.4,-0.002923965,-0.009584427,0.002717972,0
00:01.4,-0.002912521,-0.009595871,0.002786636,0
00:01.4,-0.002889633,-0.009624480999999999,0.002786636,0
00:01.4,-0.0028553009999999998,-0.009595871,0.002717972,0
00:01.4,-0.002872467,-0.009595871,0.00271225,0
00:01.4,-0.0029296879999999997,-0.009601593,0.00271225,0
00:01.4,-0.002889633,-0.009607315,0.00268364,0
00:01.4,-0.002861023,-0.009572983,0.00271225,0
00:01.4,-0.002861023,-0.009561539,0.002723694,0
00:01.4,-0.002838135,-0.009578705,0.002666473,0
00:01.4,-0.0028324129999999998,-0.009584427,0.002643585,0
00:01.4,-0.002941132,-0.009595871,0.00271225,0
00:01.4,-0.002923965,-0.009584427,0.0027294159999999997,0
00:01.4,-0.002889633,-0.009584427,0.0027065279999999997,0
00:01.4,-0.0028553009999999998,-0.009584427,0.002626419,0
00:01.4,-0.002878189,-0.009584427,0.0026893620000000003,0
00:01.4,-0.002883911,-0.009584427,0.0027294159999999997,0
00:01.4,-0.002872467,-0.009584427,0.00274086,0
00:01.4,-0.0028266909999999997,-0.009590149000000001,0.002643585,0
00:01.4,-0.002838135,-0.009595871,0.0027065279999999997,0
00:01.4,-0.002883911,-0.009607315,0.00271225,0
00:01.5,-0.002901077,-0.009601593,0.002723694,0
00:01.5,-0.002918243,-0.009590149000000001,0.0027294159999999997,0
00:01.5,-0.002843857,-0.009572983,0.002735138,0
00:01.5,-0.0028209690000000004,-0.009584427,0.0026893620000000003,0
00:01.5,-0.002923965,-0.009601593,0.0026950840000000004,0
00:01.5,-0.002901077,-0.009595871,0.002717972,0
00:01.5,-0.002883911,-0.009584427,0.0026950840000000004,0
00:01.5,-0.002889633,-0.009607315,0.002723694,0
00:01.5,-0.002889633,-0.009618759000000001,0.002672195,0
00:01.5,-0.002895355,-0.009595871,0.002672195,0
00:01.5,-0.002866745,-0.009590149000000001,0.0027065279999999997,0
00:01.5,-0.002878189,-0.009601593,0.0027294159999999997,0
00:01.5,-0.002872467,-0.009567261,0.002752304,0
00:01.5,-0.002883911,-0.009555817,0.002717972,0
00:01.5,-0.002872467,-0.009561539,0.002643585,0
00:01.5,-0.002878189,-0.009584427,0.002666473,0
00:01.5,-0.002878189,-0.009595871,0.0027294159999999997,0
00:01.5,-0.002883911,-0.009584427,0.002717972,0
00:01.5,-0.002878189,-0.009590149000000001,0.0026893620000000003,0
00:01.5,-0.002883911,-0.009595871,0.0027065279999999997,0
00:01.5,-0.002866745,-0.009590149000000001,0.002717972,0
00:01.5,-0.0028553009999999998,-0.009595871,0.002717972,0
00:01.5,-0.002901077,-0.009590149000000001,0.002735138,0
00:01.5,-0.002878189,-0.009590149000000001,0.0027008059999999996,0
00:01.5,-0.002861023,-0.009590149000000001,0.0026950840000000004,0
00:01.6,-0.002866745,-0.009613037,0.002649307,0
00:01.6,-0.002883911,-0.009595871,0.002655029,0
00:01.6,-0.002883911,-0.009584427,0.00276947,0
00:01.6,-0.002889633,-0.009578705,0.002758026,0
00:01.6,-0.002872467,-0.009572983,0.002723694,0
00:01.6,-0.0028324129999999998,-0.009578705,0.002666473,0
00:01.6,-0.002861023,-0.009590149000000001,0.0025920870000000003,0
00:01.6,-0.002912521,-0.009590149000000001,0.002677917,0
00:01.6,-0.002912521,-0.009607315,0.002758026,0
00:01.6,-0.002878189,-0.009601593,0.002752304,0
00:01.6,-0.002883911,-0.009601593,0.00274086,0
00:01.6,-0.002861023,-0.009584427,0.0027065279999999997,0
00:01.6,-0.002866745,-0.009578705,0.00268364,0
00:01.6,-0.002895355,-0.009590149000000001,0.0026893620000000003,0
00:01.6,-0.002883911,-0.009590149000000001,0.002717972,0
00:01.6,-0.002889633,-0.009578705,0.00268364,0
00:01.6,-0.002901077,-0.009578705,0.0026950840000000004,0
00:01.6,-0.002889633,-0.009590149000000001,0.002775192,0
00:01.6,-0.002883911,-0.009595871,0.002723694,0
00:01.6,-0.002878189,-0.009607315,0.002717972,0
00:01.6,-0.002878189,-0.009601593,0.0027008059999999996,0
00:01.6,-0.002883911,-0.009584427,0.0026950840000000004,0
00:01.6,-0.002883911,-0.009595871,0.002666473,0
00:01.6,-0.002889633,-0.009595871,0.0027294159999999997,0
00:01.6,-0.0029067990000000003,-0.009601593,0.002746582,0
00:01.7,-0.002895355,-0.009601593,0.00268364,0
00:01.7,-0.002861023,-0.009595871,0.002637863,0
00:01.7,-0.0028152470000000003,-0.009624480999999999,0.0026893620000000003,0
00:01.7,-0.002901077,-0.009624480999999999,0.002746582,0
00:01.7,-0.002918243,-0.009561539,0.00271225,0
00:01.7,-0.002901077,-0.009584427,0.002677917,0
00:01.7,-0.002912521,-0.009601593,0.002735138,0
00:01.7,-0.002878189,-0.009590149000000001,0.00274086,0
00:01.7,-0.0028209690000000004,-0.009607315,0.002649307,0
00:01.7,-0.002883911,-0.009601593,0.00268364,0
00:01.7,-0.0029296879999999997,-0.009584427,0.002752304,0
00:01.7,-0.002918243,-0.009584427,0.002763748,0
00:01.7,-0.002895355,-0.009595871,0.002746582,0
00:01.7,-0.002901077,-0.009601593,0.0027065279999999997,0
00:01.7,-0.002912521,-0.009601593,0.002717972,0
00:01.7,-0.002861023,-0.009590149000000001,0.002677917,0
00:01.7,-0.0028553009999999998,-0.009607315,0.00271225,0
00:01.7,-0.0029067990000000003,-0.009601593,0.0027008059999999996,0
00:01.7,-0.002878189,-0.009578705,0.002723694,0
00:01.7,-0.002883911,-0.009578705,0.0027008059999999996,0
00:01.7,-0.002901077,-0.009595871,0.0026893620000000003,0
00:01.7,-0.002901077,-0.009613037,0.0027065279999999997,0
00:01.7,-0.002901077,-0.009601593,0.002723694,0
00:01.7,-0.002901077,-0.009584427,0.00274086,0
00:01.7,-0.002883911,-0.009595871,0.002717972,0
00:01.8,-0.002872467,-0.009572983,0.002637863,0
00:01.8,-0.002861023,-0.009572983,0.0027065279999999997,0
00:01.8,-0.0029296879999999997,-0.009624480999999999,0.00274086,0
00:01.8,-0.002872467,-0.009595871,0.002763748,0
00:01.8,-0.002895355,-0.009601593,0.002723694,0
00:01.8,-0.002912521,-0.009578705,0.002723694,0
00:01.8,-0.002872467,-0.009584427,0.002717972,0
00:01.8,-0.002901077,-0.009595871,0.0027008059999999996,0
00:01.8,-0.002872467,-0.009590149000000001,0.002723694,0
00:01.8,-0.0029067990000000003,-0.009607315,0.0026950840000000004,0
00:01.8,-0.002878189,-0.009601593,0.0026950840000000004,0
00:01.8,-0.002901077,-0.009590149000000001,0.002758026,0
00:01.8,-0.002889633,-0.009584427,0.002752304,0
00:01.8,-0.002889633,-0.009601593,0.0026893620000000003,0
00:01.8,-0.002912521,-0.009595871,0.002717972,0
00:01.8,-0.002895355,-0.009584427,0.00268364,0
00:01.8,-0.002889633,-0.009590149000000001,0.002626419,0
00:01.8,-0.002895355,-0.009590149000000001,0.00276947,0
00:01.8,-0.002912521,-0.009607315,0.002752304,0
00:01.8,-0.002878189,-0.009590149000000001,0.00271225,0
00:01.8,-0.0028266909999999997,-0.009601593,0.0026950840000000004,0
00:01.8,-0.002866745,-0.009572983,0.002677917,0
00:01.8,-0.002923965,-0.009595871,0.00268364,0
00:01.8,-0.0029067990000000003,-0.009590149000000001,0.002735138,0
00:01.8,-0.002878189,-0.009584427,0.002677917,0
00:01.9,-0.002901077,-0.009601593,0.002758026,0
00:01.9,-0.002912521,-0.009595871,0.00276947,0
00:01.9,-0.002912521,-0.009601593,0.00274086,0
00:01.9,-0.002912521,-0.009613037,0.00271225,0
00:01.9,-0.002883911,-0.009618759000000001,0.00271225,0
00:01.9,-0.002866745,-0.009613037,0.002677917,0
00:01.9,-0.002889633,-0.009584427,0.002672195,0
00:01.9,-0.002861023,-0.009567261,0.00268364,0
00:01.9,-0.002895355,-0.009607315,0.002752304,0
00:01.9,-0.002923965,-0.009613037,0.002746582,0
00:01.9,-0.0029296879999999997,-0.009601593,0.002735138,0
00:01.9,-0.002912521,-0.009595871,0.0027294159999999997,0
00:01.9,-0.0029067990000000003,-0.009595871,0.002723694,0
00:01.9,-0.002889633,-0.009590149000000001,0.0026893620000000003,0
00:01.9,-0.002872467,-0.009601593,0.002660751,0
00:01.9,-0.002895355,-0.009607315,0.002586365,0
00:01.9,-0.002889633,-0.009578705,0.002660751,0
00:01.9,-0.002889633,-0.009595871,0.002803802,0
00:01.9,-0.0029067990000000003,-0.009590149000000001,0.00276947,0
00:01.9,-0.002889633,-0.009578705,0.002660751,0
00:01.9,-0.0028324129999999998,-0.009601593,0.002666473,0
00:01.9,-0.002895355,-0.009601593,0.002758026,0
00:01.9,-0.002941132,-0.009595871,0.00271225,0
00:01.9,-0.0029296879999999997,-0.009607315,0.0027294159999999997,0
00:01.9,-0.002912521,-0.009601593,0.002723694,0
00:02.0,-0.0029067990000000003,-0.009595871,0.002723694,0
00:02.0,-0.0029067990000000003,-0.009595871,0.002717972,0
00:02.0,-0.002872467,-0.009613037,0.0026321409999999997,0
00:02.0,-0.002883911,-0.009607315,0.002717972,0
00:02.0,-0.002901077,-0.009595871,0.002758026,0
00:02.0,-0.002895355,-0.009595871,0.002723694,0
00:02.0,-0.0028553009999999998,-0.009601593,0.002717972,0
00:02.0,-0.002883911,-0.009590149000000001,0.0026950840000000004,0
00:02.0,-0.00293541,-0.009595871,0.002666473,0
00:02.0,-0.002895355,-0.009607315,0.002626419,0
00:02.0,-0.002866745,-0.009595871,0.002620697,0
00:02.0,-0.002901077,-0.009578705,0.002717972,0
0:00:02,-0.0029067990000000003,-0.009584427,0.002792358,0
00:02.0,-0.002918243,-0.009590149000000001,0.002746582,0
00:02.0,-0.002918243,-0.009601593,0.0027008059999999996,0
00:02.0,-0.0029067990000000003,-0.009601593,0.00268364,0
00:02.0,-0.002889633,-0.009601593,0.0027294159999999997,0
00:02.0,-0.002889633,-0.009601593,0.0026893620000000003,0
00:02.0,-0.002883911,-0.009613037,0.002723694,0
00:02.0,-0.0029067990000000003,-0.009607315,0.0027065279999999997,0
00:02.0,-0.002878189,-0.009601593,0.002660751,0
00:02.0,-0.002843857,-0.009595871,0.0026321409999999997,0
00:02.0,-0.002889633,-0.009584427,0.002672195,0
00:02.0,-0.00296402,-0.009590149000000001,0.002775192,0
00:02.0,-0.002941132,-0.009595871,0.002735138,0
00:02.1,-0.002918243,-0.009595871,0.002717972,0
00:02.1,-0.002912521,-0.009607315,0.0027065279999999997,0
00:02.1,-0.002895355,-0.009607315,0.002672195,0
00:02.1,-0.002872467,-0.009607315,0.002477646,0
00:02.1,-0.002883911,-0.009584427,0.002672195,0
00:02.1,-0.0029067990000000003,-0.009590149000000001,0.002843857,0
00:02.1,-0.002912521,-0.009595871,0.00276947,0
00:02.1,-0.002918243,-0.009601593,0.0027294159999999997,0
00:02.1,-0.002895355,-0.009624480999999999,0.0027065279999999997,0
00:02.1,-0.0028553009999999998,-0.009618759000000001,0.00268364,0
00:02.1,-0.002872467,-0.009567261,0.0026950840000000004,0
00:02.1,-0.00293541,-0.009595871,0.0027008059999999996,0
00:02.1,-0.002923965,-0.009595871,0.002717972,0
00:02.1,-0.002912521,-0.009595871,0.0027008059999999996,0
00:02.1,-0.002912521,-0.009595871,0.0026893620000000003,0
00:02.1,-0.002901077,-0.009601593,0.002649307,0
00:02.1,-0.002838135,-0.009624480999999999,0.002477646,0
00:02.1,-0.002895355,-0.009590149000000001,0.002620697,0
00:02.1,-0.0029296879999999997,-0.009590149000000001,0.002843857,0
00:02.1,-0.002923965,-0.009595871,0.002758026,0
00:02.1,-0.002918243,-0.009595871,0.002717972,0
00:02.1,-0.002889633,-0.009601593,0.002717972,0
00:02.1,-0.002912521,-0.009630203,0.00268364,0
00:02.1,-0.0029067990000000003,-0.009635925,0.002677917,0
00:02.1,-0.002843857,-0.009590149000000001,0.002620697,0
00:02.2,-0.002878189,-0.009590149000000001,0.002586365,0
00:02.2,-0.002912521,-0.009595871,0.00276947,0
00:02.2,-0.0029067990000000003,-0.009618759000000001,0.00274086,0
00:02.2,-0.0029296879999999997,-0.009607315,0.002723694,0
00:02.2,-0.002912521,-0.009595871,0.0026950840000000004,0
00:02.2,-0.002878189,-0.009595871,0.002643585,0
00:02.2,-0.0029067990000000003,-0.009613037,0.0026893620000000003,0
00:02.2,-0.0029296879999999997,-0.009607315,0.0027294159999999997,0
00:02.2,-0.002901077,-0.009595871,0.002677917,0
00:02.2,-0.0029067990000000003,-0.009601593,0.0026950840000000004,0
00:02.2,-0.002912521,-0.009613037,0.00271225,0
00:02.2,-0.002901077,-0.009607315,0.0026893620000000003,0
00:02.2,-0.002889633,-0.009613037,0.0026092529999999997,0
00:02.2,-0.002918243,-0.009613037,0.002614975,0
00:02.2,-0.002889633,-0.009601593,0.002763748,0
00:02.2,-0.002878189,-0.009618759000000001,0.002723694,0
00:02.2,-0.002895355,-0.009618759000000001,0.002666473,0
00:02.2,-0.002895355,-0.009595871,0.002672195,0
00:02.2,-0.002912521,-0.009595871,0.002672195,0
00:02.2,-0.002849579,-0.009601593,0.0027008059999999996,0
00:02.2,-0.002838135,-0.009601593,0.002643585,0
00:02.2,-0.002946854,-0.009607315,0.002597809,0
00:02.2,-0.00293541,-0.009613037,0.002655029,0
00:02.2,-0.002941132,-0.009641647,0.002746582,0
00:02.2,-0.002923965,-0.009601593,0.002746582,0
00:02.3,-0.002912521,-0.009595871,0.00271225,0
00:02.3,-0.002912521,-0.009595871,0.002672195,0
00:02.3,-0.002901077,-0.009590149000000001,0.002655029,0
00:02.3,-0.002901077,-0.009601593,0.002672195,0
00:02.3,-0.002901077,-0.009630203,0.0027008059999999996,0
00:02.3,-0.002889633,-0.009618759000000001,0.0026893620000000003,0
00:02.3,-0.002861023,-0.009601593,0.0027008059999999996,0
00:02.3,-0.002895355,-0.009590149000000001,0.0026950840000000004,0
00:02.3,-0.002872467,-0.009590149000000001,0.002666473,0
00:02.3,-0.002895355,-0.009641647,0.002649307,0
00:02.3,-0.002946854,-0.009635925,0.0026092529999999997,0
00:02.3,-0.002901077,-0.009595871,0.0026950840000000004,0
00:02.3,-0.002883911,-0.009595871,0.002746582,0
00:02.3,-0.002912521,-0.009595871,0.002677917,0
00:02.3,-0.002889633,-0.009601593,0.002649307,0
00:02.3,-0.0029067990000000003,-0.009613037,0.002677917,0
00:02.3,-0.002912521,-0.009624480999999999,0.00271225,0
00:02.3,-0.00293541,-0.009641647,0.0027065279999999997,0
00:02.3,-0.002918243,-0.009613037,0.0026893620000000003,0
00:02.3,-0.002878189,-0.009584427,0.002614975,0
00:02.3,-0.002895355,-0.009590149000000001,0.0026092529999999997,0
00:02.3,-0.002895355,-0.009590149000000001,0.0027294159999999997,0
00:02.3,-0.002901077,-0.009613037,0.002723694,0
00:02.3,-0.002918243,-0.009618759000000001,0.002666473,0
00:02.3,-0.0028553009999999998,-0.009595871,0.002603531,0
00:02.4,-0.002889633,-0.009613037,0.002557755,0
00:02.4,-0.0029296879999999997,-0.009613037,0.002758026,0
00:02.4,-0.0029296879999999997,-0.009601593,0.00274086,0
00:02.4,-0.002918243,-0.009607315,0.002717972,0
00:02.4,-0.0029067990000000003,-0.009613037,0.0026893620000000003,0
00:02.4,-0.0028553009999999998,-0.009613037,0.002649307,0
00:02.4,-0.002878189,-0.009618759000000001,0.002603531,0
00:02.4,-0.00293541,-0.009601593,0.002655029,0
00:02.4,-0.0029067990000000003,-0.009613037,0.002735138,0
00:02.4,-0.002912521,-0.009624480999999999,0.00268364,0
00:02.4,-0.002912521,-0.009624480999999999,0.0026950840000000004,0
00:02.4,-0.002912521,-0.009618759000000001,0.0027065279999999997,0
00:02.4,-0.002901077,-0.009601593,0.00268364,0
00:02.4,-0.002895355,-0.009601593,0.002620697,0
00:02.4,-0.002895355,-0.009613037,0.002655029,0
00:02.4,-0.002872467,-0.009607315,0.002637863,0
00:02.4,-0.002889633,-0.009601593,0.002643585,0
00:02.4,-0.002946854,-0.009613037,0.002660751,0
00:02.4,-0.002912521,-0.009590149000000001,0.002649307,0
00:02.4,-0.002878189,-0.009601593,0.002735138,0
00:02.4,-0.002895355,-0.009607315,0.00268364,0
00:02.4,-0.002895355,-0.009613037,0.0026092529999999997,0
00:02.4,-0.002883911,-0.009624480999999999,0.002649307,0
00:02.4,-0.002918243,-0.009601593,0.00268364,0
00:02.4,-0.0029067990000000003,-0.009624480999999999,0.002666473,0
00:02.5,-0.00293541,-0.009618759000000001,0.00271225,0
00:02.5,-0.002923965,-0.009613037,0.0027294159999999997,0
00:02.5,-0.002918243,-0.009601593,0.0026893620000000003,0
00:02.5,-0.002912521,-0.009607315,0.002666473,0
00:02.5,-0.002895355,-0.009624480999999999,0.002614975,0
00:02.5,-0.002901077,-0.009618759000000001,0.002620697,0
00:02.5,-0.002895355,-0.009595871,0.00268364,0
00:02.5,-0.002918243,-0.009601593,0.0027065279999999997,0
00:02.5,-0.0029296879999999997,-0.009595871,0.0027065279999999997,0
00:02.5,-0.002923965,-0.009607315,0.002666473,0
00:02.5,-0.002889633,-0.009613037,0.002626419,0
00:02.5,-0.002901077,-0.009607315,0.002614975,0
00:02.5,-0.0029067990000000003,-0.009601593,0.0026893620000000003,0
00:02.5,-0.002889633,-0.009618759000000001,0.002677917,0
00:02.5,-0.002895355,-0.009618759000000001,0.0026893620000000003,0
00:02.5,-0.002912521,-0.009613037,0.002672195,0
00:02.5,-0.002866745,-0.009601593,0.002649307,0
00:02.5,-0.002878189,-0.009590149000000001,0.002626419,0
00:02.5,-0.002918243,-0.009618759000000001,0.0026321409999999997,0
00:02.5,-0.002878189,-0.009601593,0.002563477,0
00:02.5,-0.0029296879999999997,-0.009613037,0.002677917,0
00:02.5,-0.0029296879999999997,-0.009618759000000001,0.0026893620000000003,0
00:02.5,-0.00293541,-0.009630203,0.0026893620000000003,0
00:02.5,-0.002895355,-0.009590149000000001,0.002677917,0
00:02.5,-0.002883911,-0.009595871,0.002649307,0
00:02.6,-0.002866745,-0.009607315,0.0026893620000000003,0
00:02.6,-0.002912521,-0.009607315,0.002717972,0
00:02.6,-0.002941132,-0.009613037,0.0027008059999999996,0
00:02.6,-0.00293541,-0.009613037,0.00268364,0
00:02.6,-0.0029067990000000003,-0.009613037,0.0026321409999999997,0
00:02.6,-0.002872467,-0.009624480999999999,0.002569199,0
00:02.6,-0.002872467,-0.009601593,0.002563477,0
00:02.6,-0.002958298,-0.009618759000000001,0.002758026,0
00:02.6,-0.002918243,-0.009618759000000001,0.002677917,0
00:02.6,-0.002901077,-0.009595871,0.0026092529999999997,0
00:02.6,-0.002883911,-0.009601593,0.002672195,0
00:02.6,-0.002872467,-0.009595871,0.0026950840000000004,0
00:02.6,-0.00293541,-0.009618759000000001,0.00271225,0
00:02.6,-0.002912521,-0.009618759000000001,0.002637863,0
00:02.6,-0.002861023,-0.009590149000000001,0.0026092529999999997,0
00:02.6,-0.002923965,-0.009613037,0.002655029,0
00:02.6,-0.00293541,-0.009618759000000001,0.002649307,0
00:02.6,-0.002923965,-0.009624480999999999,0.0027008059999999996,0
00:02.6,-0.0029296879999999997,-0.009613037,0.002660751,0
00:02.6,-0.002889633,-0.009590149000000001,0.002643585,0
00:02.6,-0.002923965,-0.009630203,0.002666473,0
00:02.6,-0.0029296879999999997,-0.009624480999999999,0.002643585,0
00:02.6,-0.002861023,-0.009607315,0.002649307,0
00:02.6,-0.002849579,-0.009590149000000001,0.002620697,0
00:02.6,-0.002901077,-0.009572983,0.002597809,0
00:02.7,-0.002946854,-0.009601593,0.0027065279999999997,0
00:02.7,-0.00293541,-0.009618759000000001,0.002717972,0
00:02.7,-0.0029296879999999997,-0.009613037,0.002643585,0
00:02.7,-0.002901077,-0.009618759000000001,0.002534866,0
00:02.7,-0.0028553009999999998,-0.009595871,0.002586365,0
00:02.7,-0.002923965,-0.009601593,0.002752304,0
00:02.7,-0.002918243,-0.009618759000000001,0.002717972,0
00:02.7,-0.002883911,-0.009624480999999999,0.002660751,0
00:02.7,-0.002901077,-0.009595871,0.002620697,0
00:02.7,-0.002923965,-0.009590149000000001,0.002655029,0
00:02.7,-0.002918243,-0.009607315,0.002672195,0
00:02.7,-0.002901077,-0.009613037,0.002637863,0
00:02.7,-0.0029067990000000003,-0.009618759000000001,0.002580643,0
00:02.7,-0.002923965,-0.009618759000000001,0.002643585,0
00:02.7,-0.002918243,-0.009601593,0.00268364,0
00:02.7,-0.002901077,-0.009613037,0.002677917,0
00:02.7,-0.002861023,-0.009613037,0.002666473,0
00:02.7,-0.002923965,-0.009618759000000001,0.002677917,0
00:02.7,-0.00293541,-0.009601593,0.002672195,0
00:02.7,-0.002912521,-0.009601593,0.002655029,0
00:02.7,-0.002878189,-0.009635925,0.0025920870000000003,0
00:02.7,-0.002895355,-0.009607315,0.0026092529999999997,0
00:02.7,-0.0029296879999999997,-0.009595871,0.00271225,0
00:02.7,-0.0029296879999999997,-0.009613037,0.002666473,0
00:02.7,-0.002889633,-0.009613037,0.002620697,0
00:02.8,-0.002872467,-0.009624480999999999,0.002597809,0
00:02.8,-0.002912521,-0.009607315,0.002540588,0
00:02.8,-0.0029067990000000003,-0.009595871,0.002649307,0
00:02.8,-0.002923965,-0.009607315,0.002752304,0
00:02.8,-0.002923965,-0.009613037,0.0027065279999999997,0
00:02.8,-0.002883911,-0.009607315,0.002655029,0
00:02.8,-0.002912521,-0.009607315,0.0026321409999999997,0
00:02.8,-0.002918243,-0.009618759000000001,0.002677917,0
00:02.8,-0.0029067990000000003,-0.009618759000000001,0.002643585,0
00:02.8,-0.002923965,-0.009624480999999999,0.0026321409999999997,0
00:02.8,-0.002918243,-0.009624480999999999,0.002666473,0
00:02.8,-0.002872467,-0.009607315,0.002643585,0
00:02.8,-0.002889633,-0.009607315,0.0026321409999999997,0
00:02.8,-0.002918243,-0.009624480999999999,0.002620697,0
00:02.8,-0.002918243,-0.009607315,0.002643585,0
00:02.8,-0.002895355,-0.009595871,0.002660751,0
00:02.8,-0.002889633,-0.009607315,0.002552032,0
00:02.8,-0.002866745,-0.009613037,0.002557755,0
00:02.8,-0.002861023,-0.009624480999999999,0.002763748,0
00:02.8,-0.002969742,-0.009624480999999999,0.0027008059999999996,0
00:02.8,-0.002923965,-0.009624480999999999,0.002660751,0
00:02.8,-0.002918243,-0.009624480999999999,0.002649307,0
00:02.8,-0.002895355,-0.009618759000000001,0.0026321409999999997,0
00:02.8,-0.002901077,-0.009607315,0.0026321409999999997,0
00:02.8,-0.002883911,-0.009595871,0.002643585,0
00:02.9,-0.002901077,-0.009595871,0.002655029,0
00:02.9,-0.0029296879999999997,-0.009607315,0.00268364,0
00:02.9,-0.0029067990000000003,-0.009613037,0.002672195,0
00:02.9,-0.002923965,-0.009618759000000001,0.002620697,0
00:02.9,-0.002883911,-0.009607315,0.002620697,0
00:02.9,-0.002895355,-0.009618759000000001,0.002660751,0
00:02.9,-0.002895355,-0.009630203,0.002666473,0
00:02.9,-0.002941132,-0.009618759000000001,0.002666473,0
00:02.9,-0.002923965,-0.009607315,0.002597809,0
00:02.9,-0.002912521,-0.009630203,0.0026321409999999997,0
00:02.9,-0.002912521,-0.009630203,0.0026321409999999997,0
00:02.9,-0.002901077,-0.009613037,0.002603531,0
00:02.9,-0.002861023,-0.009607315,0.0026950840000000004,0
00:02.9,-0.002889633,-0.009607315,0.002649307,0
00:02.9,-0.00293541,-0.009613037,0.002597809,0
00:02.9,-0.002918243,-0.009613037,0.002666473,0
00:02.9,-0.002901077,-0.009607315,0.002643585,0
00:02.9,-0.002866745,-0.009607315,0.002586365,0
00:02.9,-0.002918243,-0.009618759000000001,0.002677917,0
00:02.9,-0.002901077,-0.009613037,0.00268364,0
00:02.9,-0.002872467,-0.009613037,0.002603531,0
00:02.9,-0.002889633,-0.009613037,0.0026092529999999997,0
00:02.9,-0.002958298,-0.009613037,0.0027008059999999996,0
00:02.9,-0.002946854,-0.009618759000000001,0.002666473,0
00:02.9,-0.002918243,-0.009618759000000001,0.002655029,0
00:03.0,-0.002923965,-0.009641647,0.002626419,0
00:03.0,-0.002918243,-0.009624480999999999,0.002614975,0
00:03.0,-0.002895355,-0.009595871,0.002574921,0
00:03.0,-0.002878189,-0.009590149000000001,0.002660751,0
00:03.0,-0.002923965,-0.009618759000000001,0.00268364,0
00:03.0,-0.002918243,-0.009618759000000001,0.002672195,0
00:03.0,-0.002923965,-0.009618759000000001,0.002660751,0
00:03.0,-0.002923965,-0.009618759000000001,0.002655029,0
00:03.0,-0.002918243,-0.009618759000000001,0.002649307,0
00:03.0,-0.002918243,-0.009624480999999999,0.002655029,0
00:03.0,-0.002912521,-0.009635925,0.002637863,0
00:03.0,-0.0028152470000000003,-0.009595871,0.0025119779999999998,0
0:00:03,-0.0028152470000000003,-0.009584427,0.0024948120000000003,0
00:03.0,-0.00296402,-0.009618759000000001,0.002677917,0
00:03.0,-0.002981186,-0.009618759000000001,0.002735138,0
00:03.0,-0.002941132,-0.009618759000000001,0.002672195,0
00:03.0,-0.00293541,-0.009624480999999999,0.002655029,0
00:03.0,-0.002923965,-0.009618759000000001,0.002677917,0
00:03.0,-0.002918243,-0.009613037,0.002655029,0
00:03.0,-0.002901077,-0.009607315,0.002620697,0
00:03.0,-0.002872467,-0.009595871,0.002523422,0
00:03.0,-0.002883911,-0.009630203,0.002557755,0
00:03.0,-0.002958298,-0.009641647,0.0027065279999999997,0
00:03.0,-0.002941132,-0.009618759000000001,0.0026950840000000004,0
00:03.0,-0.002923965,-0.009613037,0.002660751,0
00:03.1,-0.002901077,-0.009618759000000001,0.002643585,0
00:03.1,-0.002918243,-0.009618759000000001,0.002637863,0
00:03.1,-0.002912521,-0.009618759000000001,0.0026321409999999997,0
00:03.1,-0.0029067990000000003,-0.009618759000000001,0.002655029,0
00:03.1,-0.0029067990000000003,-0.009618759000000001,0.002637863,0
00:03.1,-0.002861023,-0.009601593,0.0025920870000000003,0
00:03.1,-0.002889633,-0.009607315,0.002552032,0
00:03.1,-0.002946854,-0.009618759000000001,0.002643585,0
00:03.1,-0.002946854,-0.009635925,0.002672195,0
00:03.1,-0.002941132,-0.009630203,0.002643585,0
00:03.1,-0.0029296879999999997,-0.009613037,0.002649307,0
00:03.1,-0.002912521,-0.009618759000000001,0.002660751,0
00:03.1,-0.0029067990000000003,-0.009630203,0.002637863,0
00:03.1,-0.0029067990000000003,-0.009618759000000001,0.0025920870000000003,0
00:03.1,-0.0029296879999999997,-0.009601593,0.0026321409999999997,0
00:03.1,-0.002901077,-0.009624480999999999,0.002603531,0
00:03.1,-0.002895355,-0.009618759000000001,0.002580643,0
00:03.1,-0.002901077,-0.009601593,0.002603531,0
00:03.1,-0.002901077,-0.009607315,0.002649307,0
00:03.1,-0.0029296879999999997,-0.009618759000000001,0.0026950840000000004,0
00:03.1,-0.0029296879999999997,-0.009624480999999999,0.002655029,0
00:03.1,-0.002918243,-0.009618759000000001,0.002649307,0
00:03.1,-0.002878189,-0.009630203,0.002597809,0
00:03.1,-0.0029067990000000003,-0.009624480999999999,0.002597809,0
00:03.1,-0.002923965,-0.009613037,0.002649307,0
00:03.2,-0.0029067990000000003,-0.009618759000000001,0.0025920870000000003,0
00:03.2,-0.00293541,-0.009624480999999999,0.002620697,0
00:03.2,-0.002946854,-0.009613037,0.002626419,0
00:03.2,-0.002923965,-0.009601593,0.002660751,0
00:03.2,-0.002912521,-0.009613037,0.002655029,0
00:03.2,-0.002912521,-0.009641647,0.002649307,0
00:03.2,-0.0029296879999999997,-0.009635925,0.002620697,0
00:03.2,-0.002889633,-0.009635925,0.0025920870000000003,0
00:03.2,-0.002849579,-0.009584427,0.002557755,0
00:03.2,-0.0028324129999999998,-0.009590149000000001,0.00246048,0
00:03.2,-0.002901077,-0.009590149000000001,0.002677917,0
00:03.2,-0.002946854,-0.009607315,0.002666473,0
00:03.2,-0.002975464,-0.009624480999999999,0.00268364,0
00:03.2,-0.002918243,-0.009618759000000001,0.002672195,0
00:03.2,-0.002912521,-0.009618759000000001,0.002666473,0
00:03.2,-0.002946854,-0.009624480999999999,0.002643585,0
00:03.2,-0.0029296879999999997,-0.009630203,0.002643585,0
00:03.2,-0.002918243,-0.009618759000000001,0.0026321409999999997,0
00:03.2,-0.002912521,-0.009607315,0.002626419,0
00:03.2,-0.002883911,-0.009601593,0.0025920870000000003,0
00:03.2,-0.002895355,-0.009618759000000001,0.00248909,0
00:03.2,-0.002923965,-0.009641647,0.002580643,0
00:03.2,-0.002923965,-0.009647369,0.0025920870000000003,0
00:03.2,-0.002923965,-0.009618759000000001,0.002666473,0
00:03.2,-0.002923965,-0.009613037,0.0027065279999999997,0
00:03.3,-0.0029067990000000003,-0.009607315,0.0026321409999999997,0
00:03.3,-0.002866745,-0.009624480999999999,0.0026092529999999997,0
00:03.3,-0.002878189,-0.009635925,0.002603531,0
00:03.3,-0.002958298,-0.009624480999999999,0.002649307,0
00:03.3,-0.0029296879999999997,-0.009601593,0.0026321409999999997,0
00:03.3,-0.002901077,-0.009613037,0.0026321409999999997,0
00:03.3,-0.00293541,-0.009624480999999999,0.002649307,0
00:03.3,-0.002923965,-0.009624480999999999,0.002626419,0
00:03.3,-0.002901077,-0.009607315,0.002586365,0
00:03.3,-0.002883911,-0.009613037,0.002557755,0
00:03.3,-0.0029067990000000003,-0.009641647,0.002614975,0
00:03.3,-0.0029296879999999997,-0.009624480999999999,0.002574921,0
00:03.3,-0.002923965,-0.009607315,0.002672195,0
00:03.3,-0.002918243,-0.009601593,0.002655029,0
00:03.3,-0.0029296879999999997,-0.009613037,0.002614975,0
00:03.3,-0.0029067990000000003,-0.009613037,0.002569199,0
00:03.3,-0.002895355,-0.009613037,0.002523422,0
00:03.3,-0.002895355,-0.009618759000000001,0.002637863,0
00:03.3,-0.0029067990000000003,-0.009630203,0.002603531,0
00:03.3,-0.00293541,-0.009618759000000001,0.002580643,0
00:03.3,-0.002941132,-0.009613037,0.002643585,0
00:03.3,-0.002918243,-0.009613037,0.002637863,0
00:03.3,-0.002889633,-0.009618759000000001,0.002614975,0
00:03.3,-0.0029296879999999997,-0.009630203,0.002655029,0
00:03.3,-0.002941132,-0.009624480999999999,0.002649307,0
00:03.4,-0.00293541,-0.009635925,0.002620697,0
00:03.4,-0.002923965,-0.009624480999999999,0.002626419,0
00:03.4,-0.002918243,-0.009618759000000001,0.0026092529999999997,0
00:03.4,-0.002912521,-0.009624480999999999,0.002626419,0
00:03.4,-0.0029067990000000003,-0.009641647,0.002626419,0
00:03.4,-0.0029296879999999997,-0.009630203,0.0026092529999999997,0
00:03.4,-0.0029296879999999997,-0.009630203,0.002614975,0
00:03.4,-0.002918243,-0.009590149000000001,0.002626419,0
00:03.4,-0.002918243,-0.009607315,0.002626419,0
00:03.4,-0.0029067990000000003,-0.009613037,0.002626419,0
00:03.4,-0.002912521,-0.009618759000000001,0.002620697,0
00:03.4,-0.002923965,-0.009613037,0.002614975,0
00:03.4,-0.002895355,-0.009613037,0.002603531,0
00:03.4,-0.002872467,-0.009613037,0.0025119779999999998,0
00:03.4,-0.00293541,-0.009613037,0.002563477,0
00:03.4,-0.0029067990000000003,-0.009613037,0.002649307,0
00:03.4,-0.002901077,-0.009607315,0.002597809,0
00:03.4,-0.002918243,-0.009624480999999999,0.002557755,0
00:03.4,-0.002889633,-0.009613037,0.002534866,0
00:03.4,-0.002969742,-0.009624480999999999,0.002597809,0
00:03.4,-0.0029525759999999997,-0.009630203,0.00268364,0
00:03.4,-0.002923965,-0.009624480999999999,0.002655029,0
00:03.4,-0.0029296879999999997,-0.009624480999999999,0.002626419,0
00:03.4,-0.002918243,-0.009624480999999999,0.002597809,0
00:03.4,-0.002923965,-0.009624480999999999,0.0025920870000000003,0
00:03.5,-0.00293541,-0.009647369,0.002614975,0
00:03.5,-0.002923965,-0.009624480999999999,0.002614975,0
00:03.5,-0.002918243,-0.009607315,0.0026092529999999997,0
00:03.5,-0.002918243,-0.009595871,0.002580643,0
00:03.5,-0.002923965,-0.009624480999999999,0.0026092529999999997,0
00:03.5,-0.002923965,-0.009624480999999999,0.0026092529999999997,0
00:03.5,-0.002923965,-0.009624480999999999,0.0026092529999999997,0
00:03.5,-0.002918243,-0.009630203,0.0026092529999999997,0
00:03.5,-0.002895355,-0.009635925,0.0025920870000000003,0
00:03.5,-0.002889633,-0.009590149000000001,0.002552032,0
00:03.5,-0.002912521,-0.009590149000000001,0.002569199,0
00:03.5,-0.002946854,-0.009613037,0.002574921,0
00:03.5,-0.002941132,-0.009635925,0.002597809,0
00:03.5,-0.00293541,-0.009635925,0.002643585,0
00:03.5,-0.002923965,-0.009630203,0.002620697,0
00:03.5,-0.002895355,-0.009624480999999999,0.00254631,0
00:03.5,-0.002883911,-0.009613037,0.002437592,0
00:03.5,-0.002912521,-0.009635925,0.002574921,0
00:03.5,-0.00293541,-0.009641647,0.002666473,0
00:03.5,-0.0029525759999999997,-0.009630203,0.002677917,0
00:03.5,-0.0029525759999999997,-0.009624480999999999,0.002643585,0
00:03.5,-0.0029296879999999997,-0.009630203,0.002614975,0
00:03.5,-0.00293541,-0.009635925,0.002597809,0
00:03.5,-0.002923965,-0.009624480999999999,0.0025920870000000003,0
00:03.5,-0.0029067990000000003,-0.009630203,0.0026092529999999997,0
00:03.6,-0.002889633,-0.009653090999999999,0.002552032,0
00:03.6,-0.002918243,-0.009613037,0.002534866,0
00:03.6,-0.00293541,-0.009630203,0.002649307,0
00:03.6,-0.002946854,-0.009635925,0.0026321409999999997,0
00:03.6,-0.00293541,-0.009630203,0.002614975,0
00:03.6,-0.0029296879999999997,-0.009624480999999999,0.002603531,0
00:03.6,-0.002923965,-0.009624480999999999,0.002597809,0
00:03.6,-0.002895355,-0.009607315,0.002603531,0
00:03.6,-0.00293541,-0.009618759000000001,0.002523422,0
00:03.6,-0.002918243,-0.009630203,0.002477646,0
00:03.6,-0.002912521,-0.009618759000000001,0.002614975,0
00:03.6,-0.00293541,-0.009624480999999999,0.002620697,0
00:03.6,-0.0029296879999999997,-0.009630203,0.002655029,0
00:03.6,-0.0029296879999999997,-0.009624480999999999,0.002597809,0
00:03.6,-0.002923965,-0.009630203,0.002586365,0
00:03.6,-0.002883911,-0.009618759000000001,0.002614975,0
00:03.6,-0.0028209690000000004,-0.009601593,0.0025177,0
00:03.6,-0.00293541,-0.009607315,0.002506256,0
00:03.6,-0.00296402,-0.009635925,0.002603531,0
00:03.6,-0.00296402,-0.009653090999999999,0.002643585,0
00:03.6,-0.00293541,-0.009653090999999999,0.002626419,0
00:03.6,-0.002941132,-0.009641647,0.002603531,0
00:03.6,-0.0029296879999999997,-0.009630203,0.002603531,0
00:03.6,-0.002912521,-0.009647369,0.002569199,0
00:03.6,-0.002912521,-0.009624480999999999,0.0025119779999999998,0
00:03.7,-0.002912521,-0.009613037,0.002626419,0
00:03.7,-0.0029296879999999997,-0.009607315,0.002614975,0
00:03.7,-0.0029296879999999997,-0.009613037,0.002614975,0
00:03.7,-0.002923965,-0.009635925,0.0025920870000000003,0
00:03.7,-0.002923965,-0.009624480999999999,0.002586365,0
00:03.7,-0.0029296879999999997,-0.009624480999999999,0.002603531,0
00:03.7,-0.002923965,-0.009635925,0.002580643,0
00:03.7,-0.002849579,-0.009624480999999999,0.0024948120000000003,0
00:03.7,-0.0029296879999999997,-0.009607315,0.002506256,0
00:03.7,-0.002969742,-0.009618759000000001,0.002637863,0
00:03.7,-0.002941132,-0.009618759000000001,0.002660751,0
00:03.7,-0.002941132,-0.009630203,0.002626419,0
00:03.7,-0.00293541,-0.009630203,0.002614975,0
00:03.7,-0.0029296879999999997,-0.009630203,0.0025920870000000003,0
00:03.7,-0.002912521,-0.009630203,0.002552032,0
00:03.7,-0.0029067990000000003,-0.009613037,0.0025177,0
00:03.7,-0.0029296879999999997,-0.009624480999999999,0.00254631,0
00:03.7,-0.002941132,-0.009630203,0.002597809,0
00:03.7,-0.00293541,-0.009635925,0.002643585,0
00:03.7,-0.00293541,-0.009630203,0.002614975,0
00:03.7,-0.0029296879999999997,-0.009630203,0.002614975,0
00:03.7,-0.00293541,-0.009635925,0.002597809,0
00:03.7,-0.0029296879999999997,-0.009647369,0.0025920870000000003,0
00:03.7,-0.0029296879999999997,-0.009658813,0.002529144,0
00:03.7,-0.002912521,-0.009607315,0.002534866,0
00:03.8,-0.002912521,-0.009613037,0.002614975,0
00:03.8,-0.002901077,-0.009635925,0.002626419,0
00:03.8,-0.002923965,-0.009635925,0.002603531,0
00:03.8,-0.002958298,-0.009630203,0.002586365,0
00:03.8,-0.002946854,-0.009630203,0.002580643,0
00:03.8,-0.002918243,-0.009618759000000001,0.002574921,0
00:03.8,-0.002912521,-0.009613037,0.0025920870000000003,0
00:03.8,-0.00293541,-0.009618759000000001,0.002586365,0
00:03.8,-0.00293541,-0.009624480999999999,0.0025920870000000003,0
00:03.8,-0.00293541,-0.009624480999999999,0.002586365,0
00:03.8,-0.002923965,-0.009624480999999999,0.002574921,0
00:03.8,-0.002918243,-0.009624480999999999,0.002563477,0
00:03.8,-0.002918243,-0.009618759000000001,0.002449036,0
00:03.8,-0.00293541,-0.009630203,0.002580643,0
00:03.8,-0.0029525759999999997,-0.009641647,0.002603531,0
00:03.8,-0.002941132,-0.009635925,0.002580643,0
00:03.8,-0.0029067990000000003,-0.009635925,0.0026092529999999997,0
00:03.8,-0.002912521,-0.009641647,0.002603531,0
00:03.8,-0.002946854,-0.009647369,0.0025920870000000003,0
00:03.8,-0.002923965,-0.009630203,0.002569199,0
00:03.8,-0.00293541,-0.009624480999999999,0.002534866,0
00:03.8,-0.00293541,-0.009618759000000001,0.002580643,0
00:03.8,-0.002923965,-0.009607315,0.002597809,0
00:03.8,-0.002941132,-0.009618759000000001,0.002597809,0
00:03.8,-0.002941132,-0.009635925,0.0026092529999999997,0
00:03.9,-0.0029296879999999997,-0.009647369,0.0025920870000000003,0
00:03.9,-0.0029296879999999997,-0.009624480999999999,0.002552032,0
00:03.9,-0.002923965,-0.009613037,0.002557755,0
00:03.9,-0.002941132,-0.009624480999999999,0.00254631,0
00:03.9,-0.00293541,-0.009641647,0.002580643,0
00:03.9,-0.002941132,-0.009618759000000001,0.002597809,0
00:03.9,-0.002941132,-0.009613037,0.002620697,0
00:03.9,-0.002866745,-0.009613037,0.002574921,0
00:03.9,-0.002883911,-0.009624480999999999,0.002540588,0
00:03.9,-0.003009796,-0.009635925,0.002557755,0
00:03.9,-0.00296402,-0.009630203,0.0026092529999999997,0
00:03.9,-0.002946854,-0.009635925,0.002597809,0
00:03.9,-0.00293541,-0.009635925,0.002569199,0
00:03.9,-0.002946854,-0.009618759000000001,0.002574921,0
00:03.9,-0.0029296879999999997,-0.009624480999999999,0.002569199,0
00:03.9,-0.002872467,-0.009607315,0.002506256,0
00:03.9,-0.002912521,-0.009613037,0.002529144,0
00:03.9,-0.002981186,-0.009635925,0.002637863,0
00:03.9,-0.002969742,-0.009641647,0.002620697,0
00:03.9,-0.002946854,-0.009647369,0.002597809,0
00:03.9,-0.002946854,-0.009630203,0.002586365,0
00:03.9,-0.00293541,-0.009635925,0.002563477,0
00:03.9,-0.00293541,-0.009630203,0.002563477,0
00:03.9,-0.00293541,-0.009641647,0.002580643,0
00:03.9,-0.0029296879999999997,-0.009641647,0.002574921,0
00:04.0,-0.002923965,-0.009624480999999999,0.00254631,0
00:04.0,-0.002901077,-0.009601593,0.002569199,0
00:04.0,-0.002923965,-0.009607315,0.002569199,0
00:04.0,-0.002969742,-0.009624480999999999,0.002574921,0
00:04.0,-0.002941132,-0.009624480999999999,0.002620697,0
00:04.0,-0.002946854,-0.009635925,0.002586365,0
00:04.0,-0.002946854,-0.009635925,0.002586365,0
00:04.0,-0.002946854,-0.009624480999999999,0.002580643,0
00:04.0,-0.002941132,-0.009630203,0.002580643,0
00:04.0,-0.002946854,-0.009641647,0.002574921,0
00:04.0,-0.002923965,-0.009607315,0.002534866,0
00:04.0,-0.002843857,-0.009607315,0.002426147,0
0:00:04,-0.002923965,-0.009630203,0.002529144,0
00:04.0,-0.002975464,-0.009635925,0.002649307,0
00:04.0,-0.002958298,-0.009635925,0.002626419,0
00:04.0,-0.00296402,-0.009641647,0.002603531,0
00:04.0,-0.002969742,-0.009635925,0.002597809,0
00:04.0,-0.002946854,-0.009635925,0.002580643,0
00:04.0,-0.00293541,-0.009647369,0.002569199,0
00:04.0,-0.00293541,-0.009624480999999999,0.002552032,0
00:04.0,-0.002918243,-0.009613037,0.002506256,0
00:04.0,-0.0029067990000000003,-0.009613037,0.002477646,0
00:04.0,-0.0029525759999999997,-0.009624480999999999,0.0026092529999999997,0
00:04.0,-0.00296402,-0.009630203,0.002626419,0
00:04.0,-0.002941132,-0.009618759000000001,0.002586365,0
00:04.1,-0.002941132,-0.009624480999999999,0.0025920870000000003,0
00:04.1,-0.002946854,-0.009618759000000001,0.002569199,0
00:04.1,-0.0029296879999999997,-0.009630203,0.002574921,0
00:04.1,-0.002941132,-0.009630203,0.002569199,0
00:04.1,-0.002923965,-0.009630203,0.002529144,0
00:04.1,-0.0029067990000000003,-0.009624480999999999,0.002557755,0
00:04.1,-0.0029296879999999997,-0.009624480999999999,0.002534866,0
00:04.1,-0.0029525759999999997,-0.009635925,0.002563477,0
00:04.1,-0.0029525759999999997,-0.009635925,0.002540588,0
00:04.1,-0.002918243,-0.009635925,0.002569199,0
00:04.1,-0.002918243,-0.009647369,0.0025920870000000003,0
00:04.1,-0.0029525759999999997,-0.009647369,0.002620697,0
00:04.1,-0.00296402,-0.009607315,0.002580643,0
00:04.1,-0.0029525759999999997,-0.009613037,0.002563477,0
00:04.1,-0.002958298,-0.009641647,0.002569199,0
00:04.1,-0.002941132,-0.009624480999999999,0.002574921,0
00:04.1,-0.002941132,-0.009635925,0.002529144,0
00:04.1,-0.002946854,-0.009630203,0.002500534,0
00:04.1,-0.0029525759999999997,-0.009641647,0.002569199,0
00:04.1,-0.00293541,-0.009630203,0.0025920870000000003,0
00:04.1,-0.00293541,-0.009618759000000001,0.0025920870000000003,0
00:04.1,-0.002941132,-0.009630203,0.002574921,0
00:04.1,-0.00293541,-0.009624480999999999,0.002580643,0
00:04.1,-0.002923965,-0.009618759000000001,0.002557755,0
00:04.1,-0.0029296879999999997,-0.009624480999999999,0.002534866,0
00:04.2,-0.002946854,-0.009647369,0.002569199,0
00:04.2,-0.002941132,-0.009641647,0.002540588,0
00:04.2,-0.002946854,-0.009624480999999999,0.002563477,0
00:04.2,-0.002918243,-0.009618759000000001,0.002552032,0
00:04.2,-0.0029525759999999997,-0.009630203,0.002529144,0
00:04.2,-0.0029525759999999997,-0.009635925,0.00254631,0
00:04.2,-0.002923965,-0.009618759000000001,0.002620697,0
00:04.2,-0.002918243,-0.009624480999999999,0.002557755,0
00:04.2,-0.002918243,-0.009635925,0.002534866,0
00:04.2,-0.002975464,-0.009635925,0.002563477,0
00:04.2,-0.002941132,-0.009624480999999999,0.00254631,0
00:04.2,-0.002946854,-0.009624480999999999,0.002534866,0
00:04.2,-0.00293541,-0.009624480999999999,0.002586365,0
00:04.2,-0.002946854,-0.009647369,0.002586365,0
00:04.2,-0.0029525759999999997,-0.009647369,0.002580643,0
00:04.2,-0.002946854,-0.009641647,0.002574921,0
00:04.2,-0.002918243,-0.009641647,0.002557755,0
00:04.2,-0.0029067990000000003,-0.009613037,0.002563477,0
00:04.2,-0.0029067990000000003,-0.009601593,0.002529144,0
00:04.2,-0.0029525759999999997,-0.009630203,0.002506256,0
00:04.2,-0.002969742,-0.009635925,0.002580643,0
00:04.2,-0.00296402,-0.009624480999999999,0.0025920870000000003,0
00:04.2,-0.002941132,-0.009630203,0.002552032,0
00:04.2,-0.0029525759999999997,-0.009641647,0.002563477,0
00:04.2,-0.00293541,-0.009641647,0.002557755,0
00:04.3,-0.0029296879999999997,-0.009630203,0.002500534,0
00:04.3,-0.002923965,-0.009641647,0.002569199,0
00:04.3,-0.002918243,-0.009624480999999999,0.00254631,0
00:04.3,-0.00293541,-0.009624480999999999,0.00248909,0
00:04.3,-0.002923965,-0.009635925,0.002574921,0
00:04.3,-0.0029296879999999997,-0.009630203,0.002580643,0
00:04.3,-0.00296402,-0.009624480999999999,0.002563477,0
00:04.3,-0.0029296879999999997,-0.009635925,0.002569199,0
00:04.3,-0.002912521,-0.009630203,0.00248909,0
00:04.3,-0.002969742,-0.009618759000000001,0.00254631,0
00:04.3,-0.0029525759999999997,-0.009624480999999999,0.0025920870000000003,0
00:04.3,-0.002969742,-0.009635925,0.002574921,0
00:04.3,-0.002958298,-0.009647369,0.002552032,0
00:04.3,-0.002946854,-0.009653090999999999,0.002540588,0
00:04.3,-0.00293541,-0.009635925,0.002540588,0
00:04.3,-0.002941132,-0.009618759000000001,0.002574921,0
00:04.3,-0.002941132,-0.009618759000000001,0.002569199,0
00:04.3,-0.0029296879999999997,-0.009624480999999999,0.002552032,0
00:04.3,-0.0029525759999999997,-0.009630203,0.002563477,0
00:04.3,-0.002946854,-0.009635925,0.002552032,0
00:04.3,-0.0029296879999999997,-0.009641647,0.002529144,0
00:04.3,-0.002941132,-0.009624480999999999,0.0024833679999999997,0
00:04.3,-0.00293541,-0.009624480999999999,0.002534866,0
00:04.3,-0.002918243,-0.009630203,0.002563477,0
00:04.3,-0.002946854,-0.009641647,0.002580643,0
00:04.4,-0.002912521,-0.009641647,0.002540588,0
00:04.4,-0.002923965,-0.009630203,0.002477646,0
00:04.4,-0.002958298,-0.009653090999999999,0.002552032,0
00:04.4,-0.00296402,-0.009613037,0.00254631,0
00:04.4,-0.0029296879999999997,-0.009624480999999999,0.002552032,0
00:04.4,-0.002923965,-0.009641647,0.002597809,0
00:04.4,-0.002958298,-0.009653090999999999,0.002569199,0
00:04.4,-0.002958298,-0.009670258000000001,0.002563477,0
00:04.4,-0.002923965,-0.009624480999999999,0.002563477,0
00:04.4,-0.002941132,-0.009630203,0.002534866,0
00:04.4,-0.002969742,-0.009641647,0.0025119779999999998,0
00:04.4,-0.002946854,-0.009624480999999999,0.002534866,0
00:04.4,-0.00293541,-0.009635925,0.002552032,0
00:04.4,-0.0029296879999999997,-0.009630203,0.002574921,0
00:04.4,-0.002901077,-0.009635925,0.002569199,0
00:04.4,-0.002969742,-0.009641647,0.002569199,0
00:04.4,-0.0029525759999999997,-0.009624480999999999,0.002557755,0
00:04.4,-0.00293541,-0.009635925,0.002506256,0
00:04.4,-0.002946854,-0.009641647,0.0025177,0
00:04.4,-0.002941132,-0.009647369,0.002569199,0
00:04.4,-0.00293541,-0.009624480999999999,0.002471924,0
00:04.4,-0.0029525759999999997,-0.009618759000000001,0.0024948120000000003,0
00:04.4,-0.0029525759999999997,-0.009630203,0.0025920870000000003,0
00:04.4,-0.00296402,-0.009635925,0.002574921,0
00:04.4,-0.002901077,-0.009635925,0.002563477,0
00:04.5,-0.002918243,-0.009658813,0.0025177,0
00:04.5,-0.002981186,-0.009647369,0.002586365,0
00:04.5,-0.002975464,-0.009630203,0.002580643,0
00:04.5,-0.0029525759999999997,-0.009618759000000001,0.002557755,0
00:04.5,-0.002941132,-0.009630203,0.002540588,0
00:04.5,-0.002918243,-0.009641647,0.0024833679999999997,0
00:04.5,-0.002923965,-0.009630203,0.0025177,0
00:04.5,-0.00296402,-0.009647369,0.002540588,0
00:04.5,-0.00296402,-0.009647369,0.002586365,0
00:04.5,-0.0029525759999999997,-0.009630203,0.002563477,0
00:04.5,-0.00293541,-0.009624480999999999,0.0025177,0
00:04.5,-0.002878189,-0.009630203,0.002534866,0
00:04.5,-0.002958298,-0.009635925,0.002506256,0
00:04.5,-0.002986908,-0.009635925,0.002552032,0
00:04.5,-0.0029525759999999997,-0.009635925,0.002574921,0
00:04.5,-0.002923965,-0.009641647,0.002557755,0
00:04.5,-0.0029525759999999997,-0.009635925,0.002552032,0
00:04.5,-0.0029525759999999997,-0.009641647,0.002569199,0
00:04.5,-0.002941132,-0.009635925,0.002534866,0
00:04.5,-0.0029296879999999997,-0.009630203,0.002506256,0
00:04.5,-0.0029067990000000003,-0.009624480999999999,0.002477646,0
00:04.5,-0.002946854,-0.009641647,0.002534866,0
00:04.5,-0.002941132,-0.009647369,0.0025920870000000003,0
00:04.5,-0.002918243,-0.009641647,0.002563477,0
00:04.5,-0.002986908,-0.009641647,0.002569199,0
00:04.6,-0.00296402,-0.009635925,0.0025119779999999998,0
00:04.6,-0.0029525759999999997,-0.009624480999999999,0.0025119779999999998,0
00:04.6,-0.002923965,-0.009641647,0.002534866,0
00:04.6,-0.002901077,-0.009630203,0.00254631,0
00:04.6,-0.002946854,-0.009647369,0.00254631,0
00:04.6,-0.002975464,-0.009641647,0.002569199,0
00:04.6,-0.0029525759999999997,-0.009630203,0.002534866,0
00:04.6,-0.00293541,-0.009647369,0.002529144,0
00:04.6,-0.00293541,-0.009641647,0.002523422,0
00:04.6,-0.00293541,-0.009647369,0.002523422,0
00:04.6,-0.00296402,-0.009647369,0.0024948120000000003,0
00:04.6,-0.002975464,-0.009635925,0.002574921,0
00:04.6,-0.0029525759999999997,-0.009630203,0.002563477,0
00:04.6,-0.0029525759999999997,-0.009630203,0.002534866,0
00:04.6,-0.00293541,-0.009624480999999999,0.002523422,0
00:04.6,-0.00293541,-0.009641647,0.002557755,0
00:04.6,-0.002946854,-0.009653090999999999,0.002540588,0
00:04.6,-0.0029525759999999997,-0.009647369,0.0025177,0
00:04.6,-0.002941132,-0.009630203,0.002471924,0
00:04.6,-0.002941132,-0.009630203,0.00248909,0
00:04.6,-0.002946854,-0.009641647,0.002569199,0
00:04.6,-0.002918243,-0.009635925,0.002534866,0
00:04.6,-0.002958298,-0.009641647,0.002529144,0
00:04.6,-0.002941132,-0.009664536,0.002552032,0
00:04.6,-0.002958298,-0.009647369,0.002557755,0
00:04.7,-0.002975464,-0.009653090999999999,0.002552032,0
00:04.7,-0.0029525759999999997,-0.009658813,0.002523422,0
00:04.7,-0.002958298,-0.009624480999999999,0.002506256,0
00:04.7,-0.00296402,-0.009630203,0.002540588,0
00:04.7,-0.0029525759999999997,-0.009641647,0.002563477,0
00:04.7,-0.002941132,-0.009641647,0.00254631,0
00:04.7,-0.0029296879999999997,-0.009641647,0.002534866,0
00:04.7,-0.002941132,-0.009630203,0.00254631,0
00:04.7,-0.002958298,-0.009635925,0.002534866,0
00:04.7,-0.002969742,-0.009647369,0.002534866,0
00:04.7,-0.002958298,-0.009641647,0.00248909,0
00:04.7,-0.0029525759999999997,-0.009653090999999999,0.0024948120000000003,0
00:04.7,-0.0029296879999999997,-0.009641647,0.00254631,0
00:04.7,-0.002946854,-0.009635925,0.0025177,0
00:04.7,-0.002958298,-0.009641647,0.0024948120000000003,0
00:04.7,-0.002941132,-0.009641647,0.002500534,0
00:04.7,-0.002941132,-0.009653090999999999,0.002580643,0
00:04.7,-0.002969742,-0.009653090999999999,0.002523422,0
00:04.7,-0.00296402,-0.009653090999999999,0.0025119779999999998,0
00:04.7,-0.002941132,-0.009647369,0.0024833679999999997,0
00:04.7,-0.002941132,-0.009618759000000001,0.002477646,0
00:04.7,-0.002941132,-0.009635925,0.002597809,0
00:04.7,-0.00293541,-0.009647369,0.002563477,0
00:04.7,-0.00299263,-0.00967598,0.002563477,0
00:04.7,-0.0029525759999999997,-0.009647369,0.002534866,0
00:04.8,-0.00296402,-0.009630203,0.002540588,0
00:04.8,-0.00296402,-0.009641647,0.002534866,0
00:04.8,-0.0029525759999999997,-0.009647369,0.00248909,0
00:04.8,-0.002958298,-0.009658813,0.002500534,0
00:04.8,-0.0029525759999999997,-0.009653090999999999,0.002523422,0
00:04.8,-0.002958298,-0.009630203,0.002552032,0
00:04.8,-0.002946854,-0.009635925,0.002552032,0
00:04.8,-0.002946854,-0.009635925,0.002534866,0
00:04.8,-0.0029525759999999997,-0.009647369,0.002529144,0
00:04.8,-0.0029525759999999997,-0.009630203,0.0025177,0
00:04.8,-0.002946854,-0.009624480999999999,0.002523422,0
00:04.8,-0.002901077,-0.009630203,0.0025177,0
00:04.8,-0.002901077,-0.009635925,0.002414703,0
00:04.8,-0.002986908,-0.009630203,0.002420425,0
00:04.8,-0.002969742,-0.009635925,0.0025920870000000003,0
00:04.8,-0.002946854,-0.009641647,0.002574921,0
00:04.8,-0.00296402,-0.009647369,0.002534866,0
00:04.8,-0.002975464,-0.009647369,0.002552032,0
00:04.8,-0.00296402,-0.009647369,0.002529144,0
00:04.8,-0.0029525759999999997,-0.009658813,0.002529144,0
00:04.8,-0.002958298,-0.009658813,0.002534866,0
00:04.8,-0.00293541,-0.009641647,0.00246048,0
00:04.8,-0.0029296879999999997,-0.009647369,0.00246048,0
00:04.8,-0.002946854,-0.009624480999999999,0.0025177,0
00:04.8,-0.002958298,-0.009635925,0.002569199,0
00:04.9,-0.00296402,-0.009635925,0.002552032,0
00:04.9,-0.002969742,-0.009641647,0.002534866,0
00:04.9,-0.0029525759999999997,-0.009641647,0.002534866,0
00:04.9,-0.002969742,-0.009647369,0.002523422,0
00:04.9,-0.00296402,-0.009664536,0.002523422,0
00:04.9,-0.0029525759999999997,-0.009670258000000001,0.0025119779999999998,0
00:04.9,-0.0029296879999999997,-0.009618759000000001,0.00246048,0
00:04.9,-0.0029525759999999997,-0.009624480999999999,0.002437592,0
00:04.9,-0.002941132,-0.009618759000000001,0.002540588,0
00:04.9,-0.00293541,-0.009641647,0.002552032,0
00:04.9,-0.002958298,-0.009647369,0.00254631,0
00:04.9,-0.002946854,-0.009641647,0.002534866,0
00:04.9,-0.002941132,-0.009647369,0.0025177,0
00:04.9,-0.00296402,-0.009647369,0.0025119779999999998,0
00:04.9,-0.0029525759999999997,-0.009641647,0.0024948120000000003,0
00:04.9,-0.0029296879999999997,-0.009647369,0.002391815,0
00:04.9,-0.002958298,-0.009653090999999999,0.002569199,0
00:04.9,-0.0029525759999999997,-0.009641647,0.002569199,0
00:04.9,-0.002946854,-0.009641647,0.002529144,0
00:04.9,-0.002975464,-0.009647369,0.002506256,0
00:04.9,-0.0029525759999999997,-0.009647369,0.002529144,0
00:04.9,-0.002958298,-0.009647369,0.002506256,0
00:04.9,-0.002958298,-0.009647369,0.002500534,0
00:04.9,-0.0029525759999999997,-0.009635925,0.0024833679999999997,0
00:04.9,-0.002981186,-0.009647369,0.002523422,0
00:05.0,-0.0029525759999999997,-0.009647369,0.00254631,0
00:05.0,-0.002958298,-0.009635925,0.002540588,0
00:05.0,-0.002958298,-0.009641647,0.002523422,0
00:05.0,-0.0029525759999999997,-0.009630203,0.0025119779999999998,0
00:05.0,-0.002958298,-0.009624480999999999,0.00248909,0
00:05.0,-0.00296402,-0.009641647,0.0025119779999999998,0
00:05.0,-0.00296402,-0.009641647,0.00248909,0
00:05.0,-0.002946854,-0.009630203,0.002426147,0
00:05.0,-0.002923965,-0.009641647,0.002540588,0
00:05.0,-0.0029525759999999997,-0.009653090999999999,0.0025177,0
00:05.0,-0.002958298,-0.009630203,0.002529144,0
00:05.0,-0.00296402,-0.009635925,0.002523422,0
0:00:05,-0.002969742,-0.009635925,0.0025119779999999998,0
00:05.0,-0.002969742,-0.009641647,0.002523422,0
00:05.0,-0.0029525759999999997,-0.009641647,0.002471924,0
00:05.0,-0.002946854,-0.009647369,0.002437592,0
00:05.0,-0.002975464,-0.009630203,0.002569199,0
00:05.0,-0.002969742,-0.009624480999999999,0.002523422,0
00:05.0,-0.00293541,-0.009647369,0.0025177,0
00:05.0,-0.0029525759999999997,-0.009647369,0.002529144,0
00:05.0,-0.002986908,-0.009653090999999999,0.002529144,0
00:05.0,-0.00296402,-0.009630203,0.0025177,0
00:05.0,-0.0029525759999999997,-0.009635925,0.0025119779999999998,0
00:05.0,-0.002946854,-0.009635925,0.0025119779999999998,0
00:05.0,-0.002946854,-0.009635925,0.002477646,0
00:05.1,-0.00293541,-0.009653090999999999,0.00243187,0
00:05.1,-0.002946854,-0.009635925,0.00248909,0
00:05.1,-0.002946854,-0.009635925,0.002552032,0
00:05.1,-0.002946854,-0.009653090999999999,0.0024948120000000003,0
00:05.1,-0.002998352,-0.009658813,0.0025119779999999998,0
00:05.1,-0.002981186,-0.009641647,0.00254631,0
00:05.1,-0.00296402,-0.009630203,0.00248909,0
00:05.1,-0.002941132,-0.009618759000000001,0.002471924,0
00:05.1,-0.002958298,-0.009613037,0.002449036,0
00:05.1,-0.002969742,-0.009635925,0.00248909,0
00:05.1,-0.0029525759999999997,-0.009641647,0.002557755,0
00:05.1,-0.002975464,-0.009641647,0.002552032,0
00:05.1,-0.00296402,-0.009641647,0.0025177,0
00:05.1,-0.002958298,-0.009635925,0.00248909,0
00:05.1,-0.002958298,-0.009641647,0.0024833679999999997,0
00:05.1,-0.002941132,-0.009641647,0.002449036,0
00:05.1,-0.0029296879999999997,-0.009647369,0.002454758,0
00:05.1,-0.0029525759999999997,-0.009641647,0.0025119779999999998,0
00:05.1,-0.00299263,-0.009635925,0.002552032,0
00:05.1,-0.002969742,-0.009647369,0.0025119779999999998,0
00:05.1,-0.0029525759999999997,-0.009641647,0.002477646,0
00:05.1,-0.00296402,-0.009630203,0.002529144,0
00:05.1,-0.0029525759999999997,-0.009635925,0.002540588,0
00:05.1,-0.00296402,-0.009647369,0.0025119779999999998,0
00:05.1,-0.002969742,-0.009641647,0.0025119779999999998,0
00:05.2,-0.002946854,-0.009641647,0.0025177,0
00:05.2,-0.0029525759999999997,-0.009653090999999999,0.002506256,0
00:05.2,-0.00293541,-0.009635925,0.002454758,0
00:05.2,-0.002941132,-0.009618759000000001,0.002454758,0
00:05.2,-0.00296402,-0.009641647,0.0025177,0
00:05.2,-0.002981186,-0.009647369,0.002540588,0
00:05.2,-0.002975464,-0.009635925,0.002506256,0
00:05.2,-0.00293541,-0.009624480999999999,0.002454758,0
00:05.2,-0.00293541,-0.009624480999999999,0.0024948120000000003,0
00:05.2,-0.002958298,-0.009635925,0.00248909,0
00:05.2,-0.002941132,-0.009635925,0.00246048,0
00:05.2,-0.002946854,-0.009635925,0.002500534,0
00:05.2,-0.002981186,-0.009641647,0.002534866,0
00:05.2,-0.002986908,-0.009664536,0.0024948120000000003,0
00:05.2,-0.002958298,-0.009653090999999999,0.0025119779999999998,0
00:05.2,-0.002958298,-0.009635925,0.0025119779999999998,0
00:05.2,-0.002946854,-0.009630203,0.002477646,0
00:05.2,-0.002941132,-0.009630203,0.0024833679999999997,0
00:05.2,-0.002946854,-0.009641647,0.002529144,0
00:05.2,-0.00296402,-0.009664536,0.0025119779999999998,0
00:05.2,-0.00296402,-0.009641647,0.0025119779999999998,0
00:05.2,-0.002946854,-0.009630203,0.0025119779999999998,0
00:05.2,-0.002941132,-0.009630203,0.002500534,0
00:05.2,-0.00296402,-0.009624480999999999,0.0024662020000000002,0
00:05.2,-0.002958298,-0.009635925,0.0024662020000000002,0
00:05.3,-0.002958298,-0.009641647,0.002500534,0
00:05.3,-0.002941132,-0.009641647,0.00248909,0
00:05.3,-0.002958298,-0.009647369,0.0024948120000000003,0
00:05.3,-0.002969742,-0.009658813,0.002523422,0
00:05.3,-0.0029525759999999997,-0.009647369,0.002477646,0
00:05.3,-0.0029525759999999997,-0.009630203,0.002506256,0
00:05.3,-0.0029525759999999997,-0.009624480999999999,0.0024833679999999997,0
00:05.3,-0.002946854,-0.009630203,0.0024662020000000002,0
00:05.3,-0.002969742,-0.009635925,0.002477646,0
00:05.3,-0.002969742,-0.009647369,0.002506256,0
00:05.3,-0.0029525759999999997,-0.009647369,0.002529144,0
00:05.3,-0.002901077,-0.009630203,0.002477646,0
00:05.3,-0.002946854,-0.009641647,0.002414703,0
00:05.3,-0.002998352,-0.009653090999999999,0.002540588,0
00:05.3,-0.002969742,-0.009658813,0.0025177,0
00:05.3,-0.002958298,-0.009670258000000001,0.0024833679999999997,0
00:05.3,-0.002975464,-0.009635925,0.0024833679999999997,0
00:05.3,-0.00296402,-0.009635925,0.002500534,0
00:05.3,-0.002923965,-0.009635925,0.002477646,0
00:05.3,-0.0029525759999999997,-0.009630203,0.00246048,0
00:05.3,-0.00296402,-0.009641647,0.002540588,0
00:05.3,-0.002969742,-0.009653090999999999,0.002529144,0
00:05.3,-0.0029525759999999997,-0.009635925,0.002506256,0
00:05.3,-0.0029525759999999997,-0.009641647,0.00248909,0
00:05.3,-0.00296402,-0.009641647,0.0024833679999999997,0
00:05.4,-0.002946854,-0.009635925,0.0025119779999999998,0
00:05.4,-0.002975464,-0.009658813,0.00248909,0
00:05.4,-0.002958298,-0.009647369,0.00248909,0
00:05.4,-0.0029525759999999997,-0.009641647,0.002477646,0
00:05.4,-0.002958298,-0.009630203,0.0024662020000000002,0
00:05.4,-0.002958298,-0.009624480999999999,0.002471924,0
00:05.4,-0.002923965,-0.009630203,0.002500534,0
00:05.4,-0.0029525759999999997,-0.009641647,0.002471924,0
00:05.4,-0.002975464,-0.009647369,0.002506256,0
00:05.4,-0.002969742,-0.009647369,0.002477646,0
00:05.4,-0.0029525759999999997,-0.009647369,0.00246048,0
00:05.4,-0.002946854,-0.009647369,0.0024662020000000002,0
00:05.4,-0.002958298,-0.009647369,0.00246048,0
00:05.4,-0.002986908,-0.009653090999999999,0.0024833679999999997,0
00:05.4,-0.002969742,-0.009653090999999999,0.0025177,0
00:05.4,-0.0029296879999999997,-0.009635925,0.002500534,0
00:05.4,-0.002918243,-0.009641647,0.0024948120000000003,0
00:05.4,-0.0030040740000000002,-0.009664536,0.0024948120000000003,0
00:05.4,-0.002986908,-0.009664536,0.002477646,0
00:05.4,-0.002969742,-0.009641647,0.002437592,0
00:05.4,-0.002958298,-0.009635925,0.002449036,0
00:05.4,-0.0029525759999999997,-0.009624480999999999,0.0025177,0
00:05.4,-0.002958298,-0.009635925,0.002500534,0
00:05.4,-0.002958298,-0.009647369,0.002500534,0
00:05.4,-0.0029296879999999997,-0.009647369,0.0024948120000000003,0
00:05.5,-0.0029525759999999997,-0.009647369,0.0024662020000000002,0
00:05.5,-0.002986908,-0.009641647,0.00246048,0
00:05.5,-0.0029525759999999997,-0.009635925,0.0024662020000000002,0
00:05.5,-0.00293541,-0.009641647,0.00246048,0
00:05.5,-0.002969742,-0.009635925,0.002443314,0
00:05.5,-0.00299263,-0.009635925,0.0024833679999999997,0
00:05.5,-0.00296402,-0.009647369,0.0025119779999999998,0
00:05.5,-0.002958298,-0.009653090999999999,0.002477646,0
00:05.5,-0.0029525759999999997,-0.009647369,0.00243187,0
00:05.5,-0.002941132,-0.009653090999999999,0.002403259,0
00:05.5,-0.0029296879999999997,-0.009641647,0.002529144,0
00:05.5,-0.00299263,-0.009641647,0.0025177,0
00:05.5,-0.002981186,-0.009635925,0.0025119779999999998,0
00:05.5,-0.00296402,-0.009635925,0.00248909,0
00:05.5,-0.002958298,-0.009641647,0.00248909,0
00:05.5,-0.00296402,-0.009653090999999999,0.00248909,0
00:05.5,-0.002946854,-0.009653090999999999,0.002443314,0
00:05.5,-0.00293541,-0.009658813,0.002414703,0
00:05.5,-0.002912521,-0.009624480999999999,0.002403259,0
00:05.5,-0.002969742,-0.009630203,0.002506256,0
00:05.5,-0.00299263,-0.009641647,0.0025119779999999998,0
00:05.5,-0.002981186,-0.009630203,0.0024948120000000003,0
00:05.5,-0.002958298,-0.009641647,0.002477646,0
00:05.5,-0.002969742,-0.009653090999999999,0.00248909,0
00:05.5,-0.002981186,-0.009658813,0.002471924,0
00:05.6,-0.002958298,-0.009647369,0.002471924,0
00:05.6,-0.002912521,-0.009647369,0.002437592,0
00:05.6,-0.002923965,-0.009658813,0.0023860929999999997,0
00:05.6,-0.0030040740000000002,-0.009658813,0.002426147,0
00:05.6,-0.002975464,-0.009635925,0.002506256,0
00:05.6,-0.002969742,-0.009630203,0.0025177,0
00:05.6,-0.002969742,-0.009635925,0.0024948120000000003,0
00:05.6,-0.00296402,-0.009635925,0.0024833679999999997,0
00:05.6,-0.0029525759999999997,-0.009641647,0.0024833679999999997,0
00:05.6,-0.0029525759999999997,-0.009658813,0.002471924,0
00:05.6,-0.002958298,-0.009641647,0.002471924,0
00:05.6,-0.002969742,-0.009653090999999999,0.002471924,0
00:05.6,-0.002975464,-0.009658813,0.00246048,0
00:05.6,-0.0029067990000000003,-0.009653090999999999,0.002403259,0
00:05.6,-0.002889633,-0.009635925,0.002351761,0
00:05.6,-0.003009796,-0.009647369,0.002506256,0
00:05.6,-0.003009796,-0.009664536,0.0025177,0
00:05.6,-0.002975464,-0.009653090999999999,0.00248909,0
00:05.6,-0.002975464,-0.009647369,0.002471924,0
00:05.6,-0.00296402,-0.009641647,0.0024662020000000002,0
00:05.6,-0.002969742,-0.009658813,0.0024662020000000002,0
00:05.6,-0.00296402,-0.00967598,0.002426147,0
00:05.6,-0.002958298,-0.009647369,0.002426147,0
00:05.6,-0.002941132,-0.009647369,0.002414703,0
00:05.6,-0.002958298,-0.009635925,0.002477646,0
00:05.7,-0.002981186,-0.009635925,0.0024833679999999997,0
00:05.7,-0.002958298,-0.009641647,0.0024948120000000003,0
00:05.7,-0.002958298,-0.009647369,0.0024833679999999997,0
00:05.7,-0.002969742,-0.009653090999999999,0.002471924,0
00:05.7,-0.00296402,-0.009647369,0.0024662020000000002,0
00:05.7,-0.00296402,-0.009664536,0.002454758,0
00:05.7,-0.00293541,-0.009664536,0.002449036,0
00:05.7,-0.00293541,-0.009635925,0.002454758,0
00:05.7,-0.002958298,-0.009630203,0.002471924,0
00:05.7,-0.002981186,-0.009641647,0.0024662020000000002,0
00:05.7,-0.00299263,-0.009647369,0.002449036,0
00:05.7,-0.00296402,-0.009647369,0.002471924,0
00:05.7,-0.0029525759999999997,-0.009647369,0.00246048,0
00:05.7,-0.002969742,-0.009647369,0.002454758,0
00:05.7,-0.0029525759999999997,-0.009641647,0.002437592,0
00:05.7,-0.002946854,-0.009635925,0.002414703,0
00:05.7,-0.0029525759999999997,-0.009630203,0.002454758,0
00:05.7,-0.002975464,-0.009653090999999999,0.002449036,0
00:05.7,-0.002969742,-0.009658813,0.002437592,0
00:05.7,-0.002958298,-0.009647369,0.002454758,0
00:05.7,-0.002941132,-0.009647369,0.002477646,0
00:05.7,-0.002923965,-0.009658813,0.002477646,0
00:05.7,-0.002901077,-0.009647369,0.0023689270000000003,0
00:05.7,-0.0030040740000000002,-0.009653090999999999,0.002420425,0
00:05.7,-0.002998352,-0.009647369,0.0025119779999999998,0
00:05.8,-0.002981186,-0.009647369,0.0024948120000000003,0
00:05.8,-0.002975464,-0.009647369,0.002477646,0
00:05.8,-0.002958298,-0.009647369,0.0024662020000000002,0
00:05.8,-0.002969742,-0.009647369,0.0024662020000000002,0
00:05.8,-0.00296402,-0.009647369,0.00246048,0
00:05.8,-0.002958298,-0.009653090999999999,0.002449036,0
00:05.8,-0.002958298,-0.009647369,0.002397537,0
00:05.8,-0.002969742,-0.009664536,0.002454758,0
00:05.8,-0.00293541,-0.009653090999999999,0.0024662020000000002,0
00:05.8,-0.002958298,-0.009624480999999999,0.002454758,0
00:05.8,-0.0029525759999999997,-0.009635925,0.0024662020000000002,0
00:05.8,-0.00296402,-0.009653090999999999,0.0024662020000000002,0
00:05.8,-0.002958298,-0.009647369,0.00243187,0
00:05.8,-0.00296402,-0.009658813,0.002380371,0
00:05.8,-0.00296402,-0.009647369,0.002449036,0
00:05.8,-0.00296402,-0.009653090999999999,0.0024948120000000003,0
00:05.8,-0.002958298,-0.009653090999999999,0.002443314,0
00:05.8,-0.00293541,-0.009664536,0.002380371,0
00:05.8,-0.002941132,-0.009653090999999999,0.002374649,0
00:05.8,-0.002958298,-0.009641647,0.002471924,0
00:05.8,-0.002975464,-0.009647369,0.00248909,0
00:05.8,-0.002981186,-0.009653090999999999,0.002443314,0
00:05.8,-0.002986908,-0.009653090999999999,0.00243187,0
00:05.8,-0.002946854,-0.009664536,0.002443314,0
00:05.8,-0.00293541,-0.009658813,0.002437592,0
00:05.9,-0.002998352,-0.009658813,0.002454758,0
00:05.9,-0.002975464,-0.009658813,0.002500534,0
00:05.9,-0.00296402,-0.009641647,0.002454758,0
00:05.9,-0.0029525759999999997,-0.009635925,0.002471924,0
00:05.9,-0.0029525759999999997,-0.009653090999999999,0.00246048,0
00:05.9,-0.002958298,-0.009658813,0.00246048,0
00:05.9,-0.002975464,-0.009653090999999999,0.002443314,0
00:05.9,-0.002975464,-0.009658813,0.002408981,0
00:05.9,-0.0029525759999999997,-0.009658813,0.00243187,0
00:05.9,-0.002941132,-0.009653090999999999,0.002437592,0
00:05.9,-0.00296402,-0.009670258000000001,0.0024662020000000002,0
00:05.9,-0.00296402,-0.009647369,0.002471924,0
00:05.9,-0.0029296879999999997,-0.009635925,0.002414703,0
00:05.9,-0.002901077,-0.009641647,0.0023860929999999997,0
00:05.9,-0.002958298,-0.009635925,0.002414703,0
00:05.9,-0.002969742,-0.009658813,0.002426147,0
00:05.9,-0.002969742,-0.009653090999999999,0.002449036,0
00:05.9,-0.002975464,-0.009647369,0.0024833679999999997,0
00:05.9,-0.002969742,-0.009653090999999999,0.002454758,0
00:05.9,-0.0029525759999999997,-0.009664536,0.002437592,0
00:05.9,-0.00296402,-0.009653090999999999,0.002449036,0
00:05.9,-0.002958298,-0.009641647,0.00246048,0
00:05.9,-0.00296402,-0.009653090999999999,0.002471924,0
00:05.9,-0.002958298,-0.009658813,0.0024662020000000002,0
00:05.9,-0.002958298,-0.009658813,0.0024662020000000002,0
00:06.0,-0.00296402,-0.009658813,0.002454758,0
00:06.0,-0.002958298,-0.009658813,0.002449036,0
00:06.0,-0.00296402,-0.009664536,0.002449036,0
00:06.0,-0.002946854,-0.009664536,0.00243187,0
00:06.0,-0.002946854,-0.009658813,0.002420425,0
00:06.0,-0.0029525759999999997,-0.009653090999999999,0.002414703,0
00:06.0,-0.002981186,-0.009658813,0.002414703,0
00:06.0,-0.002946854,-0.00967598,0.0024948120000000003,0
00:06.0,-0.002941132,-0.009653090999999999,0.002449036,0
00:06.0,-0.00296402,-0.009641647,0.00243187,0
00:06.0,-0.002975464,-0.009658813,0.002426147,0
00:06.0,-0.002986908,-0.009664536,0.002443314,0
0:00:06,-0.00296402,-0.009658813,0.002414703,0
00:06.0,-0.002918243,-0.009658813,0.002351761,0
00:06.0,-0.0029525759999999997,-0.009647369,0.00248909,0
00:06.0,-0.002981186,-0.009653090999999999,0.002523422,0
00:06.0,-0.002969742,-0.009664536,0.0024662020000000002,0
00:06.0,-0.002958298,-0.009653090999999999,0.002443314,0
00:06.0,-0.002958298,-0.009653090999999999,0.002437592,0
00:06.0,-0.002969742,-0.009664536,0.00246048,0
00:06.0,-0.00296402,-0.009658813,0.00246048,0
00:06.0,-0.002958298,-0.009653090999999999,0.002437592,0
00:06.0,-0.0029525759999999997,-0.009664536,0.00243187,0
00:06.0,-0.002895355,-0.009658813,0.00243187,0
00:06.0,-0.002941132,-0.009658813,0.002437592,0
00:06.1,-0.002975464,-0.009658813,0.002426147,0
00:06.1,-0.00299263,-0.009664536,0.002397537,0
00:06.1,-0.002969742,-0.009658813,0.002454758,0
00:06.1,-0.0029525759999999997,-0.009653090999999999,0.002454758,0
00:06.1,-0.002969742,-0.009647369,0.002454758,0
00:06.1,-0.002969742,-0.009658813,0.00246048,0
00:06.1,-0.002969742,-0.009664536,0.00246048,0
00:06.1,-0.002975464,-0.009670258000000001,0.002443314,0
00:06.1,-0.002941132,-0.009670258000000001,0.002403259,0
00:06.1,-0.002895355,-0.009658813,0.0022716520000000003,0
00:06.1,-0.002969742,-0.009647369,0.002403259,0
00:06.1,-0.002969742,-0.009647369,0.0025177,0
00:06.1,-0.00296402,-0.009653090999999999,0.00246048,0
00:06.1,-0.002975464,-0.009664536,0.0024833679999999997,0
00:06.1,-0.002986908,-0.009664536,0.002454758,0
00:06.1,-0.002975464,-0.009670258000000001,0.002449036,0
00:06.1,-0.002969742,-0.009658813,0.00243187,0
00:06.1,-0.002969742,-0.009658813,0.002437592,0
00:06.1,-0.002958298,-0.009653090999999999,0.002443314,0
00:06.1,-0.002946854,-0.009658813,0.002397537,0
00:06.1,-0.002901077,-0.009653090999999999,0.002311707,0
00:06.1,-0.002918243,-0.009658813,0.002334595,0
00:06.1,-0.002969742,-0.009670258000000001,0.0025177,0
00:06.1,-0.002975464,-0.009670258000000001,0.002506256,0
00:06.1,-0.002998352,-0.009664536,0.0024833679999999997,0
00:06.2,-0.00299263,-0.009664536,0.0024662020000000002,0
00:06.2,-0.002975464,-0.009647369,0.002437592,0
00:06.2,-0.0029525759999999997,-0.009641647,0.002426147,0
00:06.2,-0.00296402,-0.009658813,0.002437592,0
00:06.2,-0.002969742,-0.009670258000000001,0.00243187,0
00:06.2,-0.0029525759999999997,-0.009664536,0.002391815,0
00:06.2,-0.002923965,-0.009664536,0.0023689270000000003,0
00:06.2,-0.00296402,-0.009658813,0.002397537,0
00:06.2,-0.002981186,-0.009641647,0.00246048,0
00:06.2,-0.002975464,-0.009653090999999999,0.00246048,0
00:06.2,-0.002969742,-0.009670258000000001,0.002426147,0
00:06.2,-0.002958298,-0.009664536,0.002408981,0
00:06.2,-0.0029525759999999997,-0.009653090999999999,0.002437592,0
00:06.2,-0.0029525759999999997,-0.009658813,0.002426147,0
00:06.2,-0.002958298,-0.009664536,0.002408981,0
00:06.2,-0.0029525759999999997,-0.009670258000000001,0.00246048,0
00:06.2,-0.0029525759999999997,-0.009653090999999999,0.002414703,0
00:06.2,-0.002941132,-0.009658813,0.002374649,0
00:06.2,-0.002981186,-0.009647369,0.002420425,0
00:06.2,-0.002975464,-0.009653090999999999,0.0024662020000000002,0
00:06.2,-0.00296402,-0.009664536,0.00248909,0
00:06.2,-0.002969742,-0.009653090999999999,0.002449036,0
00:06.2,-0.002969742,-0.009658813,0.002426147,0
00:06.2,-0.002958298,-0.009653090999999999,0.00243187,0
00:06.2,-0.002958298,-0.009653090999999999,0.002408981,0
00:06.3,-0.002941132,-0.009658813,0.002380371,0
00:06.3,-0.002923965,-0.009653090999999999,0.002374649,0
00:06.3,-0.002958298,-0.009653090999999999,0.002408981,0
00:06.3,-0.002986908,-0.009658813,0.002414703,0
00:06.3,-0.002969742,-0.009658813,0.0024662020000000002,0
00:06.3,-0.00296402,-0.009670258000000001,0.002449036,0
00:06.3,-0.00296402,-0.009658813,0.00243187,0
00:06.3,-0.002946854,-0.009653090999999999,0.002403259,0
00:06.3,-0.002986908,-0.009658813,0.002397537,0
00:06.3,-0.00296402,-0.009664536,0.002443314,0
00:06.3,-0.002946854,-0.009664536,0.002408981,0
00:06.3,-0.002958298,-0.009670258000000001,0.0023860929999999997,0
00:06.3,-0.0029525759999999997,-0.009664536,0.002403259,0
00:06.3,-0.002975464,-0.009664536,0.00243187,0
00:06.3,-0.002969742,-0.009653090999999999,0.002408981,0
00:06.3,-0.00296402,-0.009647369,0.002420425,0
00:06.3,-0.002958298,-0.009647369,0.002391815,0
00:06.3,-0.002969742,-0.009653090999999999,0.002426147,0
00:06.3,-0.0029525759999999997,-0.009664536,0.002443314,0
00:06.3,-0.002958298,-0.00967598,0.002454758,0
00:06.3,-0.00296402,-0.009670258000000001,0.002403259,0
00:06.3,-0.002986908,-0.009664536,0.002391815,0
00:06.3,-0.002958298,-0.009641647,0.002403259,0
00:06.3,-0.002958298,-0.009653090999999999,0.002414703,0
00:06.3,-0.0029525759999999997,-0.009658813,0.002403259,0
00:06.4,-0.0029525759999999997,-0.009653090999999999,0.002443314,0
00:06.4,-0.002969742,-0.009658813,0.002426147,0
00:06.4,-0.002969742,-0.009658813,0.0023860929999999997,0
00:06.4,-0.00296402,-0.009664536,0.002403259,0
00:06.4,-0.002969742,-0.00967598,0.002426147,0
00:06.4,-0.002958298,-0.009670258000000001,0.002408981,0
00:06.4,-0.00296402,-0.009653090999999999,0.00243187,0
00:06.4,-0.00296402,-0.009658813,0.002449036,0
00:06.4,-0.00293541,-0.009653090999999999,0.002397537,0
00:06.4,-0.0029525759999999997,-0.009647369,0.002351761,0
00:06.4,-0.002981186,-0.009670258000000001,0.00243187,0
00:06.4,-0.002969742,-0.009653090999999999,0.002437592,0
00:06.4,-0.00293541,-0.009641647,0.002363205,0
00:06.4,-0.002941132,-0.009653090999999999,0.002397537,0
00:06.4,-0.00296402,-0.009653090999999999,0.002426147,0
00:06.4,-0.00296402,-0.00967598,0.002426147,0
00:06.4,-0.002986908,-0.009681702,0.002443314,0
00:06.4,-0.002986908,-0.009658813,0.002426147,0
00:06.4,-0.00293541,-0.009647369,0.002391815,0
00:06.4,-0.002946854,-0.009653090999999999,0.002391815,0
00:06.4,-0.00296402,-0.009664536,0.002374649,0
00:06.4,-0.00296402,-0.009658813,0.002408981,0
00:06.4,-0.00296402,-0.009664536,0.002437592,0
00:06.4,-0.002941132,-0.009670258000000001,0.002437592,0
00:06.4,-0.002969742,-0.009670258000000001,0.002374649,0
00:06.5,-0.002981186,-0.009658813,0.002426147,0
00:06.5,-0.002969742,-0.009658813,0.002403259,0
00:06.5,-0.002969742,-0.009670258000000001,0.002408981,0
00:06.5,-0.002981186,-0.009664536,0.002426147,0
00:06.5,-0.002958298,-0.009681702,0.00243187,0
00:06.5,-0.002912521,-0.009681702,0.002408981,0
00:06.5,-0.0029525759999999997,-0.009653090999999999,0.002374649,0
00:06.5,-0.002975464,-0.009641647,0.002391815,0
00:06.5,-0.002969742,-0.009658813,0.002414703,0
00:06.5,-0.002981186,-0.009664536,0.002408981,0
00:06.5,-0.002981186,-0.009670258000000001,0.002391815,0
00:06.5,-0.002981186,-0.009670258000000001,0.002408981,0
00:06.5,-0.002941132,-0.009664536,0.002391815,0
00:06.5,-0.0029525759999999997,-0.009653090999999999,0.002363205,0
00:06.5,-0.002986908,-0.009670258000000001,0.002380371,0
00:06.5,-0.002981186,-0.009664536,0.002403259,0
00:06.5,-0.002981186,-0.009653090999999999,0.00243187,0
00:06.5,-0.00296402,-0.009658813,0.002437592,0
00:06.5,-0.002958298,-0.009664536,0.002403259,0
00:06.5,-0.00296402,-0.009664536,0.002363205,0
00:06.5,-0.002969742,-0.009664536,0.002437592,0
00:06.5,-0.002969742,-0.009670258000000001,0.002403259,0
00:06.5,-0.002958298,-0.009670258000000001,0.002414703,0
00:06.5,-0.00293541,-0.00967598,0.002403259,0
00:06.5,-0.002941132,-0.009658813,0.002414703,0
00:06.6,-0.002969742,-0.009647369,0.002391815,0
00:06.6,-0.002986908,-0.009647369,0.002420425,0
00:06.6,-0.002981186,-0.009664536,0.002408981,0
00:06.6,-0.002969742,-0.009653090999999999,0.002403259,0
00:06.6,-0.002975464,-0.009658813,0.002420425,0
00:06.6,-0.002981186,-0.009670258000000001,0.002420425,0
00:06.6,-0.002969742,-0.00967598,0.002391815,0
00:06.6,-0.002958298,-0.009664536,0.002380371,0
00:06.6,-0.002975464,-0.009653090999999999,0.002374649,0
00:06.6,-0.00293541,-0.009653090999999999,0.002380371,0
00:06.6,-0.0029296879999999997,-0.009641647,0.002357483,0
00:06.6,-0.002998352,-0.009664536,0.002363205,0
00:06.6,-0.00296402,-0.009658813,0.002437592,0
00:06.6,-0.002958298,-0.009658813,0.002391815,0
00:06.6,-0.002969742,-0.009664536,0.002391815,0
00:06.6,-0.002986908,-0.009664536,0.002449036,0
00:06.6,-0.002975464,-0.009681702,0.002426147,0
00:06.6,-0.002958298,-0.009687424,0.002414703,0
00:06.6,-0.002941132,-0.009653090999999999,0.002391815,0
00:06.6,-0.002986908,-0.009641647,0.002408981,0
00:06.6,-0.00296402,-0.009658813,0.002403259,0
00:06.6,-0.002986908,-0.009670258000000001,0.002380371,0
00:06.6,-0.002981186,-0.009664536,0.002420425,0
00:06.6,-0.002969742,-0.009664536,0.002408981,0
00:06.6,-0.002975464,-0.009670258000000001,0.0023860929999999997,0
00:06.7,-0.002969742,-0.009687424,0.002380371,0
00:06.7,-0.00296402,-0.009664536,0.0023860929999999997,0
00:06.7,-0.002969742,-0.009664536,0.002420425,0
00:06.7,-0.0029525759999999997,-0.009658813,0.002408981,0
00:06.7,-0.002969742,-0.009653090999999999,0.002363205,0
00:06.7,-0.002969742,-0.009653090999999999,0.002391815,0
00:06.7,-0.002958298,-0.009658813,0.002397537,0
00:06.7,-0.002958298,-0.009670258000000001,0.002403259,0
00:06.7,-0.002975464,-0.00967598,0.002414703,0
00:06.7,-0.002986908,-0.009658813,0.002363205,0
00:06.7,-0.002969742,-0.009658813,0.002374649,0
00:06.7,-0.002969742,-0.009658813,0.0023860929999999997,0
00:06.7,-0.002981186,-0.009658813,0.002420425,0
00:06.7,-0.002969742,-0.009670258000000001,0.002426147,0
00:06.7,-0.002941132,-0.009658813,0.002391815,0
00:06.7,-0.0029525759999999997,-0.009653090999999999,0.002391815,0
00:06.7,-0.002958298,-0.009664536,0.0023689270000000003,0
00:06.7,-0.002981186,-0.009670258000000001,0.002408981,0
00:06.7,-0.002969742,-0.009664536,0.0023860929999999997,0
00:06.7,-0.002981186,-0.009664536,0.002391815,0
00:06.7,-0.00299263,-0.009658813,0.002420425,0
00:06.7,-0.002969742,-0.009681702,0.0023860929999999997,0
00:06.7,-0.0029525759999999997,-0.009658813,0.002363205,0
00:06.7,-0.002946854,-0.009658813,0.002414703,0
00:06.7,-0.002975464,-0.009664536,0.002414703,0
00:06.8,-0.002986908,-0.009681702,0.002426147,0
00:06.8,-0.00299263,-0.00967598,0.002414703,0
00:06.8,-0.002986908,-0.009664536,0.002397537,0
00:06.8,-0.00296402,-0.009664536,0.002380371,0
00:06.8,-0.0029525759999999997,-0.009664536,0.002403259,0
00:06.8,-0.002975464,-0.009670258000000001,0.002334595,0
00:06.8,-0.002969742,-0.009670258000000001,0.002340317,0
00:06.8,-0.002958298,-0.009664536,0.002437592,0
00:06.8,-0.002975464,-0.009670258000000001,0.00243187,0
00:06.8,-0.0029296879999999997,-0.009670258000000001,0.002414703,0
00:06.8,-0.0029296879999999997,-0.009670258000000001,0.002357483,0
00:06.8,-0.002975464,-0.009670258000000001,0.002340317,0
00:06.8,-0.002981186,-0.009664536,0.002408981,0
00:06.8,-0.00299263,-0.009687424,0.002443314,0
00:06.8,-0.002986908,-0.00967598,0.002420425,0
00:06.8,-0.002981186,-0.009658813,0.002391815,0
00:06.8,-0.002969742,-0.009664536,0.002374649,0
00:06.8,-0.002946854,-0.009670258000000001,0.002397537,0
00:06.8,-0.0029525759999999997,-0.009658813,0.002408981,0
00:06.8,-0.00299263,-0.009687424,0.002363205,0
00:06.8,-0.00299263,-0.00967598,0.002391815,0
00:06.8,-0.00296402,-0.009658813,0.002408981,0
00:06.8,-0.002969742,-0.009670258000000001,0.002403259,0
00:06.8,-0.002969742,-0.009681702,0.002414703,0
00:06.8,-0.002969742,-0.009681702,0.002397537,0
00:06.9,-0.002969742,-0.00967598,0.002391815,0
00:06.9,-0.002941132,-0.009681702,0.002391815,0
00:06.9,-0.00296402,-0.009681702,0.0023689270000000003,0
00:06.9,-0.002969742,-0.00967598,0.0023860929999999997,0
00:06.9,-0.00293541,-0.009664536,0.002357483,0
00:06.9,-0.002958298,-0.009670258000000001,0.002225876,0
00:06.9,-0.002986908,-0.00967598,0.002391815,0
00:06.9,-0.00299263,-0.00967598,0.002506256,0
00:06.9,-0.00299263,-0.00967598,0.002437592,0
00:06.9,-0.002981186,-0.009670258000000001,0.002414703,0
00:06.9,-0.002958298,-0.00967598,0.002408981,0
00:06.9,-0.002946854,-0.009681702,0.002397537,0
00:06.9,-0.002958298,-0.009670258000000001,0.002380371,0
00:06.9,-0.00299263,-0.009670258000000001,0.0023860929999999997,0
00:06.9,-0.00299263,-0.009687424,0.002408981,0
00:06.9,-0.002975464,-0.009681702,0.002363205,0
00:06.9,-0.002969742,-0.00967598,0.0023689270000000003,0
00:06.9,-0.002958298,-0.009664536,0.002408981,0
00:06.9,-0.002946854,-0.00967598,0.002391815,0
00:06.9,-0.00296402,-0.009687424,0.002397537,0
00:06.9,-0.00296402,-0.009681702,0.0023689270000000003,0
00:06.9,-0.002946854,-0.009670258000000001,0.002391815,0
00:06.9,-0.002958298,-0.00967598,0.002391815,0
00:06.9,-0.002975464,-0.009693146,0.002374649,0
00:06.9,-0.002998352,-0.009670258000000001,0.002380371,0
00:07.0,-0.002986908,-0.009658813,0.002380371,0
00:07.0,-0.002975464,-0.009670258000000001,0.002391815,0
00:07.0,-0.002958298,-0.009670258000000001,0.002374649,0
00:07.0,-0.0029525759999999997,-0.009664536,0.002340317,0
00:07.0,-0.002981186,-0.009681702,0.002426147,0
00:07.0,-0.002981186,-0.009670258000000001,0.002414703,0
00:07.0,-0.002975464,-0.009664536,0.002403259,0
00:07.0,-0.002958298,-0.009670258000000001,0.0023689270000000003,0
00:07.0,-0.002975464,-0.009693146,0.002363205,0
00:07.0,-0.002975464,-0.009698868000000001,0.002397537,0
00:07.0,-0.00296402,-0.009670258000000001,0.002414703,0
00:07.0,-0.002986908,-0.009670258000000001,0.002397537,0
0:00:07,-0.00296402,-0.009681702,0.002380371,0
00:07.0,-0.002969742,-0.009681702,0.002374649,0
00:07.0,-0.002946854,-0.009693146,0.0023860929999999997,0
00:07.0,-0.002969742,-0.009687424,0.002374649,0
00:07.0,-0.002975464,-0.009687424,0.002374649,0
00:07.0,-0.0029525759999999997,-0.009647369,0.002374649,0
00:07.0,-0.002969742,-0.009653090999999999,0.002380371,0
00:07.0,-0.00299263,-0.009670258000000001,0.002374649,0
00:07.0,-0.00296402,-0.009670258000000001,0.002397537,0
00:07.0,-0.002969742,-0.009664536,0.0023860929999999997,0
00:07.0,-0.002981186,-0.009670258000000001,0.002357483,0
00:07.0,-0.002981186,-0.009670258000000001,0.002340317,0
00:07.0,-0.002975464,-0.009687424,0.002403259,0
00:07.1,-0.002975464,-0.00967598,0.002420425,0
00:07.1,-0.002975464,-0.00967598,0.0023860929999999997,0
00:07.1,-0.00296402,-0.009670258000000001,0.002346039,0
00:07.1,-0.002958298,-0.009670258000000001,0.002340317,0
00:07.1,-0.002986908,-0.009681702,0.002408981,0
00:07.1,-0.002958298,-0.00967598,0.002408981,0
00:07.1,-0.002958298,-0.009681702,0.002374649,0
00:07.1,-0.002981186,-0.009687424,0.002374649,0
00:07.1,-0.002975464,-0.009670258000000001,0.0023689270000000003,0
00:07.1,-0.002986908,-0.009681702,0.002397537,0
00:07.1,-0.0029525759999999997,-0.009670258000000001,0.0023689270000000003,0
00:07.1,-0.0029525759999999997,-0.009670258000000001,0.002374649,0
00:07.1,-0.002946854,-0.00967598,0.002414703,0
00:07.1,-0.002986908,-0.009681702,0.0023860929999999997,0
00:07.1,-0.002986908,-0.009693146,0.002380371,0
00:07.1,-0.002986908,-0.009658813,0.0023860929999999997,0
00:07.1,-0.002986908,-0.009670258000000001,0.002408981,0
00:07.1,-0.002975464,-0.009670258000000001,0.002391815,0
00:07.1,-0.002969742,-0.009664536,0.002374649,0
00:07.1,-0.00296402,-0.009670258000000001,0.002363205,0
00:07.1,-0.002969742,-0.00967598,0.002363205,0
00:07.1,-0.002975464,-0.009681702,0.002397537,0
00:07.1,-0.002969742,-0.009681702,0.002397537,0
00:07.1,-0.00296402,-0.009670258000000001,0.0023860929999999997,0
00:07.1,-0.00296402,-0.009670258000000001,0.002363205,0
00:07.2,-0.00296402,-0.00967598,0.002374649,0
00:07.2,-0.002969742,-0.00967598,0.002334595,0
00:07.2,-0.002998352,-0.009681702,0.002300262,0
00:07.2,-0.002969742,-0.009681702,0.002357483,0
00:07.2,-0.002958298,-0.009681702,0.002374649,0
00:07.2,-0.002981186,-0.009681702,0.002426147,0
00:07.2,-0.00296402,-0.009664536,0.00243187,0
00:07.2,-0.002941132,-0.009664536,0.002374649,0
00:07.2,-0.002969742,-0.00967598,0.0023860929999999997,0
00:07.2,-0.0029296879999999997,-0.009681702,0.0023860929999999997,0
00:07.2,-0.00299263,-0.009698868000000001,0.002391815,0
00:07.2,-0.003009796,-0.009681702,0.002408981,0
00:07.2,-0.002986908,-0.009658813,0.002391815,0
00:07.2,-0.002975464,-0.009670258000000001,0.002380371,0
00:07.2,-0.002975464,-0.009681702,0.002374649,0
00:07.2,-0.00296402,-0.009687424,0.002357483,0
00:07.2,-0.00296402,-0.00967598,0.002363205,0
00:07.2,-0.002975464,-0.009670258000000001,0.002363205,0
00:07.2,-0.002958298,-0.009670258000000001,0.002403259,0
00:07.2,-0.002981186,-0.009658813,0.002380371,0
00:07.2,-0.002975464,-0.009664536,0.002351761,0
00:07.2,-0.002975464,-0.009681702,0.002374649,0
00:07.2,-0.00296402,-0.009681702,0.0023689270000000003,0
00:07.2,-0.002969742,-0.00967598,0.0023689270000000003,0
00:07.2,-0.002969742,-0.00967598,0.002380371,0
00:07.3,-0.002958298,-0.009670258000000001,0.002380371,0
00:07.3,-0.002969742,-0.009681702,0.002340317,0
00:07.3,-0.002981186,-0.009693146,0.002305984,0
00:07.3,-0.002946854,-0.00967598,0.002363205,0
00:07.3,-0.00296402,-0.00967598,0.002408981,0
00:07.3,-0.00299263,-0.009681702,0.002414703,0
00:07.3,-0.00299263,-0.009681702,0.002380371,0
00:07.3,-0.0029525759999999997,-0.009693146,0.002346039,0
00:07.3,-0.002986908,-0.009693146,0.0023689270000000003,0
00:07.3,-0.002981186,-0.009693146,0.002403259,0
00:07.3,-0.002975464,-0.009681702,0.002397537,0
00:07.3,-0.002975464,-0.009664536,0.0023689270000000003,0
00:07.3,-0.00299263,-0.009670258000000001,0.002357483,0
00:07.3,-0.00296402,-0.009681702,0.002374649,0
00:07.3,-0.002969742,-0.009687424,0.002363205,0
00:07.3,-0.002986908,-0.009681702,0.002334595,0
00:07.3,-0.002975464,-0.00967598,0.002340317,0
00:07.3,-0.002975464,-0.00967598,0.002334595,0
00:07.3,-0.002981186,-0.00967598,0.002403259,0
00:07.3,-0.002981186,-0.00967598,0.0023860929999999997,0
00:07.3,-0.002969742,-0.009681702,0.002334595,0
00:07.3,-0.002969742,-0.009681702,0.002351761,0
00:07.3,-0.002975464,-0.009687424,0.0023860929999999997,0
00:07.3,-0.002958298,-0.009681702,0.0023860929999999997,0
00:07.3,-0.002969742,-0.00967598,0.002374649,0
00:07.4,-0.00299263,-0.009698868000000001,0.002351761,0
00:07.4,-0.002981186,-0.009698868000000001,0.002334595,0
00:07.4,-0.0029525759999999997,-0.009681702,0.002351761,0
00:07.4,-0.002969742,-0.009681702,0.002323151,0
00:07.4,-0.002986908,-0.009670258000000001,0.002351761,0
00:07.4,-0.00299263,-0.00967598,0.002414703,0
00:07.4,-0.00299263,-0.009687424,0.0023860929999999997,0
00:07.4,-0.00296402,-0.009693146,0.002380371,0
00:07.4,-0.002958298,-0.009687424,0.0023689270000000003,0
00:07.4,-0.002998352,-0.00967598,0.002328873,0
00:07.4,-0.002986908,-0.00967598,0.002334595,0
00:07.4,-0.002946854,-0.009693146,0.002374649,0
00:07.4,-0.00293541,-0.009687424,0.002311707,0
00:07.4,-0.002981186,-0.009670258000000001,0.002346039,0
00:07.4,-0.002998352,-0.009681702,0.002397537,0
00:07.4,-0.0030040740000000002,-0.009681702,0.002397537,0
00:07.4,-0.00299263,-0.009693146,0.002380371,0
00:07.4,-0.002981186,-0.009687424,0.002351761,0
00:07.4,-0.002981186,-0.009687424,0.002351761,0
00:07.4,-0.002975464,-0.009681702,0.0023689270000000003,0
00:07.4,-0.002941132,-0.009681702,0.0023689270000000003,0
00:07.4,-0.002969742,-0.00967598,0.002305984,0
00:07.4,-0.002998352,-0.009681702,0.0023689270000000003,0
00:07.4,-0.002986908,-0.009681702,0.002374649,0
00:07.4,-0.00296402,-0.009687424,0.002357483,0
00:07.5,-0.002975464,-0.009681702,0.002328873,0
00:07.5,-0.002998352,-0.009693146,0.002357483,0
00:07.5,-0.00299263,-0.009698868000000001,0.002391815,0
00:07.5,-0.002981186,-0.009693146,0.002357483,0
00:07.5,-0.002986908,-0.009681702,0.0023689270000000003,0
00:07.5,-0.00296402,-0.009681702,0.0023689270000000003,0
00:07.5,-0.002969742,-0.009681702,0.002363205,0
00:07.5,-0.002975464,-0.009687424,0.002351761,0
00:07.5,-0.00296402,-0.009693146,0.002357483,0
00:07.5,-0.002975464,-0.009693146,0.002374649,0
00:07.5,-0.00299263,-0.009681702,0.002374649,0
00:07.5,-0.002998352,-0.00967598,0.0023689270000000003,0
00:07.5,-0.002975464,-0.009687424,0.0023689270000000003,0
00:07.5,-0.00296402,-0.009698868000000001,0.002334595,0
00:07.5,-0.002918243,-0.009693146,0.002305984,0
00:07.5,-0.002986908,-0.00967598,0.002334595,0
00:07.5,-0.002986908,-0.00967598,0.002397537,0
00:07.5,-0.002981186,-0.009687424,0.002403259,0
00:07.5,-0.00299263,-0.009687424,0.0023860929999999997,0
00:07.5,-0.002981186,-0.009693146,0.002340317,0
00:07.5,-0.002986908,-0.009698868000000001,0.0023174289999999998,0
00:07.5,-0.002986908,-0.009698868000000001,0.002334595,0
00:07.5,-0.002969742,-0.009681702,0.002346039,0
00:07.5,-0.002986908,-0.009693146,0.002403259,0
00:07.5,-0.002975464,-0.009693146,0.002380371,0
00:07.6,-0.002986908,-0.009693146,0.002391815,0
00:07.6,-0.002986908,-0.009698868000000001,0.0023689270000000003,0
00:07.6,-0.002981186,-0.009698868000000001,0.002346039,0
00:07.6,-0.002946854,-0.00970459,0.002283096,0
00:07.6,-0.0029067990000000003,-0.009698868000000001,0.002254486,0
00:07.6,-0.00302124,-0.00967598,0.002414703,0
00:07.6,-0.003015518,-0.009681702,0.002420425,0
00:07.6,-0.00299263,-0.009681702,0.002380371,0
00:07.6,-0.002975464,-0.009681702,0.0023689270000000003,0
00:07.6,-0.00299263,-0.009693146,0.002357483,0
00:07.6,-0.002986908,-0.009687424,0.002363205,0
00:07.6,-0.002981186,-0.009693146,0.002363205,0
00:07.6,-0.002986908,-0.009698868000000001,0.002357483,0
00:07.6,-0.002986908,-0.009710311999999999,0.002357483,0
00:07.6,-0.002975464,-0.00970459,0.002346039,0
00:07.6,-0.00293541,-0.009664536,0.0022888179999999998,0
00:07.6,-0.002946854,-0.009670258000000001,0.0022716520000000003,0
00:07.6,-0.002986908,-0.009693146,0.002403259,0
00:07.6,-0.002998352,-0.009693146,0.002380371,0
00:07.6,-0.003009796,-0.009693146,0.0023174289999999998,0
00:07.6,-0.00299263,-0.009698868000000001,0.002374649,0
00:07.6,-0.002981186,-0.009698868000000001,0.002397537,0
00:07.6,-0.00299263,-0.009698868000000001,0.002363205,0
00:07.6,-0.002981186,-0.009698868000000001,0.002351761,0
00:07.6,-0.002941132,-0.009698868000000001,0.0023174289999999998,0
00:07.7,-0.0029525759999999997,-0.009710311999999999,0.00229454,0
00:07.7,-0.003015518,-0.00970459,0.002351761,0
00:07.7,-0.00299263,-0.009687424,0.002357483,0
00:07.7,-0.002975464,-0.009681702,0.002357483,0
00:07.7,-0.002998352,-0.009698868000000001,0.002380371,0
00:07.7,-0.00299263,-0.00970459,0.002374649,0
00:07.7,-0.002981186,-0.00967598,0.0023689270000000003,0
00:07.7,-0.002986908,-0.009687424,0.002363205,0
00:07.7,-0.002986908,-0.009687424,0.002346039,0
00:07.7,-0.002969742,-0.009681702,0.00229454,0
00:07.7,-0.0029525759999999997,-0.009670258000000001,0.002277374,0
00:07.7,-0.002986908,-0.009693146,0.0023689270000000003,0
00:07.7,-0.003009796,-0.009698868000000001,0.002363205,0
00:07.7,-0.002998352,-0.009687424,0.002380371,0
00:07.7,-0.002986908,-0.009687424,0.0023860929999999997,0
00:07.7,-0.002981186,-0.009693146,0.002374649,0
00:07.7,-0.002958298,-0.009693146,0.002340317,0
00:07.7,-0.002912521,-0.009693146,0.0022888179999999998,0
00:07.7,-0.002998352,-0.00970459,0.002328873,0
00:07.7,-0.00299263,-0.009681702,0.0023689270000000003,0
00:07.7,-0.002975464,-0.009693146,0.002363205,0
00:07.7,-0.002998352,-0.009698868000000001,0.002351761,0
00:07.7,-0.003015518,-0.009693146,0.002357483,0
00:07.7,-0.002981186,-0.009693146,0.002334595,0
00:07.7,-0.002975464,-0.009687424,0.00229454,0
00:07.8,-0.002986908,-0.009710311999999999,0.002305984,0
00:07.8,-0.00296402,-0.009716034,0.002334595,0
00:07.8,-0.00299263,-0.009687424,0.002346039,0
00:07.8,-0.003009796,-0.009687424,0.002363205,0
00:07.8,-0.00299263,-0.009693146,0.002374649,0
00:07.8,-0.00299263,-0.00970459,0.002346039,0
00:07.8,-0.00299263,-0.009710311999999999,0.0023689270000000003,0
00:07.8,-0.00299263,-0.00970459,0.0023689270000000003,0
00:07.8,-0.002975464,-0.009698868000000001,0.002346039,0
00:07.8,-0.00299263,-0.009698868000000001,0.002340317,0
00:07.8,-0.002981186,-0.009681702,0.002346039,0
00:07.8,-0.00296402,-0.009687424,0.002334595,0
00:07.8,-0.002969742,-0.009693146,0.002346039,0
00:07.8,-0.00299263,-0.009698868000000001,0.002346039,0
00:07.8,-0.00299263,-0.009698868000000001,0.002351761,0
00:07.8,-0.002998352,-0.009698868000000001,0.002328873,0
00:07.8,-0.002998352,-0.009693146,0.002340317,0
00:07.8,-0.002986908,-0.009698868000000001,0.002340317,0
00:07.8,-0.002969742,-0.009698868000000001,0.002323151,0
00:07.8,-0.0029525759999999997,-0.009693146,0.002254486,0
00:07.8,-0.002986908,-0.009693146,0.002334595,0
00:07.8,-0.002998352,-0.009693146,0.002403259,0
00:07.8,-0.003009796,-0.009698868000000001,0.002380371,0
00:07.8,-0.003009796,-0.009687424,0.002351761,0
00:07.8,-0.002998352,-0.009698868000000001,0.0022888179999999998,0
00:07.9,-0.00299263,-0.00970459,0.002305984,0
00:07.9,-0.002958298,-0.009687424,0.002346039,0
00:07.9,-0.002969742,-0.009693146,0.002374649,0
00:07.9,-0.002986908,-0.009681702,0.002374649,0
00:07.9,-0.0030040740000000002,-0.009693146,0.002357483,0
00:07.9,-0.0030040740000000002,-0.009693146,0.002357483,0
00:07.9,-0.002986908,-0.009698868000000001,0.002351761,0
00:07.9,-0.002975464,-0.009698868000000001,0.002346039,0
00:07.9,-0.002998352,-0.009693146,0.002346039,0
00:07.9,-0.00299263,-0.009693146,0.002346039,0
00:07.9,-0.002998352,-0.009693146,0.002334595,0
00:07.9,-0.002986908,-0.009693146,0.002340317,0
00:07.9,-0.002975464,-0.009693146,0.002334595,0
00:07.9,-0.002986908,-0.009698868000000001,0.002323151,0
00:07.9,-0.002986908,-0.009693146,0.002340317,0
00:07.9,-0.00299263,-0.009698868000000001,0.002311707,0
00:07.9,-0.00299263,-0.009687424,0.00226593,0
00:07.9,-0.002946854,-0.009687424,0.0022888179999999998,0
00:07.9,-0.0029525759999999997,-0.009693146,0.002363205,0
00:07.9,-0.00302124,-0.009693146,0.002334595,0
00:07.9,-0.003009796,-0.009698868000000001,0.0023174289999999998,0
00:07.9,-0.003009796,-0.009710311999999999,0.002397537,0
00:07.9,-0.0030040740000000002,-0.00970459,0.0023689270000000003,0
00:07.9,-0.002998352,-0.009716034,0.002311707,0
00:07.9,-0.002998352,-0.009716034,0.002328873,0
00:08.0,-0.002986908,-0.009687424,0.0023689270000000003,0
00:08.0,-0.00299263,-0.009698868000000001,0.002346039,0
00:08.0,-0.00299263,-0.009698868000000001,0.002351761,0
00:08.0,-0.002986908,-0.00970459,0.002357483,0
00:08.0,-0.00299263,-0.009710311999999999,0.002340317,0
00:08.0,-0.002998352,-0.009710311999999999,0.002346039,0
00:08.0,-0.00299263,-0.009687424,0.002340317,0
00:08.0,-0.002986908,-0.009670258000000001,0.002334595,0
00:08.0,-0.002986908,-0.009687424,0.002334595,0
00:08.0,-0.00299263,-0.009693146,0.002340317,0
00:08.0,-0.002986908,-0.009693146,0.002340317,0
00:08.0,-0.00299263,-0.00970459,0.002328873,0
0:00:08,-0.002986908,-0.00970459,0.002334595,0
00:08.0,-0.002981186,-0.009698868000000001,0.002323151,0
00:08.0,-0.002986908,-0.009698868000000001,0.0023174289999999998,0
00:08.0,-0.002986908,-0.009698868000000001,0.0023174289999999998,0
00:08.0,-0.002975464,-0.00970459,0.002328873,0
00:08.0,-0.002941132,-0.00970459,0.002323151,0
00:08.0,-0.00302124,-0.00970459,0.0022888179999999998,0
00:08.0,-0.0030040740000000002,-0.009693146,0.00229454,0
00:08.0,-0.002998352,-0.009698868000000001,0.002311707,0
00:08.0,-0.003015518,-0.00970459,0.002328873,0
00:08.0,-0.0030040740000000002,-0.00970459,0.002346039,0
00:08.0,-0.002981186,-0.009710311999999999,0.002334595,0
00:08.0,-0.003009796,-0.00970459,0.002334595,0
00:08.1,-0.002998352,-0.009693146,0.002328873,0
00:08.1,-0.00299263,-0.009710311999999999,0.002363205,0
00:08.1,-0.002969742,-0.00970459,0.002323151,0
00:08.1,-0.00299263,-0.009693146,0.002334595,0
00:08.1,-0.003015518,-0.009687424,0.002363205,0
00:08.1,-0.0030040740000000002,-0.009687424,0.002351761,0
00:08.1,-0.00299263,-0.009698868000000001,0.002340317,0
00:08.1,-0.002981186,-0.009716034,0.002328873,0
00:08.1,-0.00299263,-0.00970459,0.002323151,0
00:08.1,-0.00299263,-0.00970459,0.002334595,0
00:08.1,-0.003009796,-0.00970459,0.002323151,0
00:08.1,-0.0030040740000000002,-0.009693146,0.002311707,0
00:08.1,-0.002986908,-0.009698868000000001,0.002323151,0
00:08.1,-0.00293541,-0.009687424,0.002300262,0
00:08.1,-0.00299263,-0.009716034,0.002323151,0
00:08.1,-0.0030384059999999996,-0.009716034,0.002305984,0
00:08.1,-0.0030040740000000002,-0.009710311999999999,0.00229454,0
00:08.1,-0.002998352,-0.009693146,0.002340317,0
00:08.1,-0.00299263,-0.00970459,0.002323151,0
00:08.1,-0.002998352,-0.009698868000000001,0.002346039,0
00:08.1,-0.002981186,-0.009693146,0.0023174289999999998,0
00:08.1,-0.002981186,-0.00970459,0.00226593,0
00:08.1,-0.002986908,-0.009693146,0.002305984,0
00:08.1,-0.002981186,-0.009698868000000001,0.002328873,0
00:08.1,-0.00299263,-0.009698868000000001,0.002391815,0
00:08.2,-0.00299263,-0.009698868000000001,0.002334595,0
00:08.2,-0.002986908,-0.009698868000000001,0.002277374,0
00:08.2,-0.0030040740000000002,-0.009716034,0.002328873,0
00:08.2,-0.003009796,-0.009687424,0.0023860929999999997,0
00:08.2,-0.0030040740000000002,-0.009681702,0.002357483,0
00:08.2,-0.003009796,-0.009693146,0.002346039,0
00:08.2,-0.0030040740000000002,-0.00970459,0.002340317,0
00:08.2,-0.002998352,-0.009710311999999999,0.002323151,0
00:08.2,-0.00299263,-0.009710311999999999,0.002305984,0
00:08.2,-0.002981186,-0.009687424,0.002328873,0
00:08.2,-0.00299263,-0.009693146,0.002346039,0
00:08.2,-0.00299263,-0.009693146,0.002323151,0
00:08.2,-0.002981186,-0.009698868000000001,0.002300262,0
00:08.2,-0.002981186,-0.009698868000000001,0.0023174289999999998,0
00:08.2,-0.002998352,-0.00970459,0.002340317,0
00:08.2,-0.003009796,-0.009698868000000001,0.002300262,0
00:08.2,-0.002998352,-0.00970459,0.002248764,0
00:08.2,-0.00299263,-0.009733200000000001,0.002328873,0
00:08.2,-0.00299263,-0.009727478000000001,0.002351761,0
00:08.2,-0.002975464,-0.009693146,0.002340317,0
00:08.2,-0.0030040740000000002,-0.009670258000000001,0.002311707,0
00:08.2,-0.0030040740000000002,-0.009698868000000001,0.00229454,0
00:08.2,-0.002981186,-0.009721756,0.002323151,0
00:08.2,-0.00296402,-0.009710311999999999,0.002305984,0
00:08.2,-0.003015518,-0.009710311999999999,0.002328873,0
00:08.3,-0.003009796,-0.00970459,0.002374649,0
00:08.3,-0.003015518,-0.009710311999999999,0.002351761,0
00:08.3,-0.003009796,-0.00970459,0.002340317,0
00:08.3,-0.00299263,-0.009698868000000001,0.002328873,0
00:08.3,-0.002986908,-0.009693146,0.002323151,0
00:08.3,-0.002981186,-0.009698868000000001,0.002305984,0
00:08.3,-0.002981186,-0.00970459,0.002334595,0
00:08.3,-0.002998352,-0.009716034,0.002346039,0
00:08.3,-0.003009796,-0.009710311999999999,0.002328873,0
00:08.3,-0.002998352,-0.009716034,0.002334595,0
00:08.3,-0.002998352,-0.009710311999999999,0.0023174289999999998,0
00:08.3,-0.0030040740000000002,-0.00970459,0.0022888179999999998,0
00:08.3,-0.002998352,-0.00970459,0.002305984,0
00:08.3,-0.002998352,-0.009698868000000001,0.002323151,0
00:08.3,-0.00299263,-0.009698868000000001,0.002357483,0
00:08.3,-0.00299263,-0.009710311999999999,0.002340317,0
00:08.3,-0.002998352,-0.00970459,0.002334595,0
00:08.3,-0.00299263,-0.00970459,0.0022888179999999998,0
00:08.3,-0.002969742,-0.00970459,0.002311707,0
00:08.3,-0.003009796,-0.009710311999999999,0.0023174289999999998,0
00:08.3,-0.002998352,-0.009716034,0.002305984,0
00:08.3,-0.002981186,-0.009710311999999999,0.002300262,0
00:08.3,-0.002969742,-0.009710311999999999,0.002346039,0
00:08.3,-0.0030269620000000002,-0.009698868000000001,0.0023174289999999998,0
00:08.3,-0.002969742,-0.009693146,0.002283096,0
00:08.4,-0.002986908,-0.009710311999999999,0.0022888179999999998,0
00:08.4,-0.0030384059999999996,-0.009710311999999999,0.0023174289999999998,0
00:08.4,-0.0030040740000000002,-0.009687424,0.0023174289999999998,0
00:08.4,-0.0030040740000000002,-0.009698868000000001,0.002363205,0
00:08.4,-0.00302124,-0.009698868000000001,0.002357483,0
00:08.4,-0.003009796,-0.00970459,0.002328873,0
00:08.4,-0.0030040740000000002,-0.009716034,0.002305984,0
00:08.4,-0.002998352,-0.009710311999999999,0.0022716520000000003,0
00:08.4,-0.002998352,-0.00970459,0.002305984,0
00:08.4,-0.003009796,-0.009710311999999999,0.002363205,0
00:08.4,-0.0030040740000000002,-0.00970459,0.002340317,0
00:08.4,-0.0030040740000000002,-0.009698868000000001,0.0023174289999999998,0
00:08.4,-0.0030040740000000002,-0.009693146,0.002305984,0
00:08.4,-0.002998352,-0.009698868000000001,0.002311707,0
00:08.4,-0.0030040740000000002,-0.009710311999999999,0.0023174289999999998,0
00:08.4,-0.0030040740000000002,-0.009716034,0.002323151,0
00:08.4,-0.0030040740000000002,-0.00970459,0.002311707,0
00:08.4,-0.002986908,-0.009698868000000001,0.0023174289999999998,0
00:08.4,-0.00296402,-0.009687424,0.002277374,0
00:08.4,-0.002998352,-0.009693146,0.002243042,0
00:08.4,-0.0030269620000000002,-0.009710311999999999,0.0023174289999999998,0
00:08.4,-0.003015518,-0.009716034,0.0022888179999999998,0
00:08.4,-0.002981186,-0.009698868000000001,0.00229454,0
00:08.4,-0.002986908,-0.00970459,0.002311707,0
00:08.4,-0.0030040740000000002,-0.009727478000000001,0.002323151,0
00:08.5,-0.003015518,-0.009721756,0.002323151,0
00:08.5,-0.002981186,-0.009693146,0.002346039,0
00:08.5,-0.00302124,-0.009687424,0.002277374,0
00:08.5,-0.003015518,-0.009698868000000001,0.002305984,0
00:08.5,-0.003009796,-0.00970459,0.002311707,0
00:08.5,-0.002998352,-0.00970459,0.0023174289999999998,0
00:08.5,-0.002986908,-0.00970459,0.002311707,0
00:08.5,-0.0030040740000000002,-0.00970459,0.00229454,0
00:08.5,-0.003009796,-0.009710311999999999,0.0022716520000000003,0
00:08.5,-0.00302124,-0.009710311999999999,0.002311707,0
00:08.5,-0.00299263,-0.009716034,0.002334595,0
00:08.5,-0.003009796,-0.00970459,0.002300262,0
00:08.5,-0.003015518,-0.009693146,0.002283096,0
00:08.5,-0.003009796,-0.009693146,0.002305984,0
00:08.5,-0.002998352,-0.00970459,0.002277374,0
00:08.5,-0.00299263,-0.009698868000000001,0.002311707,0
00:08.5,-0.002998352,-0.009693146,0.002311707,0
00:08.5,-0.002998352,-0.00970459,0.002260208,0
00:08.5,-0.002981186,-0.00970459,0.0022716520000000003,0
00:08.5,-0.0030040740000000002,-0.009693146,0.0023174289999999998,0
00:08.5,-0.002986908,-0.009693146,0.002277374,0
00:08.5,-0.002986908,-0.009710311999999999,0.002323151,0
00:08.5,-0.003009796,-0.009721756,0.00229454,0
00:08.5,-0.003009796,-0.00970459,0.002254486,0
00:08.5,-0.0030326840000000003,-0.009698868000000001,0.002340317,0
00:08.6,-0.0030269620000000002,-0.009698868000000001,0.002283096,0
00:08.6,-0.002998352,-0.009698868000000001,0.002328873,0
00:08.6,-0.002981186,-0.00970459,0.002323151,0
00:08.6,-0.003015518,-0.009710311999999999,0.0023174289999999998,0
00:08.6,-0.0030269620000000002,-0.009710311999999999,0.002305984,0
00:08.6,-0.0030040740000000002,-0.009687424,0.002283096,0
00:08.6,-0.00299263,-0.009693146,0.0022716520000000003,0
00:08.6,-0.002998352,-0.009698868000000001,0.002305984,0
00:08.6,-0.0030040740000000002,-0.009710311999999999,0.00229454,0
00:08.6,-0.0030040740000000002,-0.009727478000000001,0.002300262,0
00:08.6,-0.0030040740000000002,-0.009733200000000001,0.00229454,0
00:08.6,-0.002998352,-0.00970459,0.00229454,0
00:08.6,-0.003015518,-0.009693146,0.0022716520000000003,0
00:08.6,-0.0030040740000000002,-0.009693146,0.002277374,0
00:08.6,-0.00299263,-0.00970459,0.002283096,0
00:08.6,-0.00299263,-0.009716034,0.002231598,0
00:08.6,-0.00302124,-0.009710311999999999,0.002277374,0
00:08.6,-0.003015518,-0.00970459,0.002323151,0
00:08.6,-0.0030040740000000002,-0.00970459,0.002311707,0
00:08.6,-0.002981186,-0.00970459,0.002305984,0
00:08.6,-0.002986908,-0.009693146,0.002300262,0
00:08.6,-0.0030441279999999997,-0.009698868000000001,0.002283096,0
00:08.6,-0.0030326840000000003,-0.009710311999999999,0.00226593,0
00:08.6,-0.003009796,-0.009710311999999999,0.00229454,0
00:08.6,-0.003009796,-0.00970459,0.00229454,0
00:08.7,-0.002998352,-0.009710311999999999,0.002277374,0
00:08.7,-0.0030040740000000002,-0.009710311999999999,0.00229454,0
00:08.7,-0.003015518,-0.00970459,0.002260208,0
00:08.7,-0.0030040740000000002,-0.009687424,0.002283096,0
00:08.7,-0.002975464,-0.00970459,0.002305984,0
00:08.7,-0.002998352,-0.00970459,0.002300262,0
00:08.7,-0.0030326840000000003,-0.009693146,0.002277374,0
00:08.7,-0.003015518,-0.009710311999999999,0.002283096,0
00:08.7,-0.003009796,-0.009710311999999999,0.002260208,0
00:08.7,-0.003015518,-0.009716034,0.002260208,0
00:08.7,-0.0030040740000000002,-0.00970459,0.002231598,0
00:08.7,-0.0030040740000000002,-0.009698868000000001,0.00226593,0
00:08.7,-0.0030040740000000002,-0.009721756,0.0022716520000000003,0
00:08.7,-0.002986908,-0.00970459,0.002283096,0
00:08.7,-0.00302124,-0.009698868000000001,0.0022888179999999998,0
00:08.7,-0.0030269620000000002,-0.00970459,0.0022888179999999998,0
00:08.7,-0.0030040740000000002,-0.00970459,0.002311707,0
00:08.7,-0.003015518,-0.00970459,0.002283096,0
00:08.7,-0.003015518,-0.009716034,0.0022716520000000003,0
00:08.7,-0.0030040740000000002,-0.009716034,0.002277374,0
00:08.7,-0.002981186,-0.00970459,0.002277374,0
00:08.7,-0.0030040740000000002,-0.009721756,0.0022716520000000003,0
00:08.7,-0.0030326840000000003,-0.009716034,0.002254486,0
00:08.7,-0.003015518,-0.00970459,0.002260208,0
00:08.7,-0.003009796,-0.00970459,0.002283096,0
00:08.8,-0.0030040740000000002,-0.00970459,0.00229454,0
00:08.8,-0.003009796,-0.009698868000000001,0.002277374,0
00:08.8,-0.003009796,-0.009710311999999999,0.002248764,0
00:08.8,-0.003015518,-0.009716034,0.00226593,0
00:08.8,-0.002969742,-0.00970459,0.0021972660000000002,0
00:08.8,-0.003009796,-0.00970459,0.00229454,0
00:08.8,-0.0030384059999999996,-0.009716034,0.002323151,0
00:08.8,-0.00299263,-0.009721756,0.002277374,0
00:08.8,-0.0030040740000000002,-0.009716034,0.00226593,0
00:08.8,-0.0030269620000000002,-0.009716034,0.0022888179999999998,0
00:08.8,-0.0030269620000000002,-0.009727478000000001,0.0022888179999999998,0
00:08.8,-0.002986908,-0.009721756,0.002248764,0
00:08.8,-0.003009796,-0.00970459,0.002254486,0
00:08.8,-0.0030040740000000002,-0.00970459,0.00223732,0
00:08.8,-0.003015518,-0.009710311999999999,0.002277374,0
00:08.8,-0.003015518,-0.009721756,0.00229454,0
00:08.8,-0.0030040740000000002,-0.009727478000000001,0.0022888179999999998,0
00:08.8,-0.00302124,-0.00970459,0.0022716520000000003,0
00:08.8,-0.003009796,-0.00970459,0.002283096,0
00:08.8,-0.003015518,-0.009710311999999999,0.00229454,0
00:08.8,-0.003009796,-0.00970459,0.00226593,0
00:08.8,-0.0030040740000000002,-0.009721756,0.002220154,0
00:08.8,-0.002998352,-0.009710311999999999,0.002254486,0
00:08.8,-0.003015518,-0.009716034,0.00229454,0
00:08.8,-0.0030269620000000002,-0.009716034,0.002283096,0
00:08.9,-0.003015518,-0.009716034,0.0022888179999999998,0
00:08.9,-0.0030040740000000002,-0.009727478000000001,0.002248764,0
00:08.9,-0.003009796,-0.009710311999999999,0.002243042,0
00:08.9,-0.00296402,-0.00970459,0.0022716520000000003,0
00:08.9,-0.003009796,-0.009710311999999999,0.00229454,0
00:08.9,-0.0030326840000000003,-0.009710311999999999,0.00229454,0
00:08.9,-0.0030269620000000002,-0.009716034,0.002283096,0
00:08.9,-0.0030269620000000002,-0.009721756,0.002243042,0
00:08.9,-0.00302124,-0.009727478000000001,0.002248764,0
00:08.9,-0.003015518,-0.009727478000000001,0.0022888179999999998,0
00:08.9,-0.0030040740000000002,-0.00970459,0.002283096,0
00:08.9,-0.003015518,-0.009710311999999999,0.002260208,0
00:08.9,-0.003015518,-0.009710311999999999,0.002243042,0
00:08.9,-0.002986908,-0.009716034,0.00220871,0
00:08.9,-0.003009796,-0.00970459,0.0022716520000000003,0
00:08.9,-0.0030326840000000003,-0.009716034,0.002305984,0
00:08.9,-0.00302124,-0.009721756,0.00226593,0
00:08.9,-0.00302124,-0.009721756,0.002254486,0
00:08.9,-0.003009796,-0.009738921999999999,0.002311707,0
00:08.9,-0.002986908,-0.009716034,0.0022888179999999998,0
00:08.9,-0.00302124,-0.00970459,0.002283096,0
00:08.9,-0.003009796,-0.00970459,0.00223732,0
