Elapsed_Time,EMG1,EMG2,EMG3,BioRadio Event,Unnamed: 5
00:00:00,-0.002929688,-0.009098053,0.004091263,0,
00:00.0,-0.002929688,-0.009098053,0.004091263,0,
00:00.0,-0.002929688,-0.009103775,0.004085541,0,
00:00.0,-0.00293541,-0.009109497,0.004085541,0,
00:00.0,-0.002929688,-0.009103775,0.004085541,0,
00:00.0,-0.002929688,-0.009109497,0.004091263,0,
00:00.0,-0.002929688,-0.009103775,0.004091263,0,
00:00.0,-0.002929688,-0.009103775,0.004085541,0,
00:00.0,-0.002929688,-0.009098053,0.004091263,0,
00:00.0,-0.002929688,-0.009092331,0.004085541,0,
00:00.0,-0.002929688,-0.009086609,0.004085541,0,
00:00.0,-0.002923965,-0.009092331,0.004091263,0,
00:00.0,-0.002929688,-0.009098053,0.004085541,0,
00:00.1,-0.002929688,-0.009103775,0.004085541,0,
00:00.1,-0.002929688,-0.009098053,0.004085541,0,
00:00.1,-0.002929688,-0.009092331,0.004085541,0,
00:00.1,-0.002929688,-0.009098053,0.004085541,0,
00:00.1,-0.002923965,-0.009092331,0.004085541,0,
00:00.1,-0.002929688,-0.009098053,0.004079819,0,
00:00.1,-0.002929688,-0.009103775,0.004079819,0,
00:00.1,-0.002929688,-0.009103775,0.004085541,0,
00:00.1,-0.002929688,-0.009103775,0.004091263,0,
00:00.1,-0.002929688,-0.009098053,0.004091263,0,
00:00.1,-0.002929688,-0.009098053,0.004085541,0,
00:00.1,-0.002929688,-0.009103775,0.004079819,0,
00:00.1,-0.002929688,-0.009103775,0.004079819,0,
00:00.1,-0.002929688,-0.009109497,0.004085541,0,
00:00.1,-0.002929688,-0.009098053,0.004091263,0,
00:00.1,-0.002929688,-0.009092331,0.004085541,0,
00:00.1,-0.002923965,-0.009086609,0.004079819,0,
00:00.1,-0.002929688,-0.009098053,0.004085541,0,
00:00.1,-0.002929688,-0.009109497,0.004085541,0,
00:00.1,-0.00293541,-0.009109497,0.004085541,0,
00:00.1,-0.002929688,-0.009098053,0.004079819,0,
00:00.1,-0.002929688,-0.009092331,0.004074097,0,
00:00.1,-0.002929688,-0.009086609,0.004079819,0,
00:00.1,-0.002929688,-0.009092331,0.004079819,0,
00:00.1,-0.002929688,-0.009098053,0.004079819,0,
00:00.2,-0.002929688,-0.009098053,0.004074097,0,
00:00.2,-0.002929688,-0.009098053,0.004068375,0,
00:00.2,-0.002929688,-0.009098053,0.004085541,0,
00:00.2,-0.002929688,-0.009103775,0.004079819,0,
00:00.2,-0.002929688,-0.009098053,0.004079819,0,
00:00.2,-0.002929688,-0.009098053,0.004079819,0,
00:00.2,-0.002929688,-0.009098053,0.004079819,0,
00:00.2,-0.002929688,-0.009098053,0.004079819,0,
00:00.2,-0.002929688,-0.009109497,0.004079819,0,
00:00.2,-0.00293541,-0.009115219,0.004079819,0,
00:00.2,-0.00293541,-0.009109497,0.004079819,0,
00:00.2,-0.002929688,-0.009092331,0.004074097,0,
00:00.2,-0.002929688,-0.009092331,0.004074097,0,
00:00.2,-0.002929688,-0.009103775,0.004079819,0,
00:00.2,-0.00293541,-0.009103775,0.004079819,0,
00:00.2,-0.00293541,-0.009098053,0.004074097,0,
00:00.2,-0.002929688,-0.009098053,0.004079819,0,
00:00.2,-0.002929688,-0.009098053,0.004074097,0,
00:00.2,-0.002929688,-0.009098053,0.004074097,0,
00:00.2,-0.00293541,-0.009103775,0.004079819,0,
00:00.2,-0.00293541,-0.009109497,0.004079819,0,
00:00.2,-0.002929688,-0.009103775,0.004079819,0,
00:00.2,-0.002929688,-0.009098053,0.004079819,0,
00:00.2,-0.002929688,-0.009109497,0.004079819,0,
00:00.2,-0.00293541,-0.009109497,0.004079819,0,
00:00.3,-0.00293541,-0.009098053,0.004074097,0,
00:00.3,-0.002929688,-0.009092331,0.004074097,0,
00:00.3,-0.002929688,-0.009092331,0.004079819,0,
00:00.3,-0.002929688,-0.009098053,0.004079819,0,
00:00.3,-0.002929688,-0.009098053,0.004079819,0,
00:00.3,-0.00293541,-0.009103775,0.004074097,0,
00:00.3,-0.00293541,-0.009115219,0.004074097,0,
00:00.3,-0.00293541,-0.009115219,0.004079819,0,
00:00.3,-0.00293541,-0.009098053,0.004074097,0,
00:00.3,-0.00293541,-0.009086609,0.004074097,0,
00:00.3,-0.002929688,-0.009092331,0.004074097,0,
00:00.3,-0.002929688,-0.009092331,0.004068375,0,
00:00.3,-0.002929688,-0.009098053,0.004068375,0,
00:00.3,-0.002929688,-0.009098053,0.004079819,0,
00:00.3,-0.00293541,-0.009098053,0.004085541,0,
00:00.3,-0.00293541,-0.009103775,0.004074097,0,
00:00.3,-0.00293541,-0.009103775,0.004074097,0,
00:00.3,-0.00293541,-0.009109497,0.004074097,0,
00:00.3,-0.00293541,-0.009109497,0.004074097,0,
00:00.3,-0.00293541,-0.009109497,0.004074097,0,
00:00.3,-0.002929688,-0.009109497,0.004068375,0,
00:00.3,-0.002929688,-0.009115219,0.004062653,0,
00:00.3,-0.002929688,-0.009109497,0.004068375,0,
00:00.3,-0.002929688,-0.009098053,0.004074097,0,
00:00.3,-0.002929688,-0.009092331,0.004074097,0,
00:00.4,-0.00293541,-0.009103775,0.004074097,0,
00:00.4,-0.00293541,-0.009109497,0.004068375,0,
00:00.4,-0.00293541,-0.009115219,0.004068375,0,
00:00.4,-0.00293541,-0.009115219,0.004074097,0,
00:00.4,-0.00293541,-0.009109497,0.004074097,0,
00:00.4,-0.00293541,-0.009109497,0.004068375,0,
00:00.4,-0.00293541,-0.009109497,0.004062653,0,
00:00.4,-0.002929688,-0.009103775,0.004068375,0,
00:00.4,-0.002929688,-0.009103775,0.004074097,0,
00:00.4,-0.00293541,-0.009103775,0.004068375,0,
00:00.4,-0.00293541,-0.009103775,0.004062653,0,
00:00.4,-0.002929688,-0.009103775,0.004062653,0,
00:00.4,-0.002929688,-0.009092331,0.004068375,0,
00:00.4,-0.002929688,-0.009098053,0.004062653,0,
00:00.4,-0.002929688,-0.009109497,0.004068375,0,
00:00.4,-0.00293541,-0.009109497,0.004062653,0,
00:00.4,-0.002929688,-0.009103775,0.004056931,0,
00:00.4,-0.002929688,-0.009103775,0.004062653,0,
00:00.4,-0.002929688,-0.009115219,0.004068375,0,
00:00.4,-0.00293541,-0.009109497,0.004068375,0,
00:00.4,-0.00293541,-0.009109497,0.004062653,0,
00:00.4,-0.00293541,-0.009115219,0.004062653,0,
00:00.4,-0.00293541,-0.009109497,0.004068375,0,
00:00.4,-0.00293541,-0.009103775,0.004068375,0,
00:00.4,-0.00293541,-0.009098053,0.004068375,0,
00:00.5,-0.00293541,-0.009103775,0.004062653,0,
00:00.5,-0.00293541,-0.009109497,0.004056931,0,
00:00.5,-0.00293541,-0.009109497,0.004062653,0,
00:00.5,-0.00293541,-0.009109497,0.004068375,0,
00:00.5,-0.00293541,-0.009109497,0.004068375,0,
00:00.5,-0.00293541,-0.009109497,0.004062653,0,
00:00.5,-0.00293541,-0.009115219,0.004056931,0,
00:00.5,-0.00293541,-0.009115219,0.004062653,0,
00:00.5,-0.00293541,-0.009115219,0.004062653,0,
00:00.5,-0.00293541,-0.009103775,0.004068375,0,
00:00.5,-0.00293541,-0.009098053,0.004062653,0,
00:00.5,-0.002929688,-0.009098053,0.004062653,0,
00:00.5,-0.00293541,-0.009109497,0.004062653,0,
00:00.5,-0.00293541,-0.009109497,0.004068375,0,
00:00.5,-0.00293541,-0.009109497,0.004068375,0,
00:00.5,-0.00293541,-0.009103775,0.004062653,0,
00:00.5,-0.00293541,-0.009103775,0.004062653,0,
00:00.5,-0.00293541,-0.009103775,0.004062653,0,
00:00.5,-0.00293541,-0.009115219,0.004068375,0,
00:00.5,-0.00293541,-0.009115219,0.004056931,0,
00:00.5,-0.00293541,-0.009109497,0.004056931,0,
00:00.5,-0.00293541,-0.009103775,0.004062653,0,
00:00.5,-0.00293541,-0.009115219,0.004068375,0,
00:00.5,-0.00293541,-0.009115219,0.004068375,0,
00:00.5,-0.00293541,-0.009115219,0.004062653,0,
00:00.6,-0.00293541,-0.009109497,0.004056931,0,
00:00.6,-0.002929688,-0.009109497,0.004056931,0,
00:00.6,-0.002929688,-0.009109497,0.004056931,0,
00:00.6,-0.002929688,-0.009103775,0.004056931,0,
00:00.6,-0.00293541,-0.009115219,0.004062653,0,
00:00.6,-0.00293541,-0.009126663,0.004056931,0,
00:00.6,-0.00293541,-0.009126663,0.004056931,0,
00:00.6,-0.002929688,-0.009103775,0.004056931,0,
00:00.6,-0.002929688,-0.009103775,0.004056931,0,
00:00.6,-0.00293541,-0.009115219,0.004051208,0,
00:00.6,-0.00293541,-0.009109497,0.004051208,0,
00:00.6,-0.002929688,-0.009103775,0.004056931,0,
00:00.6,-0.002929688,-0.009103775,0.004056931,0,
00:00.6,-0.002929688,-0.009109497,0.004062653,0,
00:00.6,-0.00293541,-0.009109497,0.004062653,0,
00:00.6,-0.00293541,-0.009115219,0.004056931,0,
00:00.6,-0.002929688,-0.009115219,0.004056931,0,
00:00.6,-0.002929688,-0.009109497,0.004062653,0,
00:00.6,-0.002929688,-0.009109497,0.004062653,0,
00:00.6,-0.002929688,-0.009109497,0.004056931,0,
00:00.6,-0.002929688,-0.009109497,0.004051208,0,
00:00.6,-0.002929688,-0.009103775,0.004051208,0,
00:00.6,-0.002929688,-0.009109497,0.004056931,0,
00:00.6,-0.00293541,-0.009109497,0.004056931,0,
00:00.6,-0.00293541,-0.009120941,0.004056931,0,
00:00.7,-0.00293541,-0.009120941,0.004051208,0,
00:00.7,-0.002929688,-0.009109497,0.004051208,0,
00:00.7,-0.002929688,-0.009103775,0.004051208,0,
00:00.7,-0.002929688,-0.009103775,0.004056931,0,
00:00.7,-0.002929688,-0.009103775,0.004056931,0,
00:00.7,-0.002929688,-0.009109497,0.004051208,0,
00:00.7,-0.002929688,-0.009120941,0.004045486,0,
00:00.7,-0.002929688,-0.009126663,0.004045486,0,
00:00.7,-0.00293541,-0.009120941,0.004056931,0,
00:00.7,-0.00293541,-0.009115219,0.004062653,0,
00:00.7,-0.002929688,-0.009115219,0.004051208,0,
00:00.7,-0.002929688,-0.009126663,0.004051208,0,
00:00.7,-0.002929688,-0.009126663,0.004051208,0,
00:00.7,-0.002929688,-0.009126663,0.004056931,0,
00:00.7,-0.00293541,-0.009120941,0.004056931,0,
00:00.7,-0.002929688,-0.009103775,0.004045486,0,
00:00.7,-0.002923965,-0.009098053,0.004051208,0,
00:00.7,-0.002929688,-0.009109497,0.004056931,0,
00:00.7,-0.00293541,-0.009115219,0.004056931,0,
00:00.7,-0.00293541,-0.009120941,0.004056931,0,
00:00.7,-0.00293541,-0.009126663,0.004051208,0,
00:00.7,-0.00293541,-0.009126663,0.004045486,0,
00:00.7,-0.002929688,-0.009115219,0.004056931,0,
00:00.7,-0.002929688,-0.009115219,0.004051208,0,
00:00.7,-0.002929688,-0.009115219,0.004051208,0,
00:00.8,-0.00293541,-0.009120941,0.004045486,0,
00:00.8,-0.00293541,-0.009120941,0.004045486,0,
00:00.8,-0.002929688,-0.009115219,0.004051208,0,
00:00.8,-0.00293541,-0.009120941,0.004045486,0,
00:00.8,-0.00293541,-0.009132385,0.004051208,0,
00:00.8,-0.00293541,-0.009132385,0.004051208,0,
00:00.8,-0.002929688,-0.009120941,0.004045486,0,
00:00.8,-0.002929688,-0.009126663,0.004045486,0,
00:00.8,-0.002929688,-0.009126663,0.004045486,0,
00:00.8,-0.00293541,-0.009115219,0.004045486,0,
00:00.8,-0.00293541,-0.009115219,0.004045486,0,
00:00.8,-0.002929688,-0.009109497,0.004045486,0,
00:00.8,-0.002929688,-0.009109497,0.004045486,0,
00:00.8,-0.002929688,-0.009115219,0.004045486,0,
00:00.8,-0.002929688,-0.009115219,0.004045486,0,
00:00.8,-0.002929688,-0.009126663,0.004039764,0,
00:00.8,-0.002929688,-0.009126663,0.004039764,0,
00:00.8,-0.002929688,-0.009120941,0.004045486,0,
00:00.8,-0.002929688,-0.009115219,0.004051208,0,
00:00.8,-0.00293541,-0.009120941,0.004045486,0,
00:00.8,-0.002929688,-0.009120941,0.004039764,0,
00:00.8,-0.002929688,-0.009126663,0.004045486,0,
00:00.8,-0.002929688,-0.009132385,0.004045486,0,
00:00.8,-0.002929688,-0.009120941,0.004045486,0,
00:00.8,-0.002929688,-0.009103775,0.004045486,0,
00:00.9,-0.002929688,-0.009115219,0.004034042,0,
00:00.9,-0.002929688,-0.009115219,0.004034042,0,
00:00.9,-0.002929688,-0.009115219,0.004039764,0,
00:00.9,-0.00293541,-0.009120941,0.004039764,0,
00:00.9,-0.00293541,-0.009120941,0.004045486,0,
00:00.9,-0.00293541,-0.009120941,0.004039764,0,
00:00.9,-0.00293541,-0.009115219,0.004039764,0,
00:00.9,-0.00293541,-0.009115219,0.004039764,0,
00:00.9,-0.002929688,-0.009115219,0.004045486,0,
00:00.9,-0.00293541,-0.009120941,0.004039764,0,
00:00.9,-0.00293541,-0.009120941,0.004034042,0,
00:00.9,-0.002929688,-0.009120941,0.004034042,0,
00:00.9,-0.002929688,-0.009126663,0.004039764,0,
00:00.9,-0.00293541,-0.009126663,0.004039764,0,
00:00.9,-0.00293541,-0.009126663,0.004039764,0,
00:00.9,-0.002929688,-0.009120941,0.004034042,0,
00:00.9,-0.002929688,-0.009120941,0.004034042,0,
00:00.9,-0.002929688,-0.009120941,0.004039764,0,
00:00.9,-0.00293541,-0.009120941,0.004039764,0,
00:00.9,-0.00293541,-0.009126663,0.004034042,0,
00:00.9,-0.00293541,-0.009126663,0.004022598,0,
00:00.9,-0.00293541,-0.009126663,0.004034042,0,
00:00.9,-0.00293541,-0.009132385,0.004045486,0,
00:00.9,-0.00293541,-0.009126663,0.004045486,0,
00:00.9,-0.00293541,-0.009126663,0.004039764,0,
00:01.0,-0.00293541,-0.009120941,0.00402832,0,
00:01.0,-0.00293541,-0.009120941,0.004034042,0,
00:01.0,-0.002929688,-0.009120941,0.004039764,0,
00:01.0,-0.002929688,-0.009126663,0.004039764,0,
00:01.0,-0.00293541,-0.009115219,0.004034042,0,
00:01.0,-0.00293541,-0.009115219,0.004034042,0,
00:01.0,-0.002929688,-0.009126663,0.004039764,0,
00:01.0,-0.002929688,-0.009126663,0.004039764,0,
00:01.0,-0.00293541,-0.009120941,0.004039764,0,
00:01.0,-0.00293541,-0.009120941,0.004039764,0,
00:01.0,-0.00293541,-0.009115219,0.004034042,0,
00:01.0,-0.00293541,-0.009120941,0.004034042,0,
00:00:01,-0.00293541,-0.009120941,0.004034042,0,
00:01.0,-0.00293541,-0.009126663,0.004039764,0,
00:01.0,-0.00293541,-0.009126663,0.004034042,0,
00:01.0,-0.002929688,-0.009120941,0.004034042,0,
00:01.0,-0.00293541,-0.009126663,0.00402832,0,
00:01.0,-0.00293541,-0.009126663,0.004034042,0,
00:01.0,-0.00293541,-0.009120941,0.004034042,0,
00:01.0,-0.00293541,-0.009126663,0.00402832,0,
00:01.0,-0.00293541,-0.009126663,0.00402832,0,
00:01.0,-0.002929688,-0.009132385,0.00402832,0,
00:01.0,-0.002929688,-0.009138107,0.004034042,0,
00:01.0,-0.00293541,-0.009126663,0.004034042,0,
00:01.0,-0.002929688,-0.009115219,0.00402832,0,
00:01.1,-0.002929688,-0.009120941,0.004022598,0,
00:01.1,-0.002929688,-0.009132385,0.004022598,0,
00:01.1,-0.002929688,-0.009126663,0.004039764,0,
00:01.1,-0.00293541,-0.009120941,0.004039764,0,
00:01.1,-0.00293541,-0.009120941,0.00402832,0,
00:01.1,-0.002929688,-0.009120941,0.004022598,0,
00:01.1,-0.002929688,-0.009132385,0.004022598,0,
00:01.1,-0.002929688,-0.009126663,0.004022598,0,
00:01.1,-0.002929688,-0.009120941,0.004034042,0,
00:01.1,-0.002929688,-0.009120941,0.00402832,0,
00:01.1,-0.002929688,-0.009132385,0.00402832,0,
00:01.1,-0.002929688,-0.009126663,0.004022598,0,
00:01.1,-0.002929688,-0.009126663,0.00402832,0,
00:01.1,-0.002929688,-0.009126663,0.00402832,0,
00:01.1,-0.002929688,-0.009126663,0.00402832,0,
00:01.1,-0.002929688,-0.009126663,0.004022598,0,
00:01.1,-0.002929688,-0.009132385,0.004016876,0,
00:01.1,-0.002929688,-0.009132385,0.004022598,0,
00:01.1,-0.002929688,-0.009132385,0.00402832,0,
00:01.1,-0.002929688,-0.009132385,0.004022598,0,
00:01.1,-0.002929688,-0.009126663,0.004022598,0,
00:01.1,-0.002929688,-0.009132385,0.004022598,0,
00:01.1,-0.002929688,-0.009126663,0.00402832,0,
00:01.1,-0.002929688,-0.009126663,0.00402832,0,
00:01.1,-0.002929688,-0.009126663,0.004022598,0,
00:01.2,-0.002929688,-0.009132385,0.004022598,0,
00:01.2,-0.002929688,-0.009132385,0.004016876,0,
00:01.2,-0.002929688,-0.009126663,0.004022598,0,
00:01.2,-0.002929688,-0.009126663,0.00402832,0,
00:01.2,-0.00293541,-0.009126663,0.004022598,0,
00:01.2,-0.00293541,-0.009126663,0.004016876,0,
00:01.2,-0.002929688,-0.009132385,0.004016876,0,
00:01.2,-0.002929688,-0.009132385,0.004022598,0,
00:01.2,-0.002929688,-0.009132385,0.004022598,0,
00:01.2,-0.00293541,-0.009120941,0.004011154,0,
00:01.2,-0.002929688,-0.009126663,0.004016876,0,
00:01.2,-0.002929688,-0.009132385,0.004022598,0,
00:01.2,-0.002929688,-0.009138107,0.004022598,0,
00:01.2,-0.002929688,-0.009132385,0.004022598,0,
00:01.2,-0.002929688,-0.009132385,0.004022598,0,
00:01.2,-0.002929688,-0.009126663,0.004016876,0,
00:01.2,-0.002929688,-0.009132385,0.004016876,0,
00:01.2,-0.002929688,-0.009132385,0.004016876,0,
00:01.2,-0.002929688,-0.009143829,0.004016876,0,
00:01.2,-0.002929688,-0.009143829,0.004016876,0,
00:01.2,-0.002929688,-0.009132385,0.004011154,0,
00:01.2,-0.002929688,-0.009120941,0.004011154,0,
00:01.2,-0.002929688,-0.009120941,0.004016876,0,
00:01.2,-0.002929688,-0.009132385,0.004022598,0,
00:01.2,-0.002929688,-0.009138107,0.004016876,0,
00:01.3,-0.002929688,-0.009126663,0.004011154,0,
00:01.3,-0.002923965,-0.009115219,0.004005432,0,
00:01.3,-0.002929688,-0.009126663,0.004011154,0,
00:01.3,-0.002929688,-0.009132385,0.004016876,0,
00:01.3,-0.002929688,-0.009132385,0.004022598,0,
00:01.3,-0.002929688,-0.009132385,0.004016876,0,
00:01.3,-0.002929688,-0.009132385,0.004011154,0,
00:01.3,-0.002929688,-0.009132385,0.004022598,0,
00:01.3,-0.002929688,-0.009132385,0.004022598,0,
00:01.3,-0.002929688,-0.009132385,0.004016876,0,
00:01.3,-0.002929688,-0.009138107,0.004011154,0,
00:01.3,-0.002929688,-0.009132385,0.004011154,0,
00:01.3,-0.002929688,-0.009132385,0.004016876,0,
00:01.3,-0.002929688,-0.009132385,0.004016876,0,
00:01.3,-0.002929688,-0.009138107,0.004016876,0,
00:01.3,-0.002929688,-0.009132385,0.004011154,0,
00:01.3,-0.002929688,-0.009138107,0.004016876,0,
00:01.3,-0.002923965,-0.009138107,0.004016876,0,
00:01.3,-0.002929688,-0.009132385,0.004022598,0,
00:01.3,-0.002929688,-0.009120941,0.004011154,0,
00:01.3,-0.002929688,-0.009126663,0.004011154,0,
00:01.3,-0.002929688,-0.009143829,0.004005432,0,
00:01.3,-0.002929688,-0.009149551,0.004011154,0,
00:01.3,-0.002929688,-0.009143829,0.004016876,0,
00:01.3,-0.002929688,-0.009132385,0.004011154,0,
00:01.4,-0.002929688,-0.009132385,0.004011154,0,
00:01.4,-0.002929688,-0.009138107,0.004011154,0,
00:01.4,-0.002929688,-0.009126663,0.004016876,0,
00:01.4,-0.002929688,-0.009126663,0.004016876,0,
00:01.4,-0.002929688,-0.009126663,0.004011154,0,
00:01.4,-0.002929688,-0.009132385,0.004011154,0,
00:01.4,-0.002929688,-0.009132385,0.004005432,0,
00:01.4,-0.002929688,-0.009132385,0.004005432,0,
00:01.4,-0.002929688,-0.009132385,0.004016876,0,
00:01.4,-0.002929688,-0.009138107,0.004011154,0,
00:01.4,-0.002929688,-0.009138107,0.004005432,0,
00:01.4,-0.002929688,-0.009138107,0.004005432,0,
00:01.4,-0.002929688,-0.009132385,0.004011154,0,
00:01.4,-0.002929688,-0.009132385,0.004011154,0,
00:01.4,-0.00293541,-0.009138107,0.004011154,0,
00:01.4,-0.002929688,-0.009132385,0.004005432,0,
00:01.4,-0.002929688,-0.009132385,0.004005432,0,
00:01.4,-0.002929688,-0.009132385,0.004011154,0,
00:01.4,-0.002929688,-0.009132385,0.004011154,0,
00:01.4,-0.00293541,-0.009138107,0.004005432,0,
00:01.4,-0.00293541,-0.009132385,0.00399971,0,
00:01.4,-0.002929688,-0.009120941,0.00399971,0,
00:01.4,-0.002929688,-0.009120941,0.004005432,0,
00:01.4,-0.00293541,-0.009126663,0.004005432,0,
00:01.4,-0.00293541,-0.009132385,0.004005432,0,
00:01.5,-0.00293541,-0.009132385,0.00399971,0,
00:01.5,-0.00293541,-0.009138107,0.004005432,0,
00:01.5,-0.00293541,-0.009132385,0.004016876,0,
00:01.5,-0.00293541,-0.009132385,0.004011154,0,
00:01.5,-0.00293541,-0.009132385,0.004005432,0,
00:01.5,-0.00293541,-0.009132385,0.00399971,0,
00:01.5,-0.00293541,-0.009138107,0.004005432,0,
00:01.5,-0.00293541,-0.009138107,0.00399971,0,
00:01.5,-0.002929688,-0.009138107,0.00399971,0,
00:01.5,-0.00293541,-0.009132385,0.004005432,0,
00:01.5,-0.00293541,-0.009126663,0.00399971,0,
00:01.5,-0.00293541,-0.009120941,0.00399971,0,
00:01.5,-0.002929688,-0.009120941,0.004005432,0,
00:01.5,-0.002929688,-0.009120941,0.00399971,0,
00:01.5,-0.00293541,-0.009132385,0.00399971,0,
00:01.5,-0.00293541,-0.009143829,0.003993988,0,
00:01.5,-0.002929688,-0.009143829,0.003993988,0,
00:01.5,-0.002929688,-0.009138107,0.00399971,0,
00:01.5,-0.002929688,-0.009120941,0.00399971,0,
00:01.5,-0.002929688,-0.009120941,0.003993988,0,
00:01.5,-0.002929688,-0.009120941,0.003988266,0,
00:01.5,-0.002929688,-0.009126663,0.00399971,0,
00:01.5,-0.002929688,-0.009132385,0.00399971,0,
00:01.5,-0.002929688,-0.009132385,0.00399971,0,
00:01.5,-0.00293541,-0.009143829,0.003993988,0,
00:01.6,-0.002929688,-0.009138107,0.003993988,0,
00:01.6,-0.002929688,-0.009126663,0.003993988,0,
00:01.6,-0.002929688,-0.009126663,0.004005432,0,
00:01.6,-0.002929688,-0.009132385,0.004005432,0,
00:01.6,-0.002929688,-0.009138107,0.00399971,0,
00:01.6,-0.002929688,-0.009138107,0.003993988,0,
00:01.6,-0.002929688,-0.009132385,0.00399971,0,
00:01.6,-0.002929688,-0.009126663,0.00399971,0,
00:01.6,-0.002929688,-0.009126663,0.00399971,0,
00:01.6,-0.002929688,-0.009132385,0.003993988,0,
00:01.6,-0.002929688,-0.009138107,0.003993988,0,
00:01.6,-0.002929688,-0.009138107,0.003993988,0,
00:01.6,-0.002929688,-0.009143829,0.00399971,0,
00:01.6,-0.00293541,-0.009155273,0.003993988,0,
00:01.6,-0.00293541,-0.009149551,0.003993988,0,
00:01.6,-0.002929688,-0.009132385,0.003988266,0,
00:01.6,-0.002929688,-0.009120941,0.003988266,0,
00:01.6,-0.002929688,-0.009126663,0.003993988,0,
00:01.6,-0.002929688,-0.009126663,0.003993988,0,
00:01.6,-0.002929688,-0.009138107,0.003988266,0,
00:01.6,-0.00293541,-0.009138107,0.003988266,0,
00:01.6,-0.002929688,-0.009138107,0.003993988,0,
00:01.6,-0.00293541,-0.009132385,0.003993988,0,
00:01.6,-0.00293541,-0.009126663,0.003993988,0,
00:01.6,-0.002929688,-0.009126663,0.003993988,0,
00:01.7,-0.00293541,-0.009138107,0.003982544,0,
00:01.7,-0.00293541,-0.009143829,0.003982544,0,
00:01.7,-0.002929688,-0.009143829,0.003993988,0,
00:01.7,-0.002929688,-0.009138107,0.00399971,0,
00:01.7,-0.002929688,-0.009132385,0.003993988,0,
00:01.7,-0.002929688,-0.009132385,0.003982544,0,
00:01.7,-0.002929688,-0.009132385,0.003982544,0,
00:01.7,-0.002929688,-0.009138107,0.003993988,0,
00:01.7,-0.00293541,-0.009143829,0.003993988,0,
00:01.7,-0.00293541,-0.009149551,0.003988266,0,
00:01.7,-0.002929688,-0.009143829,0.003982544,0,
00:01.7,-0.002929688,-0.009132385,0.003988266,0,
00:01.7,-0.002929688,-0.009132385,0.003988266,0,
00:01.7,-0.002929688,-0.009132385,0.003988266,0,
00:01.7,-0.002929688,-0.009138107,0.003982544,0,
00:01.7,-0.002929688,-0.009138107,0.003982544,0,
00:01.7,-0.002923965,-0.009138107,0.003988266,0,
00:01.7,-0.002929688,-0.009138107,0.003988266,0,
00:01.7,-0.002929688,-0.009138107,0.003982544,0,
00:01.7,-0.002929688,-0.009143829,0.003976822,0,
00:01.7,-0.002929688,-0.009143829,0.003976822,0,
00:01.7,-0.002929688,-0.009138107,0.003976822,0,
00:01.7,-0.002929688,-0.009138107,0.003982544,0,
00:01.7,-0.002929688,-0.009138107,0.003988266,0,
00:01.7,-0.002929688,-0.009132385,0.003982544,0,
00:01.8,-0.002929688,-0.009132385,0.003982544,0,
00:01.8,-0.002923965,-0.009138107,0.003982544,0,
00:01.8,-0.002923965,-0.009138107,0.003982544,0,
00:01.8,-0.002929688,-0.009138107,0.003982544,0,
00:01.8,-0.002929688,-0.009138107,0.003976822,0,
00:01.8,-0.002923965,-0.009138107,0.003976822,0,
00:01.8,-0.002923965,-0.009132385,0.003976822,0,
00:01.8,-0.002923965,-0.009132385,0.003976822,0,
00:01.8,-0.002923965,-0.009138107,0.003982544,0,
00:01.8,-0.002923965,-0.009143829,0.003976822,0,
00:01.8,-0.002923965,-0.009138107,0.0039711,0,
00:01.8,-0.002923965,-0.009138107,0.003976822,0,
00:01.8,-0.002923965,-0.009132385,0.003982544,0,
00:01.8,-0.002923965,-0.009132385,0.003982544,0,
00:01.8,-0.002923965,-0.009138107,0.003976822,0,
00:01.8,-0.002923965,-0.009143829,0.0039711,0,
00:01.8,-0.002923965,-0.009149551,0.003976822,0,
00:01.8,-0.002923965,-0.009138107,0.003976822,0,
00:01.8,-0.002923965,-0.009138107,0.003976822,0,
00:01.8,-0.002923965,-0.009149551,0.003976822,0,
00:01.8,-0.002929688,-0.009143829,0.0039711,0,
00:01.8,-0.002929688,-0.009143829,0.0039711,0,
00:01.8,-0.002923965,-0.009138107,0.003982544,0,
00:01.8,-0.002923965,-0.009143829,0.003976822,0,
00:01.8,-0.002929688,-0.009155273,0.003976822,0,
00:01.9,-0.002929688,-0.009149551,0.003976822,0,
00:01.9,-0.002923965,-0.009143829,0.003976822,0,
00:01.9,-0.002923965,-0.009143829,0.003976822,0,
00:01.9,-0.002929688,-0.009143829,0.003976822,0,
00:01.9,-0.002929688,-0.009138107,0.0039711,0,
00:01.9,-0.002923965,-0.009138107,0.003965378,0,
00:01.9,-0.002923965,-0.009138107,0.0039711,0,
00:01.9,-0.002923965,-0.009143829,0.003982544,0,
00:01.9,-0.002923965,-0.009155273,0.003976822,0,
00:01.9,-0.002923965,-0.009155273,0.0039711,0,
00:01.9,-0.002923965,-0.009149551,0.0039711,0,
00:01.9,-0.002923965,-0.009149551,0.003965378,0,
00:01.9,-0.002923965,-0.009143829,0.003965378,0,
00:01.9,-0.002923965,-0.009138107,0.003976822,0,
00:01.9,-0.002923965,-0.009138107,0.003965378,0,
00:01.9,-0.002923965,-0.009143829,0.003965378,0,
00:01.9,-0.002923965,-0.009143829,0.003965378,0,
00:01.9,-0.002923965,-0.009149551,0.0039711,0,
00:01.9,-0.002923965,-0.009155273,0.003965378,0,
00:01.9,-0.002929688,-0.009160995,0.003965378,0,
00:01.9,-0.002923965,-0.009149551,0.003965378,0,
00:01.9,-0.002923965,-0.009138107,0.003965378,0,
00:01.9,-0.002918243,-0.009132385,0.0039711,0,
00:01.9,-0.002923965,-0.009138107,0.003965378,0,
00:01.9,-0.002923965,-0.009138107,0.003965378,0,
00:02.0,-0.002923965,-0.009149551,0.003959656,0,
00:02.0,-0.002923965,-0.009155273,0.003965378,0,
00:02.0,-0.002923965,-0.009155273,0.003965378,0,
00:02.0,-0.002929688,-0.009143829,0.003965378,0,
00:02.0,-0.002923965,-0.009138107,0.003959656,0,
00:02.0,-0.002923965,-0.009138107,0.003953934,0,
00:02.0,-0.002923965,-0.009149551,0.003959656,0,
00:02.0,-0.002923965,-0.009155273,0.0039711,0,
00:02.0,-0.002929688,-0.009149551,0.003965378,0,
00:02.0,-0.002929688,-0.009143829,0.003953934,0,
00:02.0,-0.002923965,-0.009143829,0.003959656,0,
00:02.0,-0.002923965,-0.009143829,0.003959656,0,
00:00:02,-0.002923965,-0.009143829,0.003965378,0,
00:02.0,-0.002923965,-0.009143829,0.003965378,0,
00:02.0,-0.002923965,-0.009143829,0.003959656,0,
00:02.0,-0.002923965,-0.009143829,0.003953934,0,
00:02.0,-0.002923965,-0.009149551,0.003959656,0,
00:02.0,-0.002923965,-0.009160995,0.003965378,0,
00:02.0,-0.002923965,-0.00917244,0.003959656,0,
00:02.0,-0.002929688,-0.009166718,0.003959656,0,
00:02.0,-0.002923965,-0.009132385,0.003959656,0,
00:02.0,-0.002918243,-0.009132385,0.003959656,0,
00:02.0,-0.002923965,-0.009143829,0.003959656,0,
00:02.0,-0.002923965,-0.009138107,0.003953934,0,
00:02.0,-0.002923965,-0.009138107,0.003953934,0,
00:02.1,-0.002918243,-0.009149551,0.003953934,0,
00:02.1,-0.002918243,-0.009155273,0.003953934,0,
00:02.1,-0.002923965,-0.009155273,0.003959656,0,
00:02.1,-0.002918243,-0.009143829,0.003953934,0,
00:02.1,-0.002918243,-0.009138107,0.003953934,0,
00:02.1,-0.002918243,-0.009149551,0.003953934,0,
00:02.1,-0.002918243,-0.009149551,0.003953934,0,
00:02.1,-0.002923965,-0.009149551,0.003953934,0,
00:02.1,-0.002923965,-0.009149551,0.003953934,0,
00:02.1,-0.002923965,-0.009155273,0.003953934,0,
00:02.1,-0.002923965,-0.009149551,0.003953934,0,
00:02.1,-0.002918243,-0.009143829,0.003953934,0,
00:02.1,-0.002923965,-0.009149551,0.003959656,0,
00:02.1,-0.002923965,-0.009155273,0.003953934,0,
00:02.1,-0.002923965,-0.009149551,0.003948212,0,
00:02.1,-0.002918243,-0.009149551,0.003948212,0,
00:02.1,-0.002918243,-0.009155273,0.003953934,0,
00:02.1,-0.002918243,-0.009149551,0.003959656,0,
00:02.1,-0.002923965,-0.009149551,0.003953934,0,
00:02.1,-0.002918243,-0.009149551,0.00394249,0,
00:02.1,-0.002918243,-0.009149551,0.00394249,0,
00:02.1,-0.002918243,-0.009155273,0.003959656,0,
00:02.1,-0.002918243,-0.009166718,0.003959656,0,
00:02.1,-0.002923965,-0.009160995,0.003953934,0,
00:02.1,-0.002918243,-0.009149551,0.003948212,0,
00:02.2,-0.002918243,-0.009149551,0.00394249,0,
00:02.2,-0.002918243,-0.009149551,0.003948212,0,
00:02.2,-0.002918243,-0.009149551,0.003953934,0,
00:02.2,-0.002923965,-0.009149551,0.003948212,0,
00:02.2,-0.002923965,-0.009143829,0.003948212,0,
00:02.2,-0.002923965,-0.009149551,0.00394249,0,
00:02.2,-0.002923965,-0.009155273,0.003948212,0,
00:02.2,-0.002923965,-0.009155273,0.003948212,0,
00:02.2,-0.002923965,-0.009155273,0.003948212,0,
00:02.2,-0.002918243,-0.009149551,0.00394249,0,
00:02.2,-0.002918243,-0.009149551,0.003931046,0,
00:02.2,-0.002918243,-0.009155273,0.00394249,0,
00:02.2,-0.002918243,-0.009155273,0.003953934,0,
00:02.2,-0.002923965,-0.009160995,0.003948212,0,
00:02.2,-0.002923965,-0.009166718,0.00394249,0,
00:02.2,-0.002918243,-0.009160995,0.003936768,0,
00:02.2,-0.002918243,-0.009155273,0.003948212,0,
00:02.2,-0.002923965,-0.009143829,0.003948212,0,
00:02.2,-0.002923965,-0.009143829,0.003948212,0,
00:02.2,-0.002923965,-0.009155273,0.003936768,0,
00:02.2,-0.002918243,-0.009160995,0.003936768,0,
00:02.2,-0.002918243,-0.009155273,0.003936768,0,
00:02.2,-0.002918243,-0.009149551,0.00394249,0,
00:02.2,-0.002923965,-0.009155273,0.00394249,0,
00:02.2,-0.002923965,-0.009160995,0.00394249,0,
00:02.3,-0.002923965,-0.009155273,0.00394249,0,
00:02.3,-0.002918243,-0.009149551,0.003948212,0,
00:02.3,-0.002918243,-0.009155273,0.00394249,0,
00:02.3,-0.002918243,-0.009160995,0.00394249,0,
00:02.3,-0.002923965,-0.009166718,0.00394249,0,
00:02.3,-0.002918243,-0.009160995,0.003936768,0,
00:02.3,-0.002912521,-0.009149551,0.003936768,0,
00:02.3,-0.002918243,-0.009149551,0.003936768,0,
00:02.3,-0.002918243,-0.009155273,0.00394249,0,
00:02.3,-0.002923965,-0.009160995,0.00394249,0,
00:02.3,-0.002918243,-0.00917244,0.00394249,0,
00:02.3,-0.002918243,-0.009166718,0.00394249,0,
00:02.3,-0.002918243,-0.009149551,0.00394249,0,
00:02.3,-0.002918243,-0.009155273,0.003936768,0,
00:02.3,-0.002918243,-0.009166718,0.003931046,0,
00:02.3,-0.002918243,-0.009166718,0.003925323,0,
00:02.3,-0.002918243,-0.009155273,0.003936768,0,
00:02.3,-0.002918243,-0.009143829,0.00394249,0,
00:02.3,-0.002918243,-0.009149551,0.003936768,0,
00:02.3,-0.002918243,-0.009149551,0.003931046,0,
00:02.3,-0.002918243,-0.009160995,0.003936768,0,
00:02.3,-0.002918243,-0.009160995,0.003936768,0,
00:02.3,-0.002918243,-0.009155273,0.003931046,0,
00:02.3,-0.002918243,-0.009149551,0.003931046,0,
00:02.3,-0.002918243,-0.009160995,0.003936768,0,
00:02.4,-0.002918243,-0.009160995,0.003931046,0,
00:02.4,-0.002918243,-0.009166718,0.003931046,0,
00:02.4,-0.002923965,-0.009160995,0.003936768,0,
00:02.4,-0.002923965,-0.009155273,0.003936768,0,
00:02.4,-0.002918243,-0.009160995,0.003936768,0,
00:02.4,-0.002918243,-0.009160995,0.003931046,0,
00:02.4,-0.002918243,-0.009166718,0.003936768,0,
00:02.4,-0.002923965,-0.009166718,0.003936768,0,
00:02.4,-0.002923965,-0.009160995,0.003931046,0,
00:02.4,-0.002923965,-0.009155273,0.003925323,0,
00:02.4,-0.002918243,-0.009155273,0.003925323,0,
00:02.4,-0.002918243,-0.009166718,0.003925323,0,
00:02.4,-0.002923965,-0.00917244,0.003931046,0,
00:02.4,-0.002923965,-0.009160995,0.003936768,0,
00:02.4,-0.002923965,-0.009160995,0.003925323,0,
00:02.4,-0.002918243,-0.009166718,0.003919601,0,
00:02.4,-0.002918243,-0.009160995,0.003925323,0,
00:02.4,-0.002918243,-0.009155273,0.003936768,0,
00:02.4,-0.002923965,-0.009160995,0.003936768,0,
00:02.4,-0.002923965,-0.009166718,0.003925323,0,
00:02.4,-0.002923965,-0.00917244,0.003925323,0,
00:02.4,-0.002918243,-0.009166718,0.003931046,0,
00:02.4,-0.002923965,-0.009160995,0.003936768,0,
00:02.4,-0.002923965,-0.009155273,0.003931046,0,
00:02.4,-0.002923965,-0.009155273,0.003925323,0,
00:02.5,-0.002918243,-0.009155273,0.003925323,0,
00:02.5,-0.002918243,-0.009160995,0.003925323,0,
00:02.5,-0.002923965,-0.009166718,0.003931046,0,
00:02.5,-0.002923965,-0.009166718,0.003925323,0,
00:02.5,-0.002923965,-0.009160995,0.003925323,0,
00:02.5,-0.002918243,-0.009155273,0.003919601,0,
00:02.5,-0.002918243,-0.009155273,0.003919601,0,
00:02.5,-0.002918243,-0.009160995,0.003925323,0,
00:02.5,-0.002923965,-0.009166718,0.003925323,0,
00:02.5,-0.002923965,-0.00917244,0.003919601,0,
00:02.5,-0.002918243,-0.00917244,0.003925323,0,
00:02.5,-0.002918243,-0.009166718,0.003925323,0,
00:02.5,-0.002918243,-0.009166718,0.003925323,0,
00:02.5,-0.002918243,-0.009160995,0.003925323,0,
00:02.5,-0.002918243,-0.009166718,0.003919601,0,
00:02.5,-0.002918243,-0.00917244,0.003919601,0,
00:02.5,-0.002918243,-0.00917244,0.003925323,0,
00:02.5,-0.002918243,-0.009160995,0.003925323,0,
00:02.5,-0.002918243,-0.009155273,0.003913879,0,
00:02.5,-0.002918243,-0.009155273,0.003913879,0,
00:02.5,-0.002918243,-0.009160995,0.003919601,0,
00:02.5,-0.002918243,-0.009166718,0.003925323,0,
00:02.5,-0.002918243,-0.009166718,0.003925323,0,
00:02.5,-0.002923965,-0.009166718,0.003919601,0,
00:02.5,-0.002923965,-0.009178162,0.003913879,0,
00:02.6,-0.002923965,-0.009183884,0.003919601,0,
00:02.6,-0.002918243,-0.009178162,0.003919601,0,
00:02.6,-0.002918243,-0.009166718,0.003919601,0,
00:02.6,-0.002918243,-0.009160995,0.003919601,0,
00:02.6,-0.002918243,-0.009160995,0.003913879,0,
00:02.6,-0.002918243,-0.009160995,0.003913879,0,
00:02.6,-0.002918243,-0.009166718,0.003913879,0,
00:02.6,-0.002923965,-0.00917244,0.003919601,0,
00:02.6,-0.002923965,-0.00917244,0.003919601,0,
00:02.6,-0.002923965,-0.00917244,0.003913879,0,
00:02.6,-0.002918243,-0.009166718,0.003913879,0,
00:02.6,-0.002918243,-0.009160995,0.003919601,0,
00:02.6,-0.002918243,-0.009160995,0.003919601,0,
00:02.6,-0.002918243,-0.009160995,0.003913879,0,
00:02.6,-0.002918243,-0.00917244,0.003908157,0,
00:02.6,-0.002918243,-0.009183884,0.003908157,0,
00:02.6,-0.002923965,-0.009183884,0.003908157,0,
00:02.6,-0.002918243,-0.00917244,0.003913879,0,
00:02.6,-0.002918243,-0.009155273,0.003908157,0,
00:02.6,-0.002918243,-0.009160995,0.003902435,0,
00:02.6,-0.002918243,-0.009166718,0.003908157,0,
00:02.6,-0.002918243,-0.00917244,0.003913879,0,
00:02.6,-0.002923965,-0.00917244,0.003913879,0,
00:02.6,-0.002923965,-0.00917244,0.003913879,0,
00:02.6,-0.002923965,-0.00917244,0.003908157,0,
00:02.7,-0.002923965,-0.00917244,0.003908157,0,
00:02.7,-0.002918243,-0.009166718,0.003913879,0,
00:02.7,-0.002923965,-0.009166718,0.003913879,0,
00:02.7,-0.002918243,-0.00917244,0.003908157,0,
00:02.7,-0.002918243,-0.00917244,0.003902435,0,
00:02.7,-0.002918243,-0.009178162,0.003896713,0,
00:02.7,-0.002923965,-0.009183884,0.003908157,0,
00:02.7,-0.002923965,-0.00917244,0.003913879,0,
00:02.7,-0.002923965,-0.009149551,0.003908157,0,
00:02.7,-0.002918243,-0.009155273,0.003902435,0,
00:02.7,-0.002918243,-0.009160995,0.003902435,0,
00:02.7,-0.002918243,-0.009166718,0.003908157,0,
00:02.7,-0.002918243,-0.009166718,0.003908157,0,
00:02.7,-0.002923965,-0.00917244,0.003902435,0,
00:02.7,-0.002918243,-0.009178162,0.003902435,0,
00:02.7,-0.002923965,-0.009178162,0.003902435,0,
00:02.7,-0.002923965,-0.009166718,0.003902435,0,
00:02.7,-0.002923965,-0.009160995,0.003902435,0,
00:02.7,-0.002923965,-0.009166718,0.003902435,0,
00:02.7,-0.002923965,-0.009166718,0.003902435,0,
00:02.7,-0.002918243,-0.009166718,0.003896713,0,
00:02.7,-0.002918243,-0.009178162,0.003908157,0,
00:02.7,-0.002918243,-0.009178162,0.003908157,0,
00:02.7,-0.002923965,-0.009166718,0.003902435,0,
00:02.7,-0.002918243,-0.009160995,0.003896713,0,
00:02.8,-0.002918243,-0.009160995,0.003896713,0,
00:02.8,-0.002918243,-0.00917244,0.003908157,0,
00:02.8,-0.002923965,-0.009178162,0.003913879,0,
00:02.8,-0.002923965,-0.00917244,0.003908157,0,
00:02.8,-0.002923965,-0.00917244,0.003896713,0,
00:02.8,-0.002918243,-0.009178162,0.003896713,0,
00:02.8,-0.002918243,-0.00917244,0.003902435,0,
00:02.8,-0.002923965,-0.009160995,0.003902435,0,
00:02.8,-0.002923965,-0.009166718,0.003896713,0,
00:02.8,-0.002918243,-0.00917244,0.003896713,0,
00:02.8,-0.002918243,-0.009178162,0.003896713,0,
00:02.8,-0.002923965,-0.009183884,0.003902435,0,
00:02.8,-0.002923965,-0.009183884,0.003902435,0,
00:02.8,-0.002923965,-0.009183884,0.003896713,0,
00:02.8,-0.002918243,-0.00917244,0.003896713,0,
00:02.8,-0.002918243,-0.009160995,0.003896713,0,
00:02.8,-0.002918243,-0.009160995,0.003896713,0,
00:02.8,-0.002918243,-0.00917244,0.003902435,0,
00:02.8,-0.002923965,-0.00917244,0.003890991,0,
00:02.8,-0.002923965,-0.009178162,0.003896713,0,
00:02.8,-0.002923965,-0.00917244,0.003896713,0,
00:02.8,-0.002918243,-0.00917244,0.003896713,0,
00:02.8,-0.002918243,-0.00917244,0.003902435,0,
00:02.8,-0.002923965,-0.00917244,0.003896713,0,
00:02.8,-0.002923965,-0.009178162,0.003890991,0,
00:02.9,-0.002918243,-0.009178162,0.003890991,0,
00:02.9,-0.002918243,-0.00917244,0.003902435,0,
00:02.9,-0.002923965,-0.00917244,0.003902435,0,
00:02.9,-0.002923965,-0.009178162,0.003896713,0,
00:02.9,-0.002923965,-0.009178162,0.003890991,0,
00:02.9,-0.002918243,-0.009178162,0.003890991,0,
00:02.9,-0.002918243,-0.00917244,0.003902435,0,
00:02.9,-0.002923965,-0.00917244,0.003896713,0,
00:02.9,-0.002923965,-0.00917244,0.003890991,0,
00:02.9,-0.002923965,-0.009178162,0.003890991,0,
00:02.9,-0.002918243,-0.009178162,0.003890991,0,
00:02.9,-0.002918243,-0.00917244,0.003896713,0,
00:02.9,-0.002918243,-0.00917244,0.003896713,0,
00:02.9,-0.002923965,-0.009178162,0.003890991,0,
00:02.9,-0.002923965,-0.009183884,0.003890991,0,
00:02.9,-0.002923965,-0.009178162,0.003890991,0,
00:02.9,-0.002918243,-0.009178162,0.003890991,0,
00:02.9,-0.002923965,-0.00917244,0.003890991,0,
00:02.9,-0.002923965,-0.009166718,0.003890991,0,
00:02.9,-0.002923965,-0.00917244,0.003890991,0,
00:02.9,-0.002923965,-0.009183884,0.003890991,0,
00:02.9,-0.002923965,-0.009183884,0.003896713,0,
00:02.9,-0.002923965,-0.00917244,0.003896713,0,
00:02.9,-0.002923965,-0.009166718,0.003890991,0,
00:02.9,-0.002923965,-0.00917244,0.003885269,0,
00:03.0,-0.002918243,-0.00917244,0.003885269,0,
00:03.0,-0.002918243,-0.00917244,0.003890991,0,
00:03.0,-0.002923965,-0.00917244,0.003890991,0,
00:03.0,-0.002923965,-0.009166718,0.003885269,0,
00:03.0,-0.002918243,-0.009166718,0.003879547,0,
00:03.0,-0.002918243,-0.00917244,0.003879547,0,
00:03.0,-0.002918243,-0.009178162,0.003885269,0,
00:03.0,-0.002923965,-0.009178162,0.003890991,0,
00:03.0,-0.002923965,-0.009178162,0.003885269,0,
00:03.0,-0.002918243,-0.009178162,0.003879547,0,
00:03.0,-0.002918243,-0.009178162,0.003879547,0,
00:03.0,-0.002918243,-0.009178162,0.003885269,0,
00:00:03,-0.002923965,-0.009183884,0.003885269,0,
00:03.0,-0.002923965,-0.009189606,0.003873825,0,
00:03.0,-0.002923965,-0.009189606,0.003873825,0,
00:03.0,-0.002918243,-0.009178162,0.003873825,0,
00:03.0,-0.002918243,-0.00917244,0.003885269,0,
00:03.0,-0.002918243,-0.009166718,0.003890991,0,
00:03.0,-0.002918243,-0.00917244,0.003885269,0,
00:03.0,-0.002918243,-0.009178162,0.003879547,0,
00:03.0,-0.002918243,-0.00917244,0.003879547,0,
00:03.0,-0.002918243,-0.009178162,0.003879547,0,
00:03.0,-0.002918243,-0.009183884,0.003879547,0,
00:03.0,-0.002918243,-0.009178162,0.003879547,0,
00:03.0,-0.002918243,-0.00917244,0.003873825,0,
00:03.1,-0.002918243,-0.00917244,0.003879547,0,
00:03.1,-0.002918243,-0.009178162,0.003879547,0,
00:03.1,-0.002918243,-0.00917244,0.003879547,0,
00:03.1,-0.002918243,-0.009178162,0.003873825,0,
00:03.1,-0.002918243,-0.009178162,0.003873825,0,
00:03.1,-0.002918243,-0.009178162,0.003873825,0,
00:03.1,-0.002918243,-0.009178162,0.003879547,0,
00:03.1,-0.002918243,-0.009178162,0.003879547,0,
00:03.1,-0.002918243,-0.009178162,0.003873825,0,
00:03.1,-0.002918243,-0.009178162,0.003873825,0,
00:03.1,-0.002918243,-0.009178162,0.003868103,0,
00:03.1,-0.002918243,-0.009178162,0.003873825,0,
00:03.1,-0.002923965,-0.009183884,0.003873825,0,
00:03.1,-0.002923965,-0.009195328,0.003873825,0,
00:03.1,-0.002923965,-0.009183884,0.003868103,0,
00:03.1,-0.002918243,-0.00917244,0.003868103,0,
00:03.1,-0.002918243,-0.00917244,0.003873825,0,
00:03.1,-0.002918243,-0.00917244,0.003868103,0,
00:03.1,-0.002918243,-0.009166718,0.003868103,0,
00:03.1,-0.002918243,-0.00917244,0.003856659,0,
00:03.1,-0.002918243,-0.009183884,0.003879547,0,
00:03.1,-0.002923965,-0.009183884,0.003885269,0,
00:03.1,-0.002923965,-0.009178162,0.003873825,0,
00:03.1,-0.002918243,-0.00917244,0.003868103,0,
00:03.1,-0.002918243,-0.009178162,0.003868103,0,
00:03.2,-0.002918243,-0.009183884,0.003868103,0,
00:03.2,-0.002918243,-0.009189606,0.003873825,0,
00:03.2,-0.002923965,-0.009189606,0.003873825,0,
00:03.2,-0.002923965,-0.009183884,0.003868103,0,
00:03.2,-0.002918243,-0.009178162,0.003862381,0,
00:03.2,-0.002918243,-0.00917244,0.003862381,0,
00:03.2,-0.002918243,-0.00917244,0.003862381,0,
00:03.2,-0.002918243,-0.009178162,0.003862381,0,
00:03.2,-0.002923965,-0.009189606,0.003862381,0,
00:03.2,-0.002923965,-0.009189606,0.003862381,0,
00:03.2,-0.002918243,-0.009178162,0.003862381,0,
00:03.2,-0.002918243,-0.009166718,0.003873825,0,
00:03.2,-0.002918243,-0.00917244,0.003868103,0,
00:03.2,-0.002918243,-0.009183884,0.003862381,0,
00:03.2,-0.002918243,-0.009183884,0.003862381,0,
00:03.2,-0.002918243,-0.009183884,0.003862381,0,
00:03.2,-0.002918243,-0.009189606,0.003856659,0,
00:03.2,-0.002923965,-0.009183884,0.003868103,0,
00:03.2,-0.002918243,-0.009166718,0.003862381,0,
00:03.2,-0.002918243,-0.009166718,0.003862381,0,
00:03.2,-0.002918243,-0.009178162,0.003862381,0,
00:03.2,-0.002918243,-0.009183884,0.003862381,0,
00:03.2,-0.002918243,-0.009189606,0.003862381,0,
00:03.2,-0.002918243,-0.009178162,0.003862381,0,
00:03.2,-0.002918243,-0.00917244,0.003862381,0,
00:03.3,-0.002918243,-0.009178162,0.003862381,0,
00:03.3,-0.002918243,-0.009178162,0.003862381,0,
00:03.3,-0.002918243,-0.009183884,0.003862381,0,
00:03.3,-0.002918243,-0.009178162,0.003862381,0,
00:03.3,-0.002918243,-0.009189606,0.003856659,0,
00:03.3,-0.002918243,-0.009195328,0.003856659,0,
00:03.3,-0.002923965,-0.009195328,0.003856659,0,
00:03.3,-0.002923965,-0.009195328,0.003862381,0,
00:03.3,-0.002923965,-0.009195328,0.003856659,0,
00:03.3,-0.002923965,-0.009183884,0.003850937,0,
00:03.3,-0.002918243,-0.00917244,0.003856659,0,
00:03.3,-0.002918243,-0.009178162,0.003862381,0,
00:03.3,-0.002918243,-0.009183884,0.003856659,0,
00:03.3,-0.002918243,-0.009178162,0.003856659,0,
00:03.3,-0.002918243,-0.009178162,0.003845215,0,
00:03.3,-0.002918243,-0.009189606,0.003856659,0,
00:03.3,-0.002923965,-0.009189606,0.003868103,0,
00:03.3,-0.002923965,-0.009178162,0.003862381,0,
00:03.3,-0.002923965,-0.009183884,0.003856659,0,
00:03.3,-0.002923965,-0.009189606,0.003856659,0,
00:03.3,-0.002918243,-0.009189606,0.003856659,0,
00:03.3,-0.002918243,-0.009178162,0.003856659,0,
00:03.3,-0.002923965,-0.009178162,0.003845215,0,
00:03.3,-0.002923965,-0.009183884,0.003845215,0,
00:03.3,-0.002918243,-0.009189606,0.003856659,0,
00:03.4,-0.002923965,-0.009189606,0.003856659,0,
00:03.4,-0.002923965,-0.009189606,0.003862381,0,
00:03.4,-0.002923965,-0.009189606,0.003862381,0,
00:03.4,-0.002918243,-0.009183884,0.003856659,0,
00:03.4,-0.002918243,-0.009183884,0.003850937,0,
00:03.4,-0.002918243,-0.009189606,0.003856659,0,
00:03.4,-0.002918243,-0.009195328,0.003856659,0,
00:03.4,-0.002918243,-0.009195328,0.003850937,0,
00:03.4,-0.002918243,-0.009189606,0.003850937,0,
00:03.4,-0.002918243,-0.009183884,0.003850937,0,
00:03.4,-0.002918243,-0.009178162,0.003856659,0,
00:03.4,-0.002918243,-0.009178162,0.003856659,0,
00:03.4,-0.002918243,-0.009183884,0.003856659,0,
00:03.4,-0.002918243,-0.009189606,0.003845215,0,
00:03.4,-0.002918243,-0.009195328,0.003850937,0,
00:03.4,-0.002918243,-0.009195328,0.003850937,0,
00:03.4,-0.002918243,-0.009189606,0.003850937,0,
00:03.4,-0.002918243,-0.009189606,0.003850937,0,
00:03.4,-0.002918243,-0.009178162,0.003845215,0,
00:03.4,-0.002918243,-0.009183884,0.003845215,0,
00:03.4,-0.002912521,-0.009183884,0.003850937,0,
00:03.4,-0.002918243,-0.009189606,0.003850937,0,
00:03.4,-0.002918243,-0.009195328,0.003850937,0,
00:03.4,-0.002918243,-0.009195328,0.003845215,0,
00:03.4,-0.002918243,-0.00920105,0.003845215,0,
00:03.5,-0.002912521,-0.009195328,0.003845215,0,
00:03.5,-0.002918243,-0.009183884,0.003839493,0,
00:03.5,-0.002923965,-0.009195328,0.003850937,0,
00:03.5,-0.002918243,-0.009195328,0.003850937,0,
00:03.5,-0.002918243,-0.009195328,0.003850937,0,
00:03.5,-0.002918243,-0.00920105,0.003850937,0,
00:03.5,-0.002918243,-0.00920105,0.003850937,0,
00:03.5,-0.002923965,-0.009206772,0.003850937,0,
00:03.5,-0.002923965,-0.009212494,0.003845215,0,
00:03.5,-0.002918243,-0.009195328,0.003845215,0,
00:03.5,-0.002918243,-0.009183884,0.003845215,0,
00:03.5,-0.002918243,-0.009189606,0.003839493,0,
00:03.5,-0.002918243,-0.009195328,0.003845215,0,
00:03.5,-0.002918243,-0.00920105,0.003845215,0,
00:03.5,-0.002918243,-0.009195328,0.003845215,0,
00:03.5,-0.002918243,-0.009195328,0.003850937,0,
00:03.5,-0.002918243,-0.00920105,0.003850937,0,
00:03.5,-0.002918243,-0.00920105,0.003845215,0,
00:03.5,-0.002923965,-0.00920105,0.003839493,0,
00:03.5,-0.002918243,-0.00920105,0.003839493,0,
00:03.5,-0.002918243,-0.009206772,0.003845215,0,
00:03.5,-0.002918243,-0.009212494,0.003845215,0,
00:03.5,-0.002918243,-0.009212494,0.003845215,0,
00:03.5,-0.002918243,-0.00920105,0.003839493,0,
00:03.5,-0.002918243,-0.009195328,0.003839493,0,
00:03.6,-0.002912521,-0.00920105,0.003839493,0,
00:03.6,-0.002918243,-0.00920105,0.003845215,0,
00:03.6,-0.002918243,-0.00920105,0.003845215,0,
00:03.6,-0.002918243,-0.00920105,0.003839493,0,
00:03.6,-0.002918243,-0.009195328,0.003833771,0,
00:03.6,-0.002918243,-0.00920105,0.003839493,0,
00:03.6,-0.002918243,-0.009206772,0.003839493,0,
00:03.6,-0.002918243,-0.00920105,0.003828049,0,
00:03.6,-0.002918243,-0.009206772,0.003822327,0,
00:03.6,-0.002918243,-0.00920105,0.003828049,0,
00:03.6,-0.002918243,-0.00920105,0.003845215,0,
00:03.6,-0.002918243,-0.00920105,0.003850937,0,
00:03.6,-0.002918243,-0.009212494,0.003845215,0,
00:03.6,-0.002923965,-0.009223938,0.003839493,0,
00:03.6,-0.002918243,-0.009223938,0.003833771,0,
00:03.6,-0.002918243,-0.009206772,0.003839493,0,
00:03.6,-0.002918243,-0.009195328,0.003839493,0,
00:03.6,-0.002918243,-0.009189606,0.003839493,0,
00:03.6,-0.002918243,-0.009195328,0.003833771,0,
00:03.6,-0.002918243,-0.009195328,0.003828049,0,
00:03.6,-0.002918243,-0.009212494,0.003833771,0,
00:03.6,-0.002918243,-0.009223938,0.003839493,0,
00:03.6,-0.002923965,-0.009212494,0.003839493,0,
00:03.6,-0.002918243,-0.00920105,0.003828049,0,
00:03.6,-0.002912521,-0.009195328,0.003828049,0,
00:03.7,-0.002912521,-0.009189606,0.003828049,0,
00:03.7,-0.002918243,-0.00920105,0.003833771,0,
00:03.7,-0.002923965,-0.009206772,0.003833771,0,
00:03.7,-0.002918243,-0.00920105,0.003828049,0,
00:03.7,-0.002918243,-0.009189606,0.003822327,0,
00:03.7,-0.002912521,-0.009195328,0.003828049,0,
00:03.7,-0.002918243,-0.009206772,0.003833771,0,
00:03.7,-0.002918243,-0.009206772,0.003828049,0,
00:03.7,-0.002918243,-0.00920105,0.003828049,0,
00:03.7,-0.002918243,-0.00920105,0.003828049,0,
00:03.7,-0.002918243,-0.00920105,0.003828049,0,
00:03.7,-0.002918243,-0.009195328,0.003833771,0,
00:03.7,-0.002918243,-0.009195328,0.003833771,0,
00:03.7,-0.002918243,-0.00920105,0.003828049,0,
00:03.7,-0.002918243,-0.009206772,0.003822327,0,
00:03.7,-0.002918243,-0.009212494,0.003828049,0,
00:03.7,-0.002918243,-0.009206772,0.003839493,0,
00:03.7,-0.002918243,-0.00920105,0.003833771,0,
00:03.7,-0.002918243,-0.009206772,0.003828049,0,
00:03.7,-0.002918243,-0.009212494,0.003828049,0,
00:03.7,-0.002918243,-0.009206772,0.003828049,0,
00:03.7,-0.002918243,-0.00920105,0.003828049,0,
00:03.7,-0.002918243,-0.00920105,0.003828049,0,
00:03.7,-0.002918243,-0.009206772,0.003828049,0,
00:03.7,-0.002918243,-0.009206772,0.003822327,0,
00:03.8,-0.002912521,-0.009195328,0.003822327,0,
00:03.8,-0.002912521,-0.009189606,0.003828049,0,
00:03.8,-0.002918243,-0.009195328,0.003828049,0,
00:03.8,-0.002912521,-0.009195328,0.003822327,0,
00:03.8,-0.002912521,-0.009195328,0.003816605,0,
00:03.8,-0.002918243,-0.009195328,0.003816605,0,
00:03.8,-0.002918243,-0.00920105,0.003822327,0,
00:03.8,-0.002918243,-0.00920105,0.003828049,0,
00:03.8,-0.002918243,-0.009195328,0.003822327,0,
00:03.8,-0.002912521,-0.009195328,0.003816605,0,
00:03.8,-0.002912521,-0.00920105,0.003822327,0,
00:03.8,-0.002912521,-0.00920105,0.003822327,0,
00:03.8,-0.002912521,-0.00920105,0.003822327,0,
00:03.8,-0.002912521,-0.009195328,0.003810883,0,
00:03.8,-0.002912521,-0.00920105,0.003810883,0,
00:03.8,-0.002912521,-0.009206772,0.003810883,0,
00:03.8,-0.002912521,-0.009206772,0.003822327,0,
00:03.8,-0.002912521,-0.009189606,0.003822327,0,
00:03.8,-0.002912521,-0.009189606,0.003816605,0,
00:03.8,-0.002912521,-0.00920105,0.003816605,0,
00:03.8,-0.002912521,-0.009206772,0.003816605,0,
00:03.8,-0.002912521,-0.00920105,0.003816605,0,
00:03.8,-0.002918243,-0.009195328,0.003816605,0,
00:03.8,-0.002918243,-0.009212494,0.003810883,0,
00:03.8,-0.002918243,-0.009218216,0.003810883,0,
00:03.9,-0.002918243,-0.009206772,0.003816605,0,
00:03.9,-0.002918243,-0.009189606,0.003822327,0,
00:03.9,-0.002918243,-0.009189606,0.003816605,0,
00:03.9,-0.002918243,-0.009195328,0.003810883,0,
00:03.9,-0.002912521,-0.00920105,0.003810883,0,
00:03.9,-0.002912521,-0.009206772,0.003816605,0,
00:03.9,-0.002912521,-0.009206772,0.003816605,0,
00:03.9,-0.002912521,-0.009189606,0.003805161,0,
00:03.9,-0.002918243,-0.009195328,0.003805161,0,
00:03.9,-0.002918243,-0.009195328,0.003810883,0,
00:03.9,-0.002912521,-0.00920105,0.003816605,0,
00:03.9,-0.002918243,-0.009206772,0.003816605,0,
00:03.9,-0.002918243,-0.009212494,0.003816605,0,
00:03.9,-0.002918243,-0.009223938,0.003810883,0,
00:03.9,-0.002912521,-0.009206772,0.003810883,0,
00:03.9,-0.002912521,-0.009189606,0.003810883,0,
00:03.9,-0.002912521,-0.009189606,0.003805161,0,
00:03.9,-0.002918243,-0.009206772,0.003805161,0,
00:03.9,-0.002918243,-0.009218216,0.003810883,0,
00:03.9,-0.002912521,-0.009212494,0.003810883,0,
00:03.9,-0.002912521,-0.009206772,0.003816605,0,
00:03.9,-0.002912521,-0.00920105,0.003816605,0,
00:03.9,-0.002912521,-0.00920105,0.003816605,0,
00:03.9,-0.002912521,-0.009206772,0.003810883,0,
00:03.9,-0.002912521,-0.009206772,0.003805161,0,
00:04.0,-0.002912521,-0.009195328,0.003805161,0,
00:04.0,-0.002912521,-0.00920105,0.003810883,0,
00:04.0,-0.002918243,-0.009206772,0.003810883,0,
00:04.0,-0.002918243,-0.009206772,0.003805161,0,
00:04.0,-0.002912521,-0.00920105,0.003805161,0,
00:04.0,-0.002912521,-0.00920105,0.003805161,0,
00:04.0,-0.002912521,-0.00920105,0.003805161,0,
00:04.0,-0.002918243,-0.009212494,0.003805161,0,
00:04.0,-0.002918243,-0.009212494,0.003805161,0,
00:04.0,-0.002918243,-0.00920105,0.003805161,0,
00:04.0,-0.002912521,-0.009189606,0.003810883,0,
00:04.0,-0.002918243,-0.009195328,0.003810883,0,
00:00:04,-0.002918243,-0.009212494,0.003805161,0,
00:04.0,-0.002918243,-0.009218216,0.003799438,0,
00:04.0,-0.002912521,-0.009218216,0.003799438,0,
00:04.0,-0.002918243,-0.009212494,0.003799438,0,
00:04.0,-0.002918243,-0.009206772,0.003805161,0,
00:04.0,-0.002918243,-0.009212494,0.003805161,0,
00:04.0,-0.002912521,-0.009206772,0.003799438,0,
00:04.0,-0.002912521,-0.009206772,0.003793716,0,
00:04.0,-0.002912521,-0.009212494,0.003799438,0,
00:04.0,-0.002912521,-0.00920105,0.003810883,0,
00:04.0,-0.002912521,-0.009206772,0.003799438,0,
00:04.0,-0.002912521,-0.009206772,0.003799438,0,
00:04.0,-0.002912521,-0.00920105,0.003793716,0,
00:04.1,-0.002912521,-0.00920105,0.003805161,0,
00:04.1,-0.002912521,-0.00920105,0.003805161,0,
00:04.1,-0.002912521,-0.00920105,0.003805161,0,
00:04.1,-0.002912521,-0.00920105,0.003793716,0,
00:04.1,-0.002912521,-0.009206772,0.003793716,0,
00:04.1,-0.002912521,-0.009212494,0.003799438,0,
00:04.1,-0.002912521,-0.009223938,0.003799438,0,
00:04.1,-0.002918243,-0.009218216,0.003793716,0,
00:04.1,-0.002912521,-0.00920105,0.003799438,0,
00:04.1,-0.002912521,-0.009189606,0.003793716,0,
00:04.1,-0.002912521,-0.009189606,0.003793716,0,
00:04.1,-0.002912521,-0.00920105,0.003799438,0,
00:04.1,-0.002912521,-0.009206772,0.003799438,0,
00:04.1,-0.002918243,-0.009212494,0.003799438,0,
00:04.1,-0.002918243,-0.009218216,0.003799438,0,
00:04.1,-0.002918243,-0.009206772,0.003799438,0,
00:04.1,-0.002918243,-0.00920105,0.003799438,0,
00:04.1,-0.002918243,-0.009206772,0.003793716,0,
00:04.1,-0.002918243,-0.00920105,0.003787994,0,
00:04.1,-0.002912521,-0.00920105,0.003799438,0,
00:04.1,-0.002912521,-0.009206772,0.003793716,0,
00:04.1,-0.002918243,-0.009218216,0.003793716,0,
00:04.1,-0.002918243,-0.009218216,0.003793716,0,
00:04.1,-0.002918243,-0.009212494,0.003787994,0,
00:04.1,-0.002912521,-0.009212494,0.003782272,0,
00:04.2,-0.002912521,-0.009212494,0.003787994,0,
00:04.2,-0.002912521,-0.009206772,0.003799438,0,
00:04.2,-0.002912521,-0.009206772,0.003793716,0,
00:04.2,-0.002912521,-0.00920105,0.003787994,0,
00:04.2,-0.002912521,-0.009206772,0.003782272,0,
00:04.2,-0.002912521,-0.00920105,0.003787994,0,
00:04.2,-0.002912521,-0.009195328,0.003793716,0,
00:04.2,-0.002918243,-0.00920105,0.003787994,0,
00:04.2,-0.002918243,-0.009212494,0.003782272,0,
00:04.2,-0.002912521,-0.009212494,0.003782272,0,
00:04.2,-0.002912521,-0.009212494,0.003787994,0,
00:04.2,-0.002912521,-0.009206772,0.003787994,0,
00:04.2,-0.002918243,-0.00920105,0.003787994,0,
00:04.2,-0.002918243,-0.009206772,0.003787994,0,
00:04.2,-0.002918243,-0.009218216,0.003782272,0,
00:04.2,-0.002918243,-0.009218216,0.003787994,0,
00:04.2,-0.002918243,-0.009212494,0.003787994,0,
00:04.2,-0.002918243,-0.009206772,0.003787994,0,
00:04.2,-0.002918243,-0.009206772,0.003782272,0,
00:04.2,-0.002912521,-0.009212494,0.003782272,0,
00:04.2,-0.002912521,-0.009212494,0.003782272,0,
00:04.2,-0.002918243,-0.009218216,0.003782272,0,
00:04.2,-0.002918243,-0.009223938,0.003782272,0,
00:04.2,-0.002912521,-0.009212494,0.00377655,0,
00:04.2,-0.002912521,-0.00920105,0.00377655,0,
00:04.3,-0.002912521,-0.009206772,0.003793716,0,
00:04.3,-0.002918243,-0.00920105,0.003787994,0,
00:04.3,-0.002918243,-0.009206772,0.003782272,0,
00:04.3,-0.002918243,-0.009212494,0.00377655,0,
00:04.3,-0.002912521,-0.009206772,0.00377655,0,
00:04.3,-0.002912521,-0.00920105,0.00377655,0,
00:04.3,-0.002918243,-0.009206772,0.003787994,0,
00:04.3,-0.002918243,-0.009212494,0.003782272,0,
00:04.3,-0.002918243,-0.009218216,0.00377655,0,
00:04.3,-0.002918243,-0.009218216,0.00377655,0,
00:04.3,-0.002918243,-0.00920105,0.003782272,0,
00:04.3,-0.002918243,-0.00920105,0.003782272,0,
00:04.3,-0.002918243,-0.009223938,0.003787994,0,
00:04.3,-0.002918243,-0.009212494,0.00377655,0,
00:04.3,-0.002918243,-0.009206772,0.00377655,0,
00:04.3,-0.002918243,-0.009212494,0.003782272,0,
00:04.3,-0.002918243,-0.009212494,0.003782272,0,
00:04.3,-0.002918243,-0.009206772,0.00377655,0,
00:04.3,-0.002918243,-0.009212494,0.00377655,0,
00:04.3,-0.002918243,-0.009223938,0.003770828,0,
00:04.3,-0.002918243,-0.00922966,0.003770828,0,
00:04.3,-0.002918243,-0.009206772,0.003782272,0,
00:04.3,-0.002912521,-0.00920105,0.00377655,0,
00:04.3,-0.002918243,-0.009206772,0.003770828,0,
00:04.3,-0.002918243,-0.009212494,0.00377655,0,
00:04.4,-0.002918243,-0.009212494,0.003782272,0,
00:04.4,-0.002918243,-0.009206772,0.00377655,0,
00:04.4,-0.002918243,-0.009206772,0.00377655,0,
00:04.4,-0.002918243,-0.009212494,0.003770828,0,
00:04.4,-0.002912521,-0.009206772,0.003770828,0,
00:04.4,-0.002918243,-0.009212494,0.00377655,0,
00:04.4,-0.002918243,-0.009218216,0.00377655,0,
00:04.4,-0.002918243,-0.009218216,0.00377655,0,
00:04.4,-0.002918243,-0.009212494,0.003770828,0,
00:04.4,-0.002918243,-0.009212494,0.003770828,0,
00:04.4,-0.002918243,-0.009212494,0.003765106,0,
00:04.4,-0.002923965,-0.009212494,0.003765106,0,
00:04.4,-0.002918243,-0.009212494,0.00377655,0,
00:04.4,-0.002918243,-0.009218216,0.003770828,0,
00:04.4,-0.002918243,-0.009218216,0.003770828,0,
00:04.4,-0.002918243,-0.009212494,0.00377655,0,
00:04.4,-0.002923965,-0.009218216,0.003770828,0,
00:04.4,-0.002923965,-0.009235382,0.003765106,0,
00:04.4,-0.002923965,-0.009241104,0.003765106,0,
00:04.4,-0.002923965,-0.009218216,0.00377655,0,
00:04.4,-0.002918243,-0.00920105,0.00377655,0,
00:04.4,-0.002918243,-0.00920105,0.003770828,0,
00:04.4,-0.002918243,-0.009206772,0.003765106,0,
00:04.4,-0.002918243,-0.009212494,0.003765106,0,
00:04.4,-0.002918243,-0.009212494,0.003770828,0,
00:04.5,-0.002918243,-0.009212494,0.00377655,0,
00:04.5,-0.002923965,-0.009218216,0.00377655,0,
00:04.5,-0.002923965,-0.009212494,0.003770828,0,
00:04.5,-0.002923965,-0.009206772,0.003770828,0,
00:04.5,-0.002923965,-0.009212494,0.003770828,0,
00:04.5,-0.002923965,-0.009218216,0.003770828,0,
00:04.5,-0.002923965,-0.009212494,0.003770828,0,
00:04.5,-0.002923965,-0.009212494,0.003770828,0,
00:04.5,-0.002918243,-0.009212494,0.003759384,0,
00:04.5,-0.002923965,-0.009218216,0.003759384,0,
00:04.5,-0.002923965,-0.009212494,0.003770828,0,
00:04.5,-0.002923965,-0.009218216,0.003770828,0,
00:04.5,-0.002923965,-0.009223938,0.003770828,0,
00:04.5,-0.002923965,-0.009218216,0.003765106,0,
00:04.5,-0.002918243,-0.009206772,0.003759384,0,
00:04.5,-0.002923965,-0.009218216,0.003753662,0,
00:04.5,-0.002923965,-0.009223938,0.003765106,0,
00:04.5,-0.002918243,-0.009212494,0.003770828,0,
00:04.5,-0.002918243,-0.00920105,0.003765106,0,
00:04.5,-0.002918243,-0.009212494,0.003770828,0,
00:04.5,-0.002923965,-0.009218216,0.003770828,0,
00:04.5,-0.002918243,-0.009212494,0.00377655,0,
00:04.5,-0.002918243,-0.009206772,0.003765106,0,
00:04.5,-0.002918243,-0.009212494,0.003759384,0,
00:04.5,-0.002918243,-0.009223938,0.003765106,0,
00:04.6,-0.002923965,-0.009235382,0.003770828,0,
00:04.6,-0.002923965,-0.009235382,0.003770828,0,
00:04.6,-0.002923965,-0.009223938,0.003765106,0,
00:04.6,-0.002918243,-0.009218216,0.003759384,0,
00:04.6,-0.002918243,-0.009212494,0.003759384,0,
00:04.6,-0.002918243,-0.009206772,0.003765106,0,
00:04.6,-0.002918243,-0.00920105,0.003765106,0,
00:04.6,-0.002918243,-0.009206772,0.003759384,0,
00:04.6,-0.002918243,-0.009223938,0.003753662,0,
00:04.6,-0.002918243,-0.009223938,0.003759384,0,
00:04.6,-0.002918243,-0.009218216,0.003765106,0,
00:04.6,-0.002923965,-0.009218216,0.003765106,0,
00:04.6,-0.002918243,-0.009218216,0.003759384,0,
00:04.6,-0.002918243,-0.009206772,0.003759384,0,
00:04.6,-0.002918243,-0.009206772,0.003759384,0,
00:04.6,-0.002918243,-0.009218216,0.003759384,0,
00:04.6,-0.002918243,-0.00922966,0.003753662,0,
00:04.6,-0.002923965,-0.009223938,0.003759384,0,
00:04.6,-0.002918243,-0.00920105,0.003759384,0,
00:04.6,-0.002918243,-0.00920105,0.003753662,0,
00:04.6,-0.002918243,-0.009206772,0.003753662,0,
00:04.6,-0.002923965,-0.009212494,0.003765106,0,
00:04.6,-0.002923965,-0.009218216,0.003770828,0,
00:04.6,-0.002918243,-0.009218216,0.003765106,0,
00:04.6,-0.002918243,-0.009218216,0.003765106,0,
00:04.7,-0.002918243,-0.009218216,0.003765106,0,
00:04.7,-0.002918243,-0.009218216,0.003759384,0,
00:04.7,-0.002918243,-0.009212494,0.003759384,0,
00:04.7,-0.002918243,-0.009218216,0.003753662,0,
00:04.7,-0.002918243,-0.009218216,0.003753662,0,
00:04.7,-0.002923965,-0.009218216,0.003759384,0,
00:04.7,-0.002923965,-0.009223938,0.003759384,0,
00:04.7,-0.002923965,-0.00922966,0.003753662,0,
00:04.7,-0.002923965,-0.00922966,0.003753662,0,
00:04.7,-0.002923965,-0.009218216,0.003753662,0,
00:04.7,-0.002918243,-0.009212494,0.003759384,0,
00:04.7,-0.002923965,-0.009223938,0.003759384,0,
00:04.7,-0.002923965,-0.009218216,0.003753662,0,
00:04.7,-0.002923965,-0.009218216,0.003753662,0,
00:04.7,-0.002918243,-0.009218216,0.00374794,0,
00:04.7,-0.002918243,-0.009218216,0.00374794,0,
00:04.7,-0.002923965,-0.009212494,0.003753662,0,
00:04.7,-0.002923965,-0.009212494,0.00374794,0,
00:04.7,-0.002918243,-0.009212494,0.00374794,0,
00:04.7,-0.002918243,-0.009212494,0.003742218,0,
00:04.7,-0.002918243,-0.009212494,0.003759384,0,
00:04.7,-0.002923965,-0.009218216,0.003765106,0,
00:04.7,-0.002923965,-0.009218216,0.003753662,0,
00:04.7,-0.002923965,-0.009223938,0.00374794,0,
00:04.7,-0.002918243,-0.00922966,0.003742218,0,
00:04.8,-0.002923965,-0.009235382,0.00374794,0,
00:04.8,-0.002923965,-0.009218216,0.003753662,0,
00:04.8,-0.002923965,-0.009206772,0.00374794,0,
00:04.8,-0.002923965,-0.009206772,0.003742218,0,
00:04.8,-0.002923965,-0.009218216,0.00374794,0,
00:04.8,-0.002923965,-0.009218216,0.00374794,0,
00:04.8,-0.002923965,-0.009212494,0.00374794,0,
00:04.8,-0.002923965,-0.009212494,0.003742218,0,
00:04.8,-0.002923965,-0.009212494,0.003742218,0,
00:04.8,-0.002923965,-0.009218216,0.003742218,0,
00:04.8,-0.002923965,-0.00922966,0.00374794,0,
00:04.8,-0.002929688,-0.009235382,0.00374794,0,
00:04.8,-0.002923965,-0.009223938,0.003742218,0,
00:04.8,-0.002923965,-0.009206772,0.003730774,0,
00:04.8,-0.002923965,-0.009206772,0.003730774,0,
00:04.8,-0.002923965,-0.009212494,0.003742218,0,
00:04.8,-0.002929688,-0.009218216,0.00374794,0,
00:04.8,-0.002929688,-0.009223938,0.003742218,0,
00:04.8,-0.002923965,-0.00922966,0.003742218,0,
00:04.8,-0.002923965,-0.009218216,0.003742218,0,
00:04.8,-0.002923965,-0.009212494,0.003742218,0,
00:04.8,-0.002923965,-0.009212494,0.003736496,0,
00:04.8,-0.002923965,-0.009212494,0.003736496,0,
00:04.8,-0.002923965,-0.009218216,0.003736496,0,
00:04.8,-0.002923965,-0.00922966,0.003730774,0,
00:04.9,-0.002923965,-0.009218216,0.003742218,0,
00:04.9,-0.002923965,-0.009218216,0.003742218,0,
00:04.9,-0.002923965,-0.009218216,0.003736496,0,
00:04.9,-0.002923965,-0.009212494,0.003730774,0,
00:04.9,-0.002923965,-0.009206772,0.003730774,0,
00:04.9,-0.002923965,-0.009212494,0.003742218,0,
00:04.9,-0.002929688,-0.009223938,0.003742218,0,
00:04.9,-0.002929688,-0.009223938,0.003736496,0,
00:04.9,-0.002923965,-0.009212494,0.003736496,0,
00:04.9,-0.002923965,-0.009212494,0.003736496,0,
00:04.9,-0.002923965,-0.009212494,0.003736496,0,
00:04.9,-0.002923965,-0.009206772,0.003736496,0,
00:04.9,-0.002929688,-0.009218216,0.003736496,0,
00:04.9,-0.002929688,-0.00922966,0.003730774,0,
00:04.9,-0.002929688,-0.00922966,0.003730774,0,
00:04.9,-0.002929688,-0.009223938,0.003742218,0,
00:04.9,-0.002929688,-0.009218216,0.003736496,0,
00:04.9,-0.002923965,-0.009218216,0.003736496,0,
00:04.9,-0.002923965,-0.009223938,0.003730774,0,
00:04.9,-0.002923965,-0.00922966,0.003730774,0,
00:04.9,-0.002923965,-0.009223938,0.003730774,0,
00:04.9,-0.002923965,-0.009218216,0.003730774,0,
00:04.9,-0.002923965,-0.009223938,0.003730774,0,
00:04.9,-0.002923965,-0.00922966,0.003725052,0,
00:04.9,-0.002923965,-0.009218216,0.003730774,0,
00:05.0,-0.002923965,-0.009218216,0.003736496,0,
00:05.0,-0.002923965,-0.009218216,0.003736496,0,
00:05.0,-0.002923965,-0.009218216,0.003730774,0,
00:05.0,-0.002923965,-0.009218216,0.003730774,0,
00:05.0,-0.002923965,-0.009212494,0.003730774,0,
00:05.0,-0.002923965,-0.009212494,0.003736496,0,
00:05.0,-0.002923965,-0.009223938,0.003730774,0,
00:05.0,-0.002923965,-0.00922966,0.003725052,0,
00:05.0,-0.002929688,-0.00922966,0.003725052,0,
00:05.0,-0.002923965,-0.009223938,0.003736496,0,
00:05.0,-0.002923965,-0.009223938,0.003736496,0,
00:05.0,-0.002929688,-0.009218216,0.003736496,0,
00:00:05,-0.002923965,-0.009223938,0.003730774,0,
00:05.0,-0.002923965,-0.009235382,0.003725052,0,
00:05.0,-0.002923965,-0.009235382,0.003730774,0,
00:05.0,-0.002923965,-0.009223938,0.003730774,0,
00:05.0,-0.002923965,-0.009223938,0.003730774,0,
00:05.0,-0.002923965,-0.00922966,0.003736496,0,
00:05.0,-0.002923965,-0.009223938,0.003725052,0,
00:05.0,-0.002923965,-0.009223938,0.003725052,0,
00:05.0,-0.002923965,-0.00922966,0.003730774,0,
00:05.0,-0.002923965,-0.00922966,0.003730774,0,
00:05.0,-0.002923965,-0.009241104,0.003730774,0,
00:05.0,-0.002923965,-0.00922966,0.003725052,0,
00:05.0,-0.002918243,-0.009206772,0.003725052,0,
00:05.1,-0.002918243,-0.009212494,0.003736496,0,
00:05.1,-0.002923965,-0.009223938,0.003730774,0,
00:05.1,-0.002923965,-0.00922966,0.003725052,0,
00:05.1,-0.002923965,-0.00922966,0.00371933,0,
00:05.1,-0.002923965,-0.009235382,0.00371933,0,
00:05.1,-0.002929688,-0.009246826,0.003725052,0,
00:05.1,-0.002929688,-0.00922966,0.003730774,0,
00:05.1,-0.002923965,-0.009212494,0.003725052,0,
00:05.1,-0.002923965,-0.009212494,0.003725052,0,
00:05.1,-0.002918243,-0.009223938,0.003730774,0,
00:05.1,-0.002923965,-0.009223938,0.003730774,0,
00:05.1,-0.002923965,-0.009212494,0.003725052,0,
00:05.1,-0.002923965,-0.009218216,0.003725052,0,
00:05.1,-0.002923965,-0.009218216,0.00371933,0,
00:05.1,-0.002923965,-0.009223938,0.003713608,0,
00:05.1,-0.002923965,-0.009235382,0.003725052,0,
00:05.1,-0.002929688,-0.00922966,0.003730774,0,
00:05.1,-0.002923965,-0.009218216,0.003725052,0,
00:05.1,-0.002923965,-0.009212494,0.00371933,0,
00:05.1,-0.002923965,-0.00922966,0.003725052,0,
00:05.1,-0.002923965,-0.009235382,0.003725052,0,
00:05.1,-0.002923965,-0.009223938,0.00371933,0,
00:05.1,-0.002923965,-0.009218216,0.00371933,0,
00:05.1,-0.002923965,-0.009223938,0.003725052,0,
00:05.1,-0.002923965,-0.009223938,0.00371933,0,
00:05.2,-0.002923965,-0.00922966,0.003730774,0,
00:05.2,-0.002929688,-0.009223938,0.003730774,0,
00:05.2,-0.002929688,-0.00922966,0.003725052,0,
00:05.2,-0.002929688,-0.00922966,0.00371933,0,
00:05.2,-0.002923965,-0.009235382,0.003725052,0,
00:05.2,-0.002929688,-0.009223938,0.003725052,0,
00:05.2,-0.002923965,-0.009212494,0.003725052,0,
00:05.2,-0.002923965,-0.009218216,0.00371933,0,
00:05.2,-0.002923965,-0.00922966,0.00371933,0,
00:05.2,-0.002923965,-0.009235382,0.003725052,0,
00:05.2,-0.002929688,-0.009235382,0.003725052,0,
00:05.2,-0.002929688,-0.009223938,0.003725052,0,
00:05.2,-0.002923965,-0.009218216,0.003713608,0,
00:05.2,-0.002923965,-0.00922966,0.003713608,0,
00:05.2,-0.002923965,-0.009235382,0.003725052,0,
00:05.2,-0.002929688,-0.009235382,0.003725052,0,
00:05.2,-0.002929688,-0.00922966,0.003725052,0,
00:05.2,-0.002929688,-0.00922966,0.00371933,0,
00:05.2,-0.002929688,-0.00922966,0.003713608,0,
00:05.2,-0.002929688,-0.009235382,0.00371933,0,
00:05.2,-0.002929688,-0.009235382,0.00371933,0,
00:05.2,-0.002929688,-0.009223938,0.00371933,0,
00:05.2,-0.002929688,-0.00922966,0.003713608,0,
00:05.2,-0.002929688,-0.00922966,0.003713608,0,
00:05.2,-0.002929688,-0.009223938,0.00371933,0,
00:05.3,-0.002929688,-0.009223938,0.003725052,0,
00:05.3,-0.002929688,-0.009235382,0.00371933,0,
00:05.3,-0.002929688,-0.00922966,0.003713608,0,
00:05.3,-0.002929688,-0.009223938,0.003713608,0,
00:05.3,-0.002929688,-0.009223938,0.00371933,0,
00:05.3,-0.002929688,-0.00922966,0.00371933,0,
00:05.3,-0.002929688,-0.00922966,0.003713608,0,
00:05.3,-0.002929688,-0.009223938,0.003707886,0,
00:05.3,-0.002929688,-0.009223938,0.003713608,0,
00:05.3,-0.002929688,-0.00922966,0.003713608,0,
00:05.3,-0.002929688,-0.00922966,0.003713608,0,
00:05.3,-0.002929688,-0.009223938,0.003707886,0,
00:05.3,-0.002929688,-0.009223938,0.003702164,0,
00:05.3,-0.002929688,-0.009223938,0.003707886,0,
00:05.3,-0.002929688,-0.00922966,0.00371933,0,
00:05.3,-0.002929688,-0.009235382,0.00371933,0,
00:05.3,-0.002929688,-0.009246826,0.003713608,0,
00:05.3,-0.002929688,-0.009235382,0.003707886,0,
00:05.3,-0.002929688,-0.009218216,0.003707886,0,
00:05.3,-0.002929688,-0.009218216,0.003713608,0,
00:05.3,-0.002929688,-0.00922966,0.003713608,0,
00:05.3,-0.002929688,-0.009241104,0.003713608,0,
00:05.3,-0.002929688,-0.009235382,0.003707886,0,
00:05.3,-0.002929688,-0.00922966,0.003707886,0,
00:05.3,-0.00293541,-0.00922966,0.003707886,0,
00:05.4,-0.00293541,-0.009241104,0.003707886,0,
00:05.4,-0.00293541,-0.009246826,0.003707886,0,
00:05.4,-0.00293541,-0.009241104,0.003713608,0,
00:05.4,-0.002929688,-0.009223938,0.003707886,0,
00:05.4,-0.002929688,-0.009212494,0.003713608,0,
00:05.4,-0.002929688,-0.009218216,0.003713608,0,
00:05.4,-0.00293541,-0.009223938,0.003707886,0,
00:05.4,-0.00293541,-0.009235382,0.003707886,0,
00:05.4,-0.002929688,-0.009235382,0.003707886,0,
00:05.4,-0.002929688,-0.00922966,0.003707886,0,
00:05.4,-0.002929688,-0.00922966,0.003707886,0,
00:05.4,-0.00293541,-0.00922966,0.003707886,0,
00:05.4,-0.00293541,-0.009223938,0.003707886,0,
00:05.4,-0.002929688,-0.009223938,0.003702164,0,
00:05.4,-0.002929688,-0.009223938,0.003707886,0,
00:05.4,-0.002929688,-0.00922966,0.003707886,0,
00:05.4,-0.00293541,-0.009235382,0.003707886,0,
00:05.4,-0.00293541,-0.00922966,0.003702164,0,
00:05.4,-0.00293541,-0.00922966,0.003702164,0,
00:05.4,-0.00293541,-0.00922966,0.003702164,0,
00:05.4,-0.00293541,-0.00922966,0.003702164,0,
00:05.4,-0.00293541,-0.00922966,0.003707886,0,
00:05.4,-0.00293541,-0.00922966,0.003707886,0,
00:05.4,-0.00293541,-0.00922966,0.003707886,0,
00:05.4,-0.00293541,-0.00922966,0.003707886,0,
00:05.5,-0.00293541,-0.00922966,0.003707886,0,
00:05.5,-0.002929688,-0.009223938,0.003702164,0,
00:05.5,-0.002929688,-0.009223938,0.003702164,0,
00:05.5,-0.00293541,-0.009235382,0.003707886,0,
00:05.5,-0.00293541,-0.00922966,0.003707886,0,
00:05.5,-0.00293541,-0.00922966,0.003707886,0,
00:05.5,-0.00293541,-0.009235382,0.003707886,0,
00:05.5,-0.00293541,-0.009235382,0.003702164,0,
00:05.5,-0.002929688,-0.00922966,0.003702164,0,
00:05.5,-0.002929688,-0.009223938,0.003702164,0,
00:05.5,-0.00293541,-0.009223938,0.003713608,0,
00:05.5,-0.00293541,-0.00922966,0.003707886,0,
00:05.5,-0.00293541,-0.009235382,0.003702164,0,
00:05.5,-0.00293541,-0.009241104,0.003707886,0,
00:05.5,-0.00293541,-0.009241104,0.003707886,0,
00:05.5,-0.00293541,-0.00922966,0.003707886,0,
00:05.5,-0.00293541,-0.009223938,0.003707886,0,
00:05.5,-0.00293541,-0.00922966,0.003702164,0,
00:05.5,-0.00293541,-0.009235382,0.003702164,0,
00:05.5,-0.00293541,-0.009235382,0.003707886,0,
00:05.5,-0.00293541,-0.00922966,0.003707886,0,
00:05.5,-0.00293541,-0.009235382,0.003702164,0,
00:05.5,-0.00293541,-0.009235382,0.003707886,0,
00:05.5,-0.002929688,-0.009241104,0.003707886,0,
00:05.5,-0.002929688,-0.009241104,0.003707886,0,
00:05.6,-0.00293541,-0.009235382,0.003713608,0,
00:05.6,-0.00293541,-0.00922966,0.003707886,0,
00:05.6,-0.002929688,-0.009218216,0.003702164,0,
00:05.6,-0.002929688,-0.00922966,0.003702164,0,
00:05.6,-0.002929688,-0.00922966,0.003702164,0,
00:05.6,-0.002929688,-0.009235382,0.003707886,0,
00:05.6,-0.00293541,-0.009235382,0.003696442,0,
00:05.6,-0.002929688,-0.009235382,0.003696442,0,
00:05.6,-0.002929688,-0.009235382,0.003702164,0,
00:05.6,-0.002929688,-0.009235382,0.003707886,0,
00:05.6,-0.002929688,-0.009235382,0.003707886,0,
00:05.6,-0.00293541,-0.009241104,0.003702164,0,
00:05.6,-0.002929688,-0.009235382,0.003702164,0,
00:05.6,-0.002929688,-0.009241104,0.003702164,0,
00:05.6,-0.002929688,-0.009241104,0.003702164,0,
00:05.6,-0.002929688,-0.009241104,0.003702164,0,
00:05.6,-0.00293541,-0.009246826,0.003702164,0,
00:05.6,-0.002929688,-0.009246826,0.003702164,0,
00:05.6,-0.002923965,-0.009235382,0.003702164,0,
00:05.6,-0.002923965,-0.00922966,0.003702164,0,
00:05.6,-0.002929688,-0.009235382,0.003702164,0,
00:05.6,-0.002929688,-0.009241104,0.003702164,0,
00:05.6,-0.002929688,-0.009246826,0.003702164,0,
00:05.6,-0.002923965,-0.009235382,0.003696442,0,
00:05.6,-0.002923965,-0.009223938,0.003707886,0,
00:05.7,-0.002923965,-0.009223938,0.003713608,0,
00:05.7,-0.002929688,-0.00922966,0.003702164,0,
00:05.7,-0.002929688,-0.009235382,0.003702164,0,
00:05.7,-0.002929688,-0.009241104,0.003702164,0,
00:05.7,-0.002929688,-0.009246826,0.003702164,0,
00:05.7,-0.002929688,-0.009246826,0.003707886,0,
00:05.7,-0.002929688,-0.009241104,0.003702164,0,
00:05.7,-0.002929688,-0.00922966,0.003696442,0,
00:05.7,-0.002923965,-0.00922966,0.003696442,0,
00:05.7,-0.002929688,-0.009241104,0.003696442,0,
00:05.7,-0.002929688,-0.009241104,0.003702164,0,
00:05.7,-0.002929688,-0.009246826,0.003702164,0,
00:05.7,-0.002929688,-0.009246826,0.003702164,0,
00:05.7,-0.002929688,-0.009241104,0.003702164,0,
00:05.7,-0.002929688,-0.009241104,0.003702164,0,
00:05.7,-0.002929688,-0.009235382,0.003702164,0,
00:05.7,-0.002929688,-0.009241104,0.003702164,0,
00:05.7,-0.002929688,-0.009241104,0.003696442,0,
00:05.7,-0.002929688,-0.009241104,0.003702164,0,
00:05.7,-0.002929688,-0.009241104,0.003707886,0,
00:05.7,-0.002929688,-0.009246826,0.003702164,0,
00:05.7,-0.00293541,-0.009241104,0.003702164,0,
00:05.7,-0.002929688,-0.00922966,0.003702164,0,
00:05.7,-0.002929688,-0.009235382,0.003696442,0,
00:05.7,-0.002929688,-0.009241104,0.003696442,0,
00:05.8,-0.00293541,-0.009246826,0.003707886,0,
00:05.8,-0.00293541,-0.009241104,0.003702164,0,
00:05.8,-0.002929688,-0.00922966,0.003696442,0,
00:05.8,-0.002929688,-0.00922966,0.003696442,0,
00:05.8,-0.002929688,-0.009235382,0.003702164,0,
00:05.8,-0.002929688,-0.009241104,0.003702164,0,
00:05.8,-0.00293541,-0.009241104,0.003702164,0,
00:05.8,-0.002929688,-0.009246826,0.003696442,0,
00:05.8,-0.002929688,-0.009241104,0.003696442,0,
00:05.8,-0.002929688,-0.009241104,0.003696442,0,
00:05.8,-0.002929688,-0.009246826,0.003702164,0,
00:05.8,-0.00293541,-0.009252548,0.003702164,0,
00:05.8,-0.00293541,-0.009246826,0.003696442,0,
00:05.8,-0.002929688,-0.009235382,0.003696442,0,
00:05.8,-0.002929688,-0.00922966,0.003702164,0,
00:05.8,-0.002929688,-0.00922966,0.003696442,0,
00:05.8,-0.002929688,-0.009235382,0.003696442,0,
00:05.8,-0.00293541,-0.009241104,0.003696442,0,
00:05.8,-0.002929688,-0.009241104,0.003696442,0,
00:05.8,-0.00293541,-0.009246826,0.003702164,0,
00:05.8,-0.00293541,-0.009252548,0.003702164,0,
00:05.8,-0.00293541,-0.009246826,0.003702164,0,
00:05.8,-0.00293541,-0.009241104,0.003696442,0,
00:05.8,-0.002929688,-0.00922966,0.003696442,0,
00:05.8,-0.002929688,-0.009235382,0.003696442,0,
00:05.9,-0.00293541,-0.009246826,0.003696442,0,
00:05.9,-0.00293541,-0.009246826,0.003702164,0,
00:05.9,-0.002929688,-0.009235382,0.003702164,0,
00:05.9,-0.002929688,-0.009235382,0.003696442,0,
00:05.9,-0.002929688,-0.009246826,0.00369072,0,
00:05.9,-0.00293541,-0.009241104,0.003702164,0,
00:05.9,-0.00293541,-0.009246826,0.003707886,0,
00:05.9,-0.00293541,-0.009252548,0.003702164,0,
00:05.9,-0.00293541,-0.009252548,0.003702164,0,
00:05.9,-0.00293541,-0.009246826,0.003702164,0,
00:05.9,-0.00293541,-0.009235382,0.003702164,0,
00:05.9,-0.00293541,-0.00922966,0.003696442,0,
00:05.9,-0.002929688,-0.00922966,0.003696442,0,
00:05.9,-0.002929688,-0.009235382,0.003696442,0,
00:05.9,-0.002929688,-0.009241104,0.003702164,0,
00:05.9,-0.00293541,-0.009246826,0.003707886,0,
00:05.9,-0.00293541,-0.009241104,0.003702164,0,
00:05.9,-0.002929688,-0.009241104,0.003696442,0,
00:05.9,-0.00293541,-0.009241104,0.003696442,0,
00:05.9,-0.002929688,-0.009235382,0.003702164,0,
00:05.9,-0.00293541,-0.009235382,0.003702164,0,
00:05.9,-0.00293541,-0.009241104,0.003696442,0,
00:05.9,-0.00293541,-0.009246826,0.00369072,0,
00:05.9,-0.002929688,-0.009246826,0.00369072,0,
00:05.9,-0.00293541,-0.009241104,0.00369072,0,
00:06.0,-0.00293541,-0.009252548,0.003707886,0,
00:06.0,-0.00293541,-0.009252548,0.003702164,0,
00:06.0,-0.00293541,-0.009241104,0.003707886,0,
00:06.0,-0.00293541,-0.00922966,0.003702164,0,
00:06.0,-0.00293541,-0.009241104,0.003702164,0,
00:06.0,-0.00293541,-0.009241104,0.003702164,0,
00:06.0,-0.00293541,-0.009235382,0.003702164,0,
00:06.0,-0.002941132,-0.009246826,0.003702164,0,
00:06.0,-0.002941132,-0.009252548,0.003696442,0,
00:06.0,-0.002941132,-0.009241104,0.003702164,0,
00:06.0,-0.00293541,-0.00922966,0.003702164,0,
00:06.0,-0.00293541,-0.00922966,0.003696442,0,
00:00:06,-0.00293541,-0.009235382,0.003696442,0,
00:06.0,-0.00293541,-0.009241104,0.003696442,0,
00:06.0,-0.002941132,-0.009241104,0.003696442,0,
00:06.0,-0.002941132,-0.009241104,0.003702164,0,
00:06.0,-0.00293541,-0.009241104,0.003702164,0,
00:06.0,-0.00293541,-0.009241104,0.003696442,0,
00:06.0,-0.00293541,-0.009241104,0.003702164,0,
00:06.0,-0.00293541,-0.009241104,0.003702164,0,
00:06.0,-0.00293541,-0.009241104,0.003702164,0,
00:06.0,-0.002941132,-0.009241104,0.003696442,0,
00:06.0,-0.002941132,-0.009241104,0.00369072,0,
00:06.0,-0.00293541,-0.009246826,0.003702164,0,
00:06.0,-0.00293541,-0.009246826,0.003707886,0,
00:06.1,-0.00293541,-0.009246826,0.003702164,0,
00:06.1,-0.002941132,-0.009246826,0.003702164,0,
00:06.1,-0.002941132,-0.009252548,0.003702164,0,
00:06.1,-0.00293541,-0.00925827,0.003702164,0,
00:06.1,-0.00293541,-0.009246826,0.003702164,0,
00:06.1,-0.00293541,-0.009235382,0.003702164,0,
00:06.1,-0.00293541,-0.009235382,0.003702164,0,
00:06.1,-0.00293541,-0.009246826,0.003696442,0,
00:06.1,-0.00293541,-0.009252548,0.003696442,0,
00:06.1,-0.00293541,-0.009246826,0.003702164,0,
00:06.1,-0.00293541,-0.009241104,0.003702164,0,
00:06.1,-0.00293541,-0.009235382,0.003696442,0,
00:06.1,-0.00293541,-0.009235382,0.003696442,0,
00:06.1,-0.00293541,-0.009241104,0.003696442,0,
00:06.1,-0.002929688,-0.009241104,0.003702164,0,
00:06.1,-0.00293541,-0.009246826,0.003696442,0,
00:06.1,-0.00293541,-0.009252548,0.003696442,0,
00:06.1,-0.00293541,-0.009246826,0.003696442,0,
00:06.1,-0.00293541,-0.009246826,0.00369072,0,
00:06.1,-0.00293541,-0.009252548,0.003702164,0,
00:06.1,-0.00293541,-0.009246826,0.003702164,0,
00:06.1,-0.00293541,-0.009246826,0.003702164,0,
00:06.1,-0.00293541,-0.009246826,0.00369072,0,
00:06.1,-0.00293541,-0.009252548,0.00369072,0,
00:06.1,-0.00293541,-0.009252548,0.003702164,0,
00:06.2,-0.00293541,-0.009252548,0.003702164,0,
00:06.2,-0.002941132,-0.00925827,0.003696442,0,
00:06.2,-0.00293541,-0.009252548,0.00369072,0,
00:06.2,-0.00293541,-0.009241104,0.003696442,0,
00:06.2,-0.00293541,-0.009241104,0.003702164,0,
00:06.2,-0.00293541,-0.009246826,0.003696442,0,
00:06.2,-0.00293541,-0.009246826,0.003696442,0,
00:06.2,-0.00293541,-0.009241104,0.00369072,0,
00:06.2,-0.00293541,-0.009241104,0.003684998,0,
00:06.2,-0.002929688,-0.009246826,0.003702164,0,
00:06.2,-0.00293541,-0.009252548,0.003702164,0,
00:06.2,-0.00293541,-0.009252548,0.00369072,0,
00:06.2,-0.00293541,-0.009246826,0.003696442,0,
00:06.2,-0.00293541,-0.009246826,0.003702164,0,
00:06.2,-0.00293541,-0.00925827,0.003702164,0,
00:06.2,-0.00293541,-0.009252548,0.003702164,0,
00:06.2,-0.00293541,-0.009241104,0.003696442,0,
00:06.2,-0.00293541,-0.009241104,0.00369072,0,
00:06.2,-0.00293541,-0.009241104,0.00369072,0,
00:06.2,-0.002929688,-0.009241104,0.003696442,0,
00:06.2,-0.00293541,-0.009246826,0.00369072,0,
00:06.2,-0.002941132,-0.009246826,0.003696442,0,
00:06.2,-0.002941132,-0.009252548,0.003702164,0,
00:06.2,-0.002941132,-0.009263992,0.003702164,0,
00:06.2,-0.002941132,-0.00925827,0.003702164,0,
00:06.3,-0.002941132,-0.009252548,0.003702164,0,
00:06.3,-0.002941132,-0.009252548,0.003702164,0,
00:06.3,-0.00293541,-0.009241104,0.00369072,0,
00:06.3,-0.00293541,-0.009235382,0.003696442,0,
00:06.3,-0.00293541,-0.009246826,0.003702164,0,
00:06.3,-0.00293541,-0.009241104,0.003702164,0,
00:06.3,-0.002941132,-0.009246826,0.003702164,0,
00:06.3,-0.002941132,-0.009252548,0.00369072,0,
00:06.3,-0.002941132,-0.009252548,0.003696442,0,
00:06.3,-0.002941132,-0.00925827,0.003702164,0,
00:06.3,-0.002941132,-0.009263992,0.003702164,0,
00:06.3,-0.002941132,-0.009252548,0.003702164,0,
00:06.3,-0.00293541,-0.009241104,0.003696442,0,
00:06.3,-0.00293541,-0.009241104,0.003702164,0,
00:06.3,-0.00293541,-0.009246826,0.003696442,0,
00:06.3,-0.002941132,-0.009246826,0.00369072,0,
00:06.3,-0.002941132,-0.009246826,0.003702164,0,
00:06.3,-0.002941132,-0.009252548,0.003707886,0,
00:06.3,-0.00293541,-0.00925827,0.003702164,0,
00:06.3,-0.00293541,-0.009252548,0.003707886,0,
00:06.3,-0.00293541,-0.009252548,0.003702164,0,
00:06.3,-0.00293541,-0.009246826,0.003696442,0,
00:06.3,-0.00293541,-0.009252548,0.003702164,0,
00:06.3,-0.00293541,-0.00925827,0.003702164,0,
00:06.3,-0.00293541,-0.00925827,0.003702164,0,
00:06.4,-0.002941132,-0.00925827,0.003702164,0,
00:06.4,-0.002941132,-0.009252548,0.003702164,0,
00:06.4,-0.00293541,-0.009246826,0.003696442,0,
00:06.4,-0.00293541,-0.009241104,0.003702164,0,
00:06.4,-0.00293541,-0.009252548,0.003702164,0,
00:06.4,-0.00293541,-0.009246826,0.003702164,0,
00:06.4,-0.00293541,-0.009241104,0.003696442,0,
00:06.4,-0.002941132,-0.009252548,0.003696442,0,
00:06.4,-0.002941132,-0.00925827,0.003702164,0,
00:06.4,-0.002941132,-0.009263992,0.003702164,0,
00:06.4,-0.002941132,-0.00925827,0.003702164,0,
00:06.4,-0.002941132,-0.009252548,0.003696442,0,
00:06.4,-0.002941132,-0.009252548,0.00369072,0,
00:06.4,-0.002941132,-0.009246826,0.003696442,0,
00:06.4,-0.00293541,-0.009241104,0.003713608,0,
00:06.4,-0.002941132,-0.009252548,0.003713608,0,
00:06.4,-0.002941132,-0.009252548,0.003702164,0,
00:06.4,-0.002941132,-0.009252548,0.003702164,0,
00:06.4,-0.002941132,-0.009252548,0.003702164,0,
00:06.4,-0.002941132,-0.009252548,0.003707886,0,
00:06.4,-0.002941132,-0.009252548,0.003702164,0,
00:06.4,-0.002941132,-0.009263992,0.003702164,0,
00:06.4,-0.002941132,-0.009269714,0.003696442,0,
00:06.4,-0.002941132,-0.009263992,0.003696442,0,
00:06.4,-0.002941132,-0.009252548,0.003702164,0,
00:06.5,-0.00293541,-0.00925827,0.003702164,0,
00:06.5,-0.002941132,-0.009252548,0.003702164,0,
00:06.5,-0.002941132,-0.009246826,0.003702164,0,
00:06.5,-0.00293541,-0.009246826,0.003702164,0,
00:06.5,-0.00293541,-0.00925827,0.003702164,0,
00:06.5,-0.002941132,-0.009269714,0.003702164,0,
00:06.5,-0.002941132,-0.009275436,0.003696442,0,
00:06.5,-0.002941132,-0.009263992,0.00369072,0,
00:06.5,-0.002941132,-0.009252548,0.00369072,0,
00:06.5,-0.00293541,-0.009235382,0.003696442,0,
00:06.5,-0.00293541,-0.009235382,0.003702164,0,
00:06.5,-0.002941132,-0.009246826,0.003696442,0,
00:06.5,-0.002941132,-0.009252548,0.003702164,0,
00:06.5,-0.002941132,-0.00925827,0.003702164,0,
00:06.5,-0.002941132,-0.009263992,0.003702164,0,
00:06.5,-0.002941132,-0.009263992,0.003702164,0,
00:06.5,-0.002941132,-0.00925827,0.003696442,0,
00:06.5,-0.002941132,-0.009246826,0.00369072,0,
00:06.5,-0.00293541,-0.009246826,0.003696442,0,
00:06.5,-0.002941132,-0.009252548,0.003702164,0,
00:06.5,-0.002941132,-0.00925827,0.003702164,0,
00:06.5,-0.002941132,-0.00925827,0.003702164,0,
00:06.5,-0.002941132,-0.00925827,0.003702164,0,
00:06.5,-0.002941132,-0.009263992,0.003702164,0,
00:06.5,-0.002941132,-0.00925827,0.003702164,0,
00:06.6,-0.002941132,-0.009263992,0.003702164,0,
00:06.6,-0.002941132,-0.009263992,0.003696442,0,
00:06.6,-0.002941132,-0.00925827,0.003696442,0,
00:06.6,-0.00293541,-0.009252548,0.003702164,0,
00:06.6,-0.00293541,-0.009246826,0.003702164,0,
00:06.6,-0.00293541,-0.009246826,0.003707886,0,
00:06.6,-0.002941132,-0.009252548,0.003702164,0,
00:06.6,-0.002941132,-0.009263992,0.003696442,0,
00:06.6,-0.002941132,-0.009269714,0.003696442,0,
00:06.6,-0.002941132,-0.00925827,0.003702164,0,
00:06.6,-0.002941132,-0.009252548,0.003696442,0,
00:06.6,-0.002941132,-0.009252548,0.00369072,0,
00:06.6,-0.00293541,-0.009252548,0.003684998,0,
00:06.6,-0.00293541,-0.00925827,0.003696442,0,
00:06.6,-0.00293541,-0.009252548,0.003702164,0,
00:06.6,-0.002941132,-0.00925827,0.003702164,0,
00:06.6,-0.002941132,-0.00925827,0.003696442,0,
00:06.6,-0.002941132,-0.009269714,0.003696442,0,
00:06.6,-0.002941132,-0.009269714,0.003702164,0,
00:06.6,-0.002941132,-0.00925827,0.003702164,0,
00:06.6,-0.002941132,-0.009252548,0.003702164,0,
00:06.6,-0.002941132,-0.009246826,0.003696442,0,
00:06.6,-0.002941132,-0.009252548,0.00369072,0,
00:06.6,-0.00293541,-0.009263992,0.003696442,0,
00:06.6,-0.002941132,-0.009263992,0.003702164,0,
00:06.7,-0.002941132,-0.00925827,0.003702164,0,
00:06.7,-0.002941132,-0.00925827,0.003696442,0,
00:06.7,-0.002941132,-0.009269714,0.003696442,0,
00:06.7,-0.002941132,-0.009275436,0.003696442,0,
00:06.7,-0.002941132,-0.009263992,0.003702164,0,
00:06.7,-0.002941132,-0.009241104,0.003696442,0,
00:06.7,-0.002941132,-0.009235382,0.003684998,0,
00:06.7,-0.00293541,-0.009246826,0.00369072,0,
00:06.7,-0.00293541,-0.009252548,0.003696442,0,
00:06.7,-0.002941132,-0.00925827,0.003696442,0,
00:06.7,-0.002941132,-0.009269714,0.003707886,0,
00:06.7,-0.002941132,-0.009275436,0.003696442,0,
00:06.7,-0.002941132,-0.009269714,0.003696442,0,
00:06.7,-0.002941132,-0.00925827,0.003696442,0,
00:06.7,-0.00293541,-0.009246826,0.003702164,0,
00:06.7,-0.002941132,-0.009246826,0.003696442,0,
00:06.7,-0.002941132,-0.009252548,0.003696442,0,
00:06.7,-0.002941132,-0.00925827,0.003696442,0,
00:06.7,-0.002946854,-0.00925827,0.003702164,0,
00:06.7,-0.002946854,-0.009263992,0.003702164,0,
00:06.7,-0.002946854,-0.009275436,0.003702164,0,
00:06.7,-0.002946854,-0.009275436,0.003696442,0,
00:06.7,-0.002941132,-0.009252548,0.003696442,0,
00:06.7,-0.002941132,-0.009246826,0.003696442,0,
00:06.7,-0.002941132,-0.009241104,0.003696442,0,
00:06.8,-0.002941132,-0.009241104,0.003702164,0,
00:06.8,-0.002941132,-0.009252548,0.003696442,0,
00:06.8,-0.002946854,-0.00925827,0.003696442,0,
00:06.8,-0.002946854,-0.009263992,0.003696442,0,
00:06.8,-0.002946854,-0.009263992,0.003696442,0,
00:06.8,-0.002946854,-0.009263992,0.003696442,0,
00:06.8,-0.002946854,-0.00925827,0.00369072,0,
00:06.8,-0.002941132,-0.009246826,0.00369072,0,
00:06.8,-0.002941132,-0.009241104,0.003696442,0,
00:06.8,-0.002941132,-0.009241104,0.00369072,0,
00:06.8,-0.002941132,-0.009252548,0.00369072,0,
00:06.8,-0.002941132,-0.009252548,0.003696442,0,
00:06.8,-0.002941132,-0.009263992,0.00369072,0,
00:06.8,-0.002941132,-0.009263992,0.003696442,0,
00:06.8,-0.002941132,-0.009263992,0.003696442,0,
00:06.8,-0.002941132,-0.009252548,0.003696442,0,
00:06.8,-0.002941132,-0.009246826,0.003702164,0,
00:06.8,-0.002941132,-0.00925827,0.00369072,0,
00:06.8,-0.002941132,-0.009263992,0.003696442,0,
00:06.8,-0.002941132,-0.00925827,0.003696442,0,
00:06.8,-0.002941132,-0.009252548,0.003696442,0,
00:06.8,-0.002941132,-0.009252548,0.00369072,0,
00:06.8,-0.002941132,-0.00925827,0.00369072,0,
00:06.8,-0.002941132,-0.009263992,0.00369072,0,
00:06.8,-0.002941132,-0.009263992,0.003696442,0,
00:06.9,-0.002941132,-0.00925827,0.00369072,0,
00:06.9,-0.002941132,-0.009252548,0.00369072,0,
00:06.9,-0.002941132,-0.00925827,0.00369072,0,
00:06.9,-0.002941132,-0.00925827,0.00369072,0,
00:06.9,-0.002941132,-0.009269714,0.00369072,0,
00:06.9,-0.002941132,-0.009275436,0.00369072,0,
00:06.9,-0.002946854,-0.009269714,0.003696442,0,
00:06.9,-0.002941132,-0.009252548,0.00369072,0,
00:06.9,-0.002941132,-0.009252548,0.00369072,0,
00:06.9,-0.002941132,-0.009252548,0.00369072,0,
00:06.9,-0.002941132,-0.009252548,0.00369072,0,
00:06.9,-0.002941132,-0.009263992,0.00369072,0,
00:06.9,-0.002941132,-0.009263992,0.00369072,0,
00:06.9,-0.002941132,-0.009263992,0.003696442,0,
00:06.9,-0.002946854,-0.009263992,0.003696442,0,
00:06.9,-0.002941132,-0.009263992,0.00369072,0,
00:06.9,-0.002941132,-0.009246826,0.003684998,0,
00:06.9,-0.002941132,-0.009241104,0.003684998,0,
00:06.9,-0.002941132,-0.009252548,0.00369072,0,
00:06.9,-0.002941132,-0.00925827,0.003696442,0,
00:06.9,-0.002946854,-0.009263992,0.00369072,0,
00:06.9,-0.002946854,-0.009263992,0.00369072,0,
00:06.9,-0.002941132,-0.009263992,0.00369072,0,
00:06.9,-0.002941132,-0.009263992,0.003684998,0,
00:06.9,-0.002941132,-0.009263992,0.003679276,0,
00:07.0,-0.002941132,-0.00925827,0.003684998,0,
00:07.0,-0.002946854,-0.00925827,0.00369072,0,
00:07.0,-0.002941132,-0.009263992,0.003696442,0,
00:07.0,-0.002941132,-0.009263992,0.003696442,0,
00:07.0,-0.002941132,-0.009263992,0.003696442,0,
00:07.0,-0.002946854,-0.009263992,0.00369072,0,
00:07.0,-0.002946854,-0.009269714,0.00369072,0,
00:07.0,-0.002941132,-0.009263992,0.003684998,0,
00:07.0,-0.002941132,-0.009246826,0.003684998,0,
00:07.0,-0.002941132,-0.009241104,0.00369072,0,
00:07.0,-0.002941132,-0.009252548,0.00369072,0,
00:07.0,-0.002941132,-0.00925827,0.003684998,0,
00:00:07,-0.002941132,-0.009263992,0.003684998,0,
00:07.0,-0.002941132,-0.009269714,0.003684998,0,
00:07.0,-0.002941132,-0.009269714,0.00369072,0,
00:07.0,-0.002946854,-0.009263992,0.00369072,0,
00:07.0,-0.002941132,-0.00925827,0.003684998,0,
00:07.0,-0.002941132,-0.009252548,0.003684998,0,
00:07.0,-0.002941132,-0.00925827,0.00369072,0,
00:07.0,-0.002941132,-0.00925827,0.00369072,0,
00:07.0,-0.002946854,-0.009263992,0.003684998,0,
00:07.0,-0.002941132,-0.009263992,0.003679276,0,
00:07.0,-0.002946854,-0.009281158,0.003679276,0,
00:07.0,-0.002946854,-0.00928688,0.003684998,0,
00:07.0,-0.002946854,-0.009275436,0.003684998,0,
00:07.1,-0.002946854,-0.00925827,0.003679276,0,
00:07.1,-0.002946854,-0.009263992,0.003679276,0,
00:07.1,-0.002946854,-0.009269714,0.00369072,0,
00:07.1,-0.002946854,-0.009281158,0.003684998,0,
00:07.1,-0.002946854,-0.009269714,0.003684998,0,
00:07.1,-0.002946854,-0.00925827,0.003684998,0,
00:07.1,-0.002946854,-0.009252548,0.003679276,0,
00:07.1,-0.002941132,-0.009252548,0.003679276,0,
00:07.1,-0.002941132,-0.009252548,0.003684998,0,
00:07.1,-0.002941132,-0.009263992,0.003684998,0,
00:07.1,-0.002941132,-0.009263992,0.003684998,0,
00:07.1,-0.002941132,-0.009263992,0.003679276,0,
00:07.1,-0.002941132,-0.009269714,0.003679276,0,
00:07.1,-0.002941132,-0.009269714,0.003684998,0,
00:07.1,-0.002941132,-0.009269714,0.003684998,0,
00:07.1,-0.002946854,-0.009269714,0.003684998,0,
00:07.1,-0.002946854,-0.009281158,0.003679276,0,
00:07.1,-0.002946854,-0.009275436,0.003679276,0,
00:07.1,-0.002941132,-0.009263992,0.003684998,0,
00:07.1,-0.002941132,-0.009263992,0.003684998,0,
00:07.1,-0.002946854,-0.009269714,0.003684998,0,
00:07.1,-0.002946854,-0.009275436,0.003679276,0,
00:07.1,-0.002941132,-0.009281158,0.003673553,0,
00:07.1,-0.002941132,-0.009275436,0.003673553,0,
00:07.1,-0.002946854,-0.009275436,0.003679276,0,
00:07.2,-0.002952576,-0.009275436,0.003679276,0,
00:07.2,-0.002946854,-0.009275436,0.003679276,0,
00:07.2,-0.002946854,-0.009263992,0.003679276,0,
00:07.2,-0.002946854,-0.00925827,0.003679276,0,
00:07.2,-0.002946854,-0.009269714,0.003684998,0,
00:07.2,-0.002946854,-0.009269714,0.003679276,0,
00:07.2,-0.002946854,-0.009275436,0.003679276,0,
00:07.2,-0.002946854,-0.009281158,0.003684998,0,
00:07.2,-0.002946854,-0.009281158,0.003679276,0,
00:07.2,-0.002946854,-0.009269714,0.003679276,0,
00:07.2,-0.002946854,-0.009263992,0.003673553,0,
00:07.2,-0.002946854,-0.009263992,0.003667831,0,
00:07.2,-0.002946854,-0.009269714,0.003673553,0,
00:07.2,-0.002946854,-0.009275436,0.003679276,0,
00:07.2,-0.002946854,-0.009275436,0.003679276,0,
00:07.2,-0.002946854,-0.009275436,0.003673553,0,
00:07.2,-0.002946854,-0.009269714,0.003673553,0,
00:07.2,-0.002946854,-0.009275436,0.003673553,0,
00:07.2,-0.002946854,-0.009275436,0.003673553,0,
00:07.2,-0.002946854,-0.009269714,0.003679276,0,
00:07.2,-0.002946854,-0.009275436,0.003679276,0,
00:07.2,-0.002946854,-0.009269714,0.003667831,0,
00:07.2,-0.002946854,-0.009269714,0.003673553,0,
00:07.2,-0.002946854,-0.009269714,0.003667831,0,
00:07.2,-0.002946854,-0.009275436,0.003667831,0,
00:07.3,-0.002946854,-0.00928688,0.003679276,0,
00:07.3,-0.002952576,-0.009298325,0.003673553,0,
00:07.3,-0.002952576,-0.00928688,0.003667831,0,
00:07.3,-0.002946854,-0.009269714,0.003679276,0,
00:07.3,-0.002946854,-0.009263992,0.003679276,0,
00:07.3,-0.002946854,-0.009263992,0.003679276,0,
00:07.3,-0.002946854,-0.009275436,0.003673553,0,
00:07.3,-0.002946854,-0.009275436,0.003673553,0,
00:07.3,-0.002946854,-0.009269714,0.003673553,0,
00:07.3,-0.002946854,-0.009269714,0.003673553,0,
00:07.3,-0.002946854,-0.009275436,0.003667831,0,
00:07.3,-0.002946854,-0.009281158,0.003673553,0,
00:07.3,-0.002946854,-0.009281158,0.003673553,0,
00:07.3,-0.002946854,-0.009275436,0.003673553,0,
00:07.3,-0.002946854,-0.009269714,0.003673553,0,
00:07.3,-0.002946854,-0.009275436,0.003673553,0,
00:07.3,-0.002946854,-0.009281158,0.003667831,0,
00:07.3,-0.002946854,-0.009281158,0.003667831,0,
00:07.3,-0.002946854,-0.009281158,0.003673553,0,
00:07.3,-0.002946854,-0.009275436,0.003673553,0,
00:07.3,-0.002946854,-0.009269714,0.003662109,0,
00:07.3,-0.002946854,-0.009269714,0.003662109,0,
00:07.3,-0.002946854,-0.009275436,0.003667831,0,
00:07.3,-0.002946854,-0.009281158,0.003667831,0,
00:07.3,-0.002946854,-0.00928688,0.003667831,0,
00:07.4,-0.002952576,-0.009281158,0.003673553,0,
00:07.4,-0.002946854,-0.009269714,0.003667831,0,
00:07.4,-0.002941132,-0.009275436,0.003667831,0,
00:07.4,-0.002941132,-0.009281158,0.003667831,0,
00:07.4,-0.002946854,-0.009281158,0.003667831,0,
00:07.4,-0.002946854,-0.009275436,0.003667831,0,
00:07.4,-0.002946854,-0.009275436,0.003667831,0,
00:07.4,-0.002941132,-0.00928688,0.003667831,0,
00:07.4,-0.002941132,-0.009281158,0.003667831,0,
00:07.4,-0.002946854,-0.009275436,0.003667831,0,
00:07.4,-0.002941132,-0.009263992,0.003667831,0,
00:07.4,-0.002941132,-0.009269714,0.003662109,0,
00:07.4,-0.002941132,-0.009275436,0.003656387,0,
00:07.4,-0.002946854,-0.009281158,0.003662109,0,
00:07.4,-0.002946854,-0.00928688,0.003667831,0,
00:07.4,-0.002946854,-0.009281158,0.003667831,0,
00:07.4,-0.002946854,-0.009281158,0.003662109,0,
00:07.4,-0.002946854,-0.00928688,0.003656387,0,
00:07.4,-0.002946854,-0.00928688,0.003662109,0,
00:07.4,-0.002946854,-0.009281158,0.003673553,0,
00:07.4,-0.002946854,-0.009275436,0.003667831,0,
00:07.4,-0.002946854,-0.009281158,0.003662109,0,
00:07.4,-0.002946854,-0.00928688,0.003662109,0,
00:07.4,-0.002941132,-0.009281158,0.003667831,0,
00:07.4,-0.002946854,-0.009281158,0.003667831,0,
00:07.5,-0.002946854,-0.009281158,0.003662109,0,
00:07.5,-0.002946854,-0.009281158,0.003656387,0,
00:07.5,-0.002946854,-0.009275436,0.003662109,0,
00:07.5,-0.002946854,-0.009275436,0.003667831,0,
00:07.5,-0.002946854,-0.009275436,0.003667831,0,
00:07.5,-0.002946854,-0.00928688,0.003662109,0,
00:07.5,-0.002946854,-0.00928688,0.003662109,0,
00:07.5,-0.002946854,-0.009281158,0.003662109,0,
00:07.5,-0.002946854,-0.009275436,0.003662109,0,
00:07.5,-0.002946854,-0.009275436,0.003662109,0,
00:07.5,-0.002946854,-0.009269714,0.003662109,0,
00:07.5,-0.002946854,-0.009269714,0.003656387,0,
00:07.5,-0.002941132,-0.009275436,0.003656387,0,
00:07.5,-0.002946854,-0.009281158,0.003662109,0,
00:07.5,-0.002946854,-0.009281158,0.003662109,0,
00:07.5,-0.002946854,-0.009275436,0.003656387,0,
00:07.5,-0.002952576,-0.009281158,0.003650665,0,
00:07.5,-0.002946854,-0.009281158,0.003656387,0,
00:07.5,-0.002946854,-0.009275436,0.003667831,0,
00:07.5,-0.002946854,-0.009281158,0.003667831,0,
00:07.5,-0.002946854,-0.009292603,0.003662109,0,
00:07.5,-0.002946854,-0.009292603,0.003656387,0,
00:07.5,-0.002946854,-0.009292603,0.003656387,0,
00:07.5,-0.002946854,-0.009281158,0.003656387,0,
00:07.5,-0.002946854,-0.009281158,0.003662109,0,
00:07.6,-0.002952576,-0.00928688,0.003656387,0,
00:07.6,-0.002946854,-0.009281158,0.003650665,0,
00:07.6,-0.002946854,-0.009263992,0.003650665,0,
00:07.6,-0.002946854,-0.009269714,0.003656387,0,
00:07.6,-0.002946854,-0.00928688,0.003662109,0,
00:07.6,-0.002952576,-0.00928688,0.003656387,0,
00:07.6,-0.002946854,-0.009269714,0.003650665,0,
00:07.6,-0.002946854,-0.009269714,0.003650665,0,
00:07.6,-0.002946854,-0.009275436,0.003650665,0,
00:07.6,-0.002946854,-0.009281158,0.003656387,0,
00:07.6,-0.002946854,-0.009281158,0.003656387,0,
00:07.6,-0.002946854,-0.009281158,0.003650665,0,
00:07.6,-0.002946854,-0.00928688,0.003656387,0,
00:07.6,-0.002946854,-0.009292603,0.003656387,0,
00:07.6,-0.002946854,-0.00928688,0.003656387,0,
00:07.6,-0.002946854,-0.009281158,0.003650665,0,
00:07.6,-0.002946854,-0.009275436,0.003650665,0,
00:07.6,-0.002946854,-0.009281158,0.003650665,0,
00:07.6,-0.002952576,-0.009292603,0.003650665,0,
00:07.6,-0.002952576,-0.009304047,0.003656387,0,
00:07.6,-0.002946854,-0.00928688,0.003644943,0,
00:07.6,-0.002946854,-0.009269714,0.003644943,0,
00:07.6,-0.002941132,-0.009263992,0.003650665,0,
00:07.6,-0.002946854,-0.009275436,0.003662109,0,
00:07.6,-0.002946854,-0.009281158,0.003656387,0,
00:07.7,-0.002946854,-0.00928688,0.003656387,0,
00:07.7,-0.002946854,-0.00928688,0.003650665,0,
00:07.7,-0.002946854,-0.00928688,0.003650665,0,
00:07.7,-0.002946854,-0.009281158,0.003644943,0,
00:07.7,-0.002946854,-0.009275436,0.003644943,0,
00:07.7,-0.002946854,-0.009281158,0.003656387,0,
00:07.7,-0.002946854,-0.009275436,0.003650665,0,
00:07.7,-0.002941132,-0.009269714,0.003650665,0,
00:07.7,-0.002946854,-0.009275436,0.003656387,0,
00:07.7,-0.002946854,-0.009281158,0.003656387,0,
00:07.7,-0.002946854,-0.00928688,0.003650665,0,
00:07.7,-0.002946854,-0.009281158,0.003644943,0,
00:07.7,-0.002941132,-0.009281158,0.003644943,0,
00:07.7,-0.002941132,-0.009281158,0.003650665,0,
00:07.7,-0.002946854,-0.009275436,0.003650665,0,
00:07.7,-0.002946854,-0.009275436,0.003644943,0,
00:07.7,-0.002946854,-0.009275436,0.003644943,0,
00:07.7,-0.002946854,-0.009281158,0.003650665,0,
00:07.7,-0.002946854,-0.00928688,0.003650665,0,
00:07.7,-0.002946854,-0.009292603,0.003644943,0,
00:07.7,-0.002952576,-0.00928688,0.003639221,0,
00:07.7,-0.002946854,-0.00928688,0.003644943,0,
00:07.7,-0.002946854,-0.00928688,0.003644943,0,
00:07.7,-0.002946854,-0.00928688,0.003650665,0,
00:07.7,-0.002946854,-0.009281158,0.003644943,0,
00:07.8,-0.002946854,-0.009292603,0.003644943,0,
00:07.8,-0.002946854,-0.009292603,0.003644943,0,
00:07.8,-0.002946854,-0.009292603,0.003644943,0,
00:07.8,-0.002946854,-0.00928688,0.003644943,0,
00:07.8,-0.002946854,-0.009275436,0.003644943,0,
00:07.8,-0.002946854,-0.009281158,0.003639221,0,
00:07.8,-0.002946854,-0.009281158,0.003639221,0,
00:07.8,-0.002946854,-0.009275436,0.003639221,0,
00:07.8,-0.002946854,-0.009275436,0.003644943,0,
00:07.8,-0.002946854,-0.009281158,0.003644943,0,
00:07.8,-0.002946854,-0.009281158,0.003633499,0,
00:07.8,-0.002946854,-0.009281158,0.003633499,0,
00:07.8,-0.002946854,-0.009281158,0.003639221,0,
00:07.8,-0.002946854,-0.009281158,0.003639221,0,
00:07.8,-0.002946854,-0.00928688,0.003639221,0,
00:07.8,-0.002946854,-0.00928688,0.003639221,0,
00:07.8,-0.002946854,-0.00928688,0.003633499,0,
00:07.8,-0.002946854,-0.009292603,0.003639221,0,
00:07.8,-0.002946854,-0.009281158,0.003639221,0,
00:07.8,-0.002946854,-0.009275436,0.003644943,0,
00:07.8,-0.002946854,-0.009281158,0.003639221,0,
00:07.8,-0.002946854,-0.009292603,0.003633499,0,
00:07.8,-0.002946854,-0.009304047,0.003633499,0,
00:07.8,-0.002946854,-0.009304047,0.003639221,0,
00:07.8,-0.002946854,-0.009298325,0.003633499,0,
00:07.9,-0.002946854,-0.009281158,0.003633499,0,
00:07.9,-0.002946854,-0.009269714,0.003639221,0,
00:07.9,-0.002941132,-0.009263992,0.003633499,0,
00:07.9,-0.002941132,-0.009275436,0.003633499,0,
00:07.9,-0.002946854,-0.00928688,0.003633499,0,
00:07.9,-0.002952576,-0.009298325,0.003639221,0,
00:07.9,-0.002946854,-0.009292603,0.003633499,0,
00:07.9,-0.002946854,-0.009275436,0.003633499,0,
00:07.9,-0.002946854,-0.009263992,0.003639221,0,
00:07.9,-0.002946854,-0.009269714,0.003639221,0,
00:07.9,-0.002946854,-0.009275436,0.003627777,0,
00:07.9,-0.002946854,-0.009281158,0.003627777,0,
00:07.9,-0.002946854,-0.009292603,0.003633499,0,
00:07.9,-0.002946854,-0.009292603,0.003633499,0,
00:07.9,-0.002946854,-0.009275436,0.003633499,0,
00:07.9,-0.002946854,-0.009281158,0.003627777,0,
00:07.9,-0.002946854,-0.009292603,0.003627777,0,
00:07.9,-0.002941132,-0.009292603,0.003627777,0,
00:07.9,-0.002946854,-0.00928688,0.003627777,0,
00:07.9,-0.002946854,-0.009292603,0.003633499,0,
00:07.9,-0.002946854,-0.00928688,0.003627777,0,
00:07.9,-0.002941132,-0.009275436,0.003622055,0,
00:07.9,-0.002941132,-0.009281158,0.003627777,0,
00:07.9,-0.002946854,-0.009292603,0.003627777,0,
00:07.9,-0.002946854,-0.009292603,0.003622055,0,
00:08.0,-0.002946854,-0.00928688,0.003616333,0,
00:08.0,-0.002941132,-0.009281158,0.003622055,0,
00:08.0,-0.002941132,-0.009281158,0.003627777,0,
00:08.0,-0.002941132,-0.00928688,0.003627777,0,
00:08.0,-0.002941132,-0.00928688,0.003627777,0,
00:08.0,-0.002941132,-0.00928688,0.003616333,0,
00:08.0,-0.002941132,-0.009281158,0.003610611,0,
00:08.0,-0.002946854,-0.00928688,0.003622055,0,
00:08.0,-0.002946854,-0.009304047,0.003627777,0,
00:08.0,-0.002946854,-0.009298325,0.003627777,0,
00:08.0,-0.002946854,-0.009281158,0.003622055,0,
00:08.0,-0.002941132,-0.009275436,0.003622055,0,
00:00:08,-0.002941132,-0.009281158,0.003627777,0,
00:08.0,-0.002941132,-0.00928688,0.003627777,0,
00:08.0,-0.002946854,-0.009292603,0.003627777,0,
00:08.0,-0.002946854,-0.009292603,0.003622055,0,
00:08.0,-0.002941132,-0.009292603,0.003616333,0,
00:08.0,-0.002941132,-0.009298325,0.003622055,0,
00:08.0,-0.002941132,-0.009298325,0.003622055,0,
00:08.0,-0.002946854,-0.009292603,0.003616333,0,
00:08.0,-0.002946854,-0.00928688,0.003610611,0,
00:08.0,-0.002941132,-0.00928688,0.003616333,0,
00:08.0,-0.002941132,-0.009292603,0.003622055,0,
00:08.0,-0.002941132,-0.009292603,0.003622055,0,
00:08.0,-0.002946854,-0.00928688,0.003616333,0,
00:08.1,-0.002946854,-0.00928688,0.003616333,0,
00:08.1,-0.002941132,-0.009292603,0.003610611,0,
00:08.1,-0.002941132,-0.00928688,0.003616333,0,
00:08.1,-0.002946854,-0.009281158,0.003616333,0,
00:08.1,-0.002946854,-0.00928688,0.003622055,0,
00:08.1,-0.002946854,-0.009292603,0.003616333,0,
00:08.1,-0.002946854,-0.009298325,0.003616333,0,
00:08.1,-0.002941132,-0.009298325,0.003616333,0,
00:08.1,-0.002946854,-0.009304047,0.003616333,0,
00:08.1,-0.002946854,-0.00928688,0.003616333,0,
00:08.1,-0.002946854,-0.009269714,0.003610611,0,
00:08.1,-0.002941132,-0.009275436,0.003610611,0,
00:08.1,-0.002941132,-0.009292603,0.003610611,0,
00:08.1,-0.002941132,-0.009292603,0.003610611,0,
00:08.1,-0.002941132,-0.00928688,0.003616333,0,
00:08.1,-0.002946854,-0.009292603,0.003610611,0,
00:08.1,-0.002946854,-0.00928688,0.003604889,0,
00:08.1,-0.002946854,-0.00928688,0.003599167,0,
00:08.1,-0.002941132,-0.009281158,0.003610611,0,
00:08.1,-0.002941132,-0.00928688,0.003616333,0,
00:08.1,-0.002946854,-0.009292603,0.003616333,0,
00:08.1,-0.002946854,-0.009304047,0.003610611,0,
00:08.1,-0.002946854,-0.009309769,0.003610611,0,
00:08.1,-0.002946854,-0.009298325,0.003610611,0,
00:08.1,-0.002946854,-0.009281158,0.003610611,0,
00:08.2,-0.002941132,-0.009269714,0.003604889,0,
00:08.2,-0.002941132,-0.009281158,0.003599167,0,
00:08.2,-0.002941132,-0.00928688,0.003604889,0,
00:08.2,-0.002941132,-0.00928688,0.003610611,0,
00:08.2,-0.002946854,-0.009292603,0.003604889,0,
00:08.2,-0.002946854,-0.009292603,0.003604889,0,
00:08.2,-0.002941132,-0.009292603,0.003599167,0,
00:08.2,-0.002941132,-0.009298325,0.003604889,0,
00:08.2,-0.002946854,-0.009292603,0.003604889,0,
00:08.2,-0.002946854,-0.00928688,0.003604889,0,
00:08.2,-0.002946854,-0.009281158,0.003604889,0,
00:08.2,-0.002941132,-0.00928688,0.003599167,0,
00:08.2,-0.002941132,-0.009298325,0.003599167,0,
00:08.2,-0.002941132,-0.009298325,0.003604889,0,
00:08.2,-0.002946854,-0.009298325,0.003604889,0,
00:08.2,-0.002946854,-0.009298325,0.003599167,0,
00:08.2,-0.002941132,-0.00928688,0.003599167,0,
00:08.2,-0.002941132,-0.00928688,0.003593445,0,
00:08.2,-0.002941132,-0.009298325,0.003599167,0,
00:08.2,-0.002946854,-0.009292603,0.003610611,0,
00:08.2,-0.002946854,-0.00928688,0.003604889,0,
00:08.2,-0.002946854,-0.009292603,0.003604889,0,
00:08.2,-0.002946854,-0.009292603,0.003599167,0,
00:08.2,-0.002946854,-0.009292603,0.003604889,0,
00:08.2,-0.002946854,-0.00928688,0.003599167,0,
00:08.3,-0.002946854,-0.009298325,0.003599167,0,
00:08.3,-0.002946854,-0.009304047,0.003599167,0,
00:08.3,-0.002946854,-0.009304047,0.003599167,0,
00:08.3,-0.002946854,-0.009298325,0.003604889,0,
00:08.3,-0.002946854,-0.009292603,0.003599167,0,
00:08.3,-0.002946854,-0.009292603,0.003593445,0,
00:08.3,-0.002946854,-0.009292603,0.003593445,0,
00:08.3,-0.002946854,-0.009292603,0.003593445,0,
00:08.3,-0.002946854,-0.009298325,0.003599167,0,
00:08.3,-0.002946854,-0.009298325,0.003599167,0,
00:08.3,-0.002946854,-0.009298325,0.003599167,0,
00:08.3,-0.002946854,-0.009304047,0.003593445,0,
00:08.3,-0.002946854,-0.009304047,0.003599167,0,
00:08.3,-0.002946854,-0.009298325,0.003604889,0,
00:08.3,-0.002946854,-0.009292603,0.003599167,0,
00:08.3,-0.002946854,-0.00928688,0.003593445,0,
00:08.3,-0.002946854,-0.009292603,0.003599167,0,
00:08.3,-0.002946854,-0.009309769,0.003599167,0,
00:08.3,-0.002946854,-0.009321213,0.003599167,0,
00:08.3,-0.002952576,-0.009315491,0.003599167,0,
00:08.3,-0.002952576,-0.009292603,0.003593445,0,
00:08.3,-0.002946854,-0.009281158,0.003593445,0,
00:08.3,-0.002941132,-0.009292603,0.003604889,0,
00:08.3,-0.002946854,-0.009298325,0.003604889,0,
00:08.3,-0.002946854,-0.00928688,0.003604889,0,
00:08.4,-0.002946854,-0.00928688,0.003593445,0,
00:08.4,-0.002946854,-0.009292603,0.003587723,0,
00:08.4,-0.002946854,-0.009304047,0.003599167,0,
00:08.4,-0.002946854,-0.009304047,0.003599167,0,
00:08.4,-0.002946854,-0.009304047,0.003599167,0,
00:08.4,-0.002952576,-0.009309769,0.003593445,0,
00:08.4,-0.002946854,-0.009304047,0.003593445,0,
00:08.4,-0.002946854,-0.009292603,0.003599167,0,
00:08.4,-0.002946854,-0.00928688,0.003599167,0,
00:08.4,-0.002946854,-0.00928688,0.003599167,0,
00:08.4,-0.002946854,-0.009292603,0.003593445,0,
00:08.4,-0.002941132,-0.009298325,0.003593445,0,
00:08.4,-0.002941132,-0.009298325,0.003599167,0,
00:08.4,-0.002946854,-0.009298325,0.003599167,0,
00:08.4,-0.002946854,-0.009304047,0.003599167,0,
00:08.4,-0.002946854,-0.009304047,0.003593445,0,
00:08.4,-0.002946854,-0.009304047,0.003593445,0,
00:08.4,-0.002946854,-0.009304047,0.003593445,0,
00:08.4,-0.002946854,-0.009298325,0.003593445,0,
00:08.4,-0.002946854,-0.009292603,0.003593445,0,
00:08.4,-0.002946854,-0.009298325,0.003587723,0,
00:08.4,-0.002946854,-0.009292603,0.003587723,0,
00:08.4,-0.002946854,-0.009292603,0.003587723,0,
00:08.4,-0.002946854,-0.009292603,0.003582001,0,
00:08.4,-0.002946854,-0.00928688,0.003593445,0,
00:08.5,-0.002946854,-0.00928688,0.003587723,0,
00:08.5,-0.002946854,-0.00928688,0.003582001,0,
00:08.5,-0.002941132,-0.009298325,0.003587723,0,
00:08.5,-0.002946854,-0.009304047,0.003587723,0,
00:08.5,-0.002946854,-0.009304047,0.003587723,0,
00:08.5,-0.002946854,-0.009298325,0.003587723,0,
00:08.5,-0.002946854,-0.009304047,0.003587723,0,
00:08.5,-0.002946854,-0.009298325,0.003587723,0,
00:08.5,-0.002946854,-0.009298325,0.003587723,0,
00:08.5,-0.002946854,-0.009298325,0.003587723,0,
00:08.5,-0.002946854,-0.009304047,0.003582001,0,
00:08.5,-0.002946854,-0.009309769,0.003582001,0,
00:08.5,-0.002946854,-0.009304047,0.003582001,0,
00:08.5,-0.002946854,-0.009292603,0.003582001,0,
00:08.5,-0.002946854,-0.00928688,0.003582001,0,
00:08.5,-0.002946854,-0.00928688,0.003576279,0,
00:08.5,-0.002946854,-0.009292603,0.003576279,0,
00:08.5,-0.002946854,-0.009298325,0.003576279,0,
00:08.5,-0.002946854,-0.009298325,0.003582001,0,
00:08.5,-0.002946854,-0.009298325,0.003582001,0,
00:08.5,-0.002946854,-0.009298325,0.003576279,0,
00:08.5,-0.002946854,-0.009292603,0.003570557,0,
00:08.5,-0.002946854,-0.009298325,0.003576279,0,
00:08.5,-0.002946854,-0.009292603,0.003582001,0,
00:08.5,-0.002946854,-0.009292603,0.003576279,0,
00:08.6,-0.002946854,-0.009292603,0.003564835,0,
00:08.6,-0.002946854,-0.009298325,0.003564835,0,
00:08.6,-0.002946854,-0.009304047,0.003576279,0,
00:08.6,-0.002946854,-0.009304047,0.003582001,0,
00:08.6,-0.002946854,-0.009298325,0.003582001,0,
00:08.6,-0.002946854,-0.009292603,0.003576279,0,
00:08.6,-0.002946854,-0.009292603,0.003576279,0,
00:08.6,-0.002946854,-0.009298325,0.003576279,0,
00:08.6,-0.002946854,-0.009298325,0.003576279,0,
00:08.6,-0.002946854,-0.009298325,0.003576279,0,
00:08.6,-0.002946854,-0.009292603,0.003570557,0,
00:08.6,-0.002946854,-0.009292603,0.003564835,0,
00:08.6,-0.002946854,-0.009292603,0.003576279,0,
00:08.6,-0.002946854,-0.009292603,0.003576279,0,
00:08.6,-0.002946854,-0.009298325,0.003576279,0,
00:08.6,-0.002946854,-0.009309769,0.003570557,0,
00:08.6,-0.002946854,-0.009309769,0.003570557,0,
00:08.6,-0.002946854,-0.009298325,0.003570557,0,
00:08.6,-0.002941132,-0.00928688,0.003576279,0,
00:08.6,-0.002941132,-0.009292603,0.003576279,0,
00:08.6,-0.002946854,-0.009304047,0.003570557,0,
00:08.6,-0.002946854,-0.009309769,0.003570557,0,
00:08.6,-0.002941132,-0.009304047,0.003570557,0,
00:08.6,-0.002946854,-0.009304047,0.003576279,0,
00:08.6,-0.002946854,-0.009304047,0.003570557,0,
00:08.7,-0.002946854,-0.009298325,0.003564835,0,
00:08.7,-0.002946854,-0.009298325,0.003564835,0,
00:08.7,-0.002941132,-0.009292603,0.003570557,0,
00:08.7,-0.002946854,-0.00928688,0.003570557,0,
00:08.7,-0.002946854,-0.009292603,0.003570557,0,
00:08.7,-0.002946854,-0.009292603,0.003570557,0,
00:08.7,-0.002946854,-0.009298325,0.003559113,0,
00:08.7,-0.002946854,-0.009292603,0.003564835,0,
00:08.7,-0.002946854,-0.009292603,0.003576279,0,
00:08.7,-0.002946854,-0.009304047,0.003570557,0,
00:08.7,-0.002946854,-0.009304047,0.003564835,0,
00:08.7,-0.002946854,-0.009304047,0.003564835,0,
00:08.7,-0.002946854,-0.009304047,0.003570557,0,
00:08.7,-0.002946854,-0.009298325,0.003576279,0,
00:08.7,-0.002946854,-0.009298325,0.003570557,0,
00:08.7,-0.002946854,-0.009304047,0.003564835,0,
00:08.7,-0.002946854,-0.009304047,0.003564835,0,
00:08.7,-0.002946854,-0.009298325,0.003570557,0,
00:08.7,-0.002941132,-0.009292603,0.003570557,0,
00:08.7,-0.002946854,-0.009304047,0.003570557,0,
00:08.7,-0.002946854,-0.009298325,0.003564835,0,
00:08.7,-0.002946854,-0.009298325,0.003559113,0,
00:08.7,-0.002946854,-0.009309769,0.003564835,0,
00:08.7,-0.002946854,-0.009321213,0.003564835,0,
00:08.7,-0.002946854,-0.009298325,0.003564835,0,
00:08.8,-0.002946854,-0.009281158,0.003559113,0,
00:08.8,-0.002941132,-0.00928688,0.003559113,0,
00:08.8,-0.002946854,-0.009298325,0.003559113,0,
00:08.8,-0.002946854,-0.009304047,0.003564835,0,
00:08.8,-0.002946854,-0.009298325,0.003570557,0,
00:08.8,-0.002946854,-0.009298325,0.003559113,0,
00:08.8,-0.002946854,-0.009304047,0.003559113,0,
00:08.8,-0.002946854,-0.009298325,0.003559113,0,
00:08.8,-0.002946854,-0.009298325,0.003564835,0,
00:08.8,-0.002946854,-0.009298325,0.003559113,0,
00:08.8,-0.002946854,-0.009304047,0.003553391,0,
00:08.8,-0.002946854,-0.009304047,0.003559113,0,
00:08.8,-0.002946854,-0.009304047,0.003559113,0,
00:08.8,-0.002946854,-0.009298325,0.003564835,0,
00:08.8,-0.002946854,-0.009298325,0.003559113,0,
00:08.8,-0.002946854,-0.009292603,0.003553391,0,
00:08.8,-0.002946854,-0.009298325,0.003553391,0,
00:08.8,-0.002946854,-0.009304047,0.003559113,0,
00:08.8,-0.002946854,-0.009304047,0.003564835,0,
00:08.8,-0.002946854,-0.009298325,0.003559113,0,
00:08.8,-0.002946854,-0.009304047,0.003564835,0,
00:08.8,-0.002946854,-0.009298325,0.003564835,0,
00:08.8,-0.002946854,-0.009292603,0.003564835,0,
00:08.8,-0.002946854,-0.009298325,0.003564835,0,
00:08.8,-0.002946854,-0.009298325,0.003564835,0,
00:08.9,-0.002946854,-0.009298325,0.003559113,0,
00:08.9,-0.002946854,-0.009304047,0.003559113,0,
00:08.9,-0.002946854,-0.009304047,0.003559113,0,
00:08.9,-0.002946854,-0.009304047,0.003559113,0,
00:08.9,-0.002946854,-0.009304047,0.003553391,0,
00:08.9,-0.002946854,-0.009292603,0.003553391,0,
00:08.9,-0.002946854,-0.009298325,0.003547668,0,
00:08.9,-0.002946854,-0.009309769,0.003547668,0,
00:08.9,-0.002946854,-0.009304047,0.003553391,0,
00:08.9,-0.002946854,-0.009304047,0.003553391,0,
00:08.9,-0.002946854,-0.009304047,0.003547668,0,
00:08.9,-0.002946854,-0.009298325,0.003547668,0,
00:08.9,-0.002946854,-0.009304047,0.003553391,0,
00:08.9,-0.002946854,-0.009298325,0.003547668,0,
00:08.9,-0.002946854,-0.009298325,0.003547668,0,
00:08.9,-0.002946854,-0.009304047,0.003547668,0,
00:08.9,-0.002946854,-0.009304047,0.003547668,0,
00:08.9,-0.002946854,-0.009292603,0.003547668,0,
00:08.9,-0.002946854,-0.00928688,0.003553391,0,
00:08.9,-0.002946854,-0.009298325,0.003553391,0,
00:08.9,-0.002946854,-0.009304047,0.003541946,0,
00:08.9,-0.002946854,-0.009304047,0.003541946,0,
00:08.9,-0.002946854,-0.009304047,0.003547668,0,
00:08.9,-0.002946854,-0.009304047,0.003553391,0,
00:08.9,-0.002946854,-0.009304047,0.003553391,0,
00:09.0,-0.002946854,-0.009304047,0.003541946,0,
00:09.0,-0.002946854,-0.009304047,0.003541946,0,
00:09.0,-0.002946854,-0.009304047,0.003547668,0,
00:09.0,-0.002946854,-0.009298325,0.003541946,0,
00:09.0,-0.002946854,-0.009304047,0.003536224,0,
00:09.0,-0.002952576,-0.009304047,0.003536224,0,
00:09.0,-0.002946854,-0.009304047,0.003541946,0,
00:09.0,-0.002946854,-0.009298325,0.003547668,0,
00:09.0,-0.002946854,-0.009298325,0.003541946,0,
00:09.0,-0.002946854,-0.009304047,0.003536224,0,
00:09.0,-0.002946854,-0.009304047,0.003536224,0,
00:09.0,-0.002952576,-0.009309769,0.003536224,0,
00:00:09,-0.002946854,-0.009304047,0.003541946,0,
00:09.0,-0.002946854,-0.009292603,0.003541946,0,
00:09.0,-0.002946854,-0.009292603,0.003541946,0,
00:09.0,-0.002946854,-0.009304047,0.003536224,0,
00:09.0,-0.002946854,-0.009309769,0.003536224,0,
00:09.0,-0.002946854,-0.009304047,0.003536224,0,
00:09.0,-0.002946854,-0.009304047,0.003536224,0,
00:09.0,-0.002946854,-0.009304047,0.003536224,0,
00:09.0,-0.002946854,-0.009304047,0.003536224,0,
00:09.0,-0.002941132,-0.009292603,0.003536224,0,
00:09.0,-0.002946854,-0.009292603,0.003536224,0,
00:09.0,-0.002946854,-0.009304047,0.003530502,0,
00:09.0,-0.002946854,-0.009304047,0.00352478,0,
00:09.1,-0.002946854,-0.009304047,0.003536224,0,
00:09.1,-0.002946854,-0.009309769,0.003536224,0,
00:09.1,-0.002946854,-0.009309769,0.003536224,0,
00:09.1,-0.002946854,-0.009298325,0.003536224,0,
00:09.1,-0.002946854,-0.009298325,0.003536224,0,
00:09.1,-0.002952576,-0.009298325,0.003536224,0,
00:09.1,-0.002946854,-0.009298325,0.003530502,0,
00:09.1,-0.002946854,-0.009298325,0.003530502,0,
00:09.1,-0.002946854,-0.009298325,0.003541946,0,
00:09.1,-0.002946854,-0.009298325,0.003536224,0,
00:09.1,-0.002946854,-0.009298325,0.003530502,0,
00:09.1,-0.002946854,-0.009304047,0.003530502,0,
00:09.1,-0.002946854,-0.009304047,0.003536224,0,
00:09.1,-0.002946854,-0.009309769,0.003536224,0,
00:09.1,-0.002946854,-0.009309769,0.003530502,0,
00:09.1,-0.002946854,-0.009304047,0.00352478,0,
00:09.1,-0.002941132,-0.009298325,0.003530502,0,
00:09.1,-0.002941132,-0.009292603,0.00352478,0,
00:09.1,-0.002946854,-0.009298325,0.003530502,0,
00:09.1,-0.002946854,-0.009298325,0.003530502,0,
00:09.1,-0.002946854,-0.009304047,0.00352478,0,
00:09.1,-0.002946854,-0.009304047,0.003519058,0,
00:09.1,-0.002941132,-0.009298325,0.003519058,0,
00:09.1,-0.002941132,-0.009298325,0.00352478,0,
00:09.1,-0.002941132,-0.009298325,0.003530502,0,
00:09.2,-0.002946854,-0.009304047,0.00352478,0,
00:09.2,-0.002946854,-0.009315491,0.003519058,0,
00:09.2,-0.002946854,-0.009315491,0.003530502,0,
00:09.2,-0.002946854,-0.009292603,0.003530502,0,
00:09.2,-0.002941132,-0.00928688,0.003530502,0,
00:09.2,-0.002941132,-0.00928688,0.00352478,0,
00:09.2,-0.002941132,-0.009292603,0.00352478,0,
00:09.2,-0.002941132,-0.009298325,0.00352478,0,
00:09.2,-0.002946854,-0.009304047,0.00352478,0,
00:09.2,-0.002946854,-0.009298325,0.00352478,0,
00:09.2,-0.002941132,-0.009292603,0.003519058,0,
00:09.2,-0.002941132,-0.009298325,0.003519058,0,
00:09.2,-0.002941132,-0.009304047,0.00352478,0,
00:09.2,-0.002941132,-0.009304047,0.00352478,0,
00:09.2,-0.002946854,-0.009304047,0.003519058,0,
00:09.2,-0.002941132,-0.009298325,0.003513336,0,
00:09.2,-0.002941132,-0.009298325,0.003507614,0,
00:09.2,-0.002941132,-0.009298325,0.003513336,0,
00:09.2,-0.002941132,-0.009292603,0.003519058,0,
00:09.2,-0.002941132,-0.009292603,0.00352478,0,
00:09.2,-0.002941132,-0.009298325,0.003519058,0,
00:09.2,-0.002941132,-0.009309769,0.003513336,0,
00:09.2,-0.002941132,-0.009298325,0.003519058,0,
00:09.2,-0.002946854,-0.009292603,0.003519058,0,
00:09.2,-0.002946854,-0.009298325,0.003519058,0,
00:09.3,-0.002946854,-0.009304047,0.003513336,0,
00:09.3,-0.002941132,-0.009298325,0.003513336,0,
00:09.3,-0.002941132,-0.009292603,0.003513336,0,
00:09.3,-0.002946854,-0.009304047,0.003513336,0,
00:09.3,-0.002946854,-0.009309769,0.003513336,0,
00:09.3,-0.002946854,-0.009309769,0.003507614,0,
00:09.3,-0.002946854,-0.009304047,0.003507614,0,
00:09.3,-0.002941132,-0.009304047,0.003513336,0,
00:09.3,-0.002946854,-0.009315491,0.003519058,0,
00:09.3,-0.002946854,-0.009315491,0.003513336,0,
00:09.3,-0.002946854,-0.009298325,0.003507614,0,
00:09.3,-0.002946854,-0.009304047,0.00349617,0,
00:09.3,-0.002946854,-0.009304047,0.00349617,0,
00:09.3,-0.002941132,-0.009292603,0.003513336,0,
00:09.3,-0.002946854,-0.00928688,0.00352478,0,
00:09.3,-0.002941132,-0.00928688,0.003513336,0,
00:09.3,-0.002941132,-0.009292603,0.003513336,0,
00:09.3,-0.002946854,-0.009298325,0.003519058,0,
00:09.3,-0.002946854,-0.009298325,0.003513336,0,
00:09.3,-0.002946854,-0.009298325,0.003513336,0,
00:09.3,-0.002946854,-0.009304047,0.003507614,0,
00:09.3,-0.002946854,-0.009304047,0.003507614,0,
00:09.3,-0.002946854,-0.009304047,0.003513336,0,
00:09.3,-0.002946854,-0.009298325,0.003507614,0,
00:09.3,-0.002946854,-0.009298325,0.003507614,0,
00:09.4,-0.002946854,-0.009309769,0.003501892,0,
00:09.4,-0.002946854,-0.009309769,0.003501892,0,
00:09.4,-0.002946854,-0.009309769,0.003507614,0,
00:09.4,-0.002946854,-0.009309769,0.003507614,0,
00:09.4,-0.002946854,-0.009298325,0.003507614,0,
00:09.4,-0.002941132,-0.00928688,0.00349617,0,
00:09.4,-0.002941132,-0.009292603,0.00349617,0,
00:09.4,-0.002946854,-0.009304047,0.00349617,0,
00:09.4,-0.002946854,-0.009309769,0.003513336,0,
00:09.4,-0.002946854,-0.009315491,0.003513336,0,
00:09.4,-0.002946854,-0.009304047,0.003501892,0,
00:09.4,-0.002941132,-0.009304047,0.003501892,0,
00:09.4,-0.002946854,-0.009309769,0.003501892,0,
00:09.4,-0.002946854,-0.009298325,0.003507614,0,
00:09.4,-0.002941132,-0.009292603,0.003501892,0,
00:09.4,-0.002941132,-0.00928688,0.00349617,0,
00:09.4,-0.002941132,-0.009292603,0.00349617,0,
00:09.4,-0.002941132,-0.009304047,0.00349617,0,
00:09.4,-0.002941132,-0.009304047,0.00349617,0,
00:09.4,-0.002941132,-0.009304047,0.003501892,0,
00:09.4,-0.002941132,-0.009298325,0.00349617,0,
00:09.4,-0.002941132,-0.009292603,0.00349617,0,
00:09.4,-0.002941132,-0.009298325,0.003501892,0,
00:09.4,-0.002941132,-0.009298325,0.003501892,0,
00:09.4,-0.002941132,-0.009304047,0.00349617,0,
00:09.5,-0.002941132,-0.009304047,0.003490448,0,
00:09.5,-0.002941132,-0.009304047,0.00349617,0,
00:09.5,-0.002941132,-0.009309769,0.00349617,0,
00:09.5,-0.002941132,-0.009304047,0.00349617,0,
00:09.5,-0.002946854,-0.009298325,0.00349617,0,
00:09.5,-0.002941132,-0.009298325,0.003490448,0,
00:09.5,-0.002941132,-0.009304047,0.003490448,0,
00:09.5,-0.002941132,-0.009304047,0.003490448,0,
00:09.5,-0.002941132,-0.009304047,0.003490448,0,
00:09.5,-0.002941132,-0.009304047,0.003490448,0,
00:09.5,-0.002941132,-0.009298325,0.003490448,0,
00:09.5,-0.002941132,-0.009298325,0.003490448,0,
00:09.5,-0.002941132,-0.009304047,0.00349617,0,
00:09.5,-0.002941132,-0.009304047,0.003490448,0,
00:09.5,-0.002941132,-0.009304047,0.00349617,0,
00:09.5,-0.002941132,-0.009309769,0.003490448,0,
00:09.5,-0.002941132,-0.009309769,0.003490448,0,
00:09.5,-0.002941132,-0.009309769,0.00349617,0,
00:09.5,-0.002941132,-0.009298325,0.003490448,0,
00:09.5,-0.002941132,-0.009298325,0.003490448,0,
00:09.5,-0.002941132,-0.009304047,0.003484726,0,
00:09.5,-0.002941132,-0.009304047,0.003484726,0,
00:09.5,-0.002941132,-0.009304047,0.003490448,0,
00:09.5,-0.002941132,-0.009298325,0.00349617,0,
00:09.5,-0.002941132,-0.009292603,0.003490448,0,
00:09.6,-0.002941132,-0.009298325,0.003484726,0,
00:09.6,-0.002941132,-0.009304047,0.003484726,0,
00:09.6,-0.002941132,-0.009309769,0.003490448,0,
00:09.6,-0.002946854,-0.009304047,0.00349617,0,
00:09.6,-0.002946854,-0.009309769,0.003490448,0,
00:09.6,-0.002946854,-0.009309769,0.003484726,0,
00:09.6,-0.002941132,-0.009304047,0.003490448,0,
00:09.6,-0.002941132,-0.009298325,0.003490448,0,
00:09.6,-0.002941132,-0.009298325,0.003490448,0,
00:09.6,-0.002946854,-0.009304047,0.003490448,0,
00:09.6,-0.002941132,-0.009309769,0.003490448,0,
00:09.6,-0.002941132,-0.009309769,0.003484726,0,
00:09.6,-0.002941132,-0.009309769,0.003490448,0,
00:09.6,-0.002941132,-0.009304047,0.003490448,0,
00:09.6,-0.002941132,-0.009298325,0.003484726,0,
00:09.6,-0.002941132,-0.009298325,0.003479004,0,
00:09.6,-0.002941132,-0.009304047,0.003479004,0,
00:09.6,-0.002941132,-0.009309769,0.003484726,0,
00:09.6,-0.002941132,-0.009315491,0.003484726,0,
00:09.6,-0.002946854,-0.009321213,0.003484726,0,
00:09.6,-0.002946854,-0.009321213,0.003479004,0,
00:09.6,-0.002946854,-0.009315491,0.003479004,0,
00:09.6,-0.002941132,-0.009309769,0.003484726,0,
00:09.6,-0.002941132,-0.009298325,0.003484726,0,
00:09.6,-0.002941132,-0.009304047,0.003479004,0,
00:09.7,-0.002941132,-0.009309769,0.003473282,0,
00:09.7,-0.002941132,-0.009309769,0.003490448,0,
00:09.7,-0.002941132,-0.009315491,0.003490448,0,
00:09.7,-0.002941132,-0.009321213,0.003490448,0,
00:09.7,-0.002941132,-0.009309769,0.003484726,0,
00:09.7,-0.002941132,-0.009304047,0.003484726,0,
00:09.7,-0.002941132,-0.009304047,0.003484726,0,
00:09.7,-0.002941132,-0.009309769,0.003484726,0,
00:09.7,-0.002941132,-0.009321213,0.003484726,0,
00:09.7,-0.002941132,-0.009321213,0.003479004,0,
00:09.7,-0.002941132,-0.009321213,0.003479004,0,
00:09.7,-0.00293541,-0.009315491,0.003479004,0,
00:09.7,-0.00293541,-0.009309769,0.003479004,0,
00:09.7,-0.00293541,-0.009298325,0.003479004,0,
00:09.7,-0.00293541,-0.009298325,0.003473282,0,
00:09.7,-0.002941132,-0.009304047,0.00346756,0,
00:09.7,-0.00293541,-0.009304047,0.003484726,0,
00:09.7,-0.00293541,-0.009309769,0.003490448,0,
00:09.7,-0.002941132,-0.009315491,0.003484726,0,
00:09.7,-0.002941132,-0.009315491,0.003473282,0,
00:09.7,-0.002941132,-0.009315491,0.00346756,0,
00:09.7,-0.002941132,-0.009304047,0.003473282,0,
00:09.7,-0.002941132,-0.009304047,0.003484726,0,
00:09.7,-0.002941132,-0.009309769,0.003484726,0,
00:09.7,-0.002941132,-0.009309769,0.003479004,0,
00:09.8,-0.002941132,-0.009304047,0.003473282,0,
00:09.8,-0.002941132,-0.009309769,0.00346756,0,
00:09.8,-0.002941132,-0.009315491,0.003479004,0,
00:09.8,-0.002941132,-0.009309769,0.003479004,0,
00:09.8,-0.002941132,-0.009309769,0.003473282,0,
00:09.8,-0.002941132,-0.009309769,0.00346756,0,
00:09.8,-0.002941132,-0.009309769,0.003473282,0,
00:09.8,-0.002941132,-0.009309769,0.003473282,0,
00:09.8,-0.002941132,-0.009315491,0.003473282,0,
00:09.8,-0.002941132,-0.009315491,0.00346756,0,
00:09.8,-0.002941132,-0.009309769,0.00346756,0,
00:09.8,-0.00293541,-0.009309769,0.00346756,0,
00:09.8,-0.002941132,-0.009309769,0.00346756,0,
00:09.8,-0.002941132,-0.009315491,0.00346756,0,
00:09.8,-0.002941132,-0.009315491,0.00346756,0,
00:09.8,-0.002941132,-0.009315491,0.00346756,0,
00:09.8,-0.002941132,-0.009315491,0.00346756,0,
00:09.8,-0.002941132,-0.009315491,0.00346756,0,
00:09.8,-0.002941132,-0.009304047,0.00346756,0,
00:09.8,-0.002941132,-0.009298325,0.00346756,0,
00:09.8,-0.002941132,-0.009304047,0.003461838,0,
00:09.8,-0.00293541,-0.009309769,0.00346756,0,
00:09.8,-0.00293541,-0.009315491,0.00346756,0,
00:09.8,-0.002941132,-0.009309769,0.003473282,0,
00:09.8,-0.002941132,-0.009315491,0.00346756,0,
00:09.9,-0.002941132,-0.009315491,0.003461838,0,
00:09.9,-0.002941132,-0.009321213,0.003461838,0,
00:09.9,-0.002941132,-0.009321213,0.003461838,0,
