Elapsed_Time,EMG1,EMG2,EMG3,BioRadio Event,Unnamed: 5
00:00:00,0.00229454,0.00100708,0.00693512,0,
00:00.0,0.00229454,0.00100708,0.006912231,0,
00:00.0,0.002288818,0.001001358,0.006912231,0,
00:00.0,0.002288818,0.000995636,0.00693512,0,
00:00.0,0.00229454,0.00100708,0.006912231,0,
00:00.0,0.002300262,0.000995636,0.006855011,0,
00:00.0,0.002271652,0.00100708,0.006877899,0,
00:00.0,0.002288818,0.001041412,0.006883621,0,
00:00.0,0.002323151,0.001024246,0.00693512,0,
00:00.0,0.002277374,0.00100708,0.00699234,0,
00:00.0,0.002288818,0.001001358,0.006958008,0,
00:00.0,0.002288818,0.000995636,0.006940842,0,
00:00.0,0.002288818,0.000989914,0.006929398,0,
00:00.1,0.002283096,0.000984192,0.006923676,0,
00:00.1,0.002283096,0.000984192,0.006906509,0,
00:00.1,0.002283096,0.000967026,0.006889343,0,
00:00.1,0.002283096,0.001058578,0.006866455,0,
00:00.1,0.002300262,0.001058578,0.006877899,0,
00:00.1,0.002300262,0.00100708,0.006946564,0,
00:00.1,0.00229454,0.000989914,0.006986618,0,
00:00.1,0.002283096,0.000995636,0.00696373,0,
00:00.1,0.002283096,0.001001358,0.006952286,0,
00:00.1,0.002277374,0.001001358,0.006946564,0,
00:00.1,0.002288818,0.000995636,0.006940842,0,
00:00.1,0.00229454,0.000955582,0.006917953,0,
00:00.1,0.002288818,0.001001358,0.006889343,0,
00:00.1,0.002288818,0.001018524,0.006889343,0,
00:00.1,0.002300262,0.001001358,0.006895065,0,
00:00.1,0.00229454,0.001029968,0.006980896,0,
00:00.1,0.002283096,0.00100708,0.006998062,0,
00:00.1,0.002277374,0.000984192,0.006952286,0,
00:00.1,0.002277374,0.001001358,0.00693512,0,
00:00.1,0.002305984,0.000995636,0.006946564,0,
00:00.1,0.002288818,0.00097847,0.006946564,0,
00:00.1,0.002283096,0.000989914,0.006929398,0,
00:00.1,0.002311707,0.001012802,0.006866455,0,
00:00.1,0.002283096,0.001001358,0.006877899,0,
00:00.1,0.002283096,0.000989914,0.006958008,0,
00:00.2,0.002271652,0.000972748,0.006975174,0,
00:00.2,0.002283096,0.000995636,0.006958008,0,
00:00.2,0.002317429,0.000995636,0.006900787,0,
00:00.2,0.002317429,0.00097847,0.006906509,0,
00:00.2,0.002283096,0.000995636,0.006900787,0,
00:00.2,0.002277374,0.000989914,0.006958008,0,
00:00.2,0.002283096,0.00100708,0.006969452,0,
00:00.2,0.002283096,0.001001358,0.006958008,0,
00:00.2,0.002277374,0.000984192,0.00696373,0,
00:00.2,0.00229454,0.001001358,0.00696373,0,
00:00.2,0.002305984,0.000995636,0.006952286,0,
00:00.2,0.002283096,0.000961304,0.006940842,0,
00:00.2,0.002288818,0.000984192,0.006929398,0,
00:00.2,0.002288818,0.001001358,0.006929398,0,
00:00.2,0.002277374,0.000995636,0.006889343,0,
00:00.2,0.002288818,0.000984192,0.006952286,0,
00:00.2,0.002288818,0.000972748,0.006969452,0,
00:00.2,0.002283096,0.000972748,0.006940842,0,
00:00.2,0.002300262,0.000989914,0.006940842,0,
00:00.2,0.002288818,0.001029968,0.006929398,0,
00:00.2,0.00229454,0.000989914,0.006906509,0,
00:00.2,0.002288818,0.000967026,0.006849289,0,
00:00.2,0.002311707,0.00097847,0.006946564,0,
00:00.2,0.002260208,0.000989914,0.00699234,0,
00:00.2,0.002260208,0.000984192,0.006958008,0,
00:00.3,0.002288818,0.001001358,0.006917953,0,
00:00.3,0.002283096,0.000972748,0.006912231,0,
00:00.3,0.002283096,0.000972748,0.006952286,0,
00:00.3,0.002283096,0.000967026,0.006917953,0,
00:00.3,0.002283096,0.00100708,0.00696373,0,
00:00.3,0.002288818,0.001012802,0.006958008,0,
00:00.3,0.002300262,0.001001358,0.00693512,0,
00:00.3,0.002311707,0.000984192,0.006958008,0,
00:00.3,0.002288818,0.000967026,0.006946564,0,
00:00.3,0.00229454,0.00097847,0.006929398,0,
00:00.3,0.00229454,0.00097847,0.00693512,0,
00:00.3,0.00229454,0.000967026,0.00693512,0,
00:00.3,0.002277374,0.000995636,0.006946564,0,
00:00.3,0.002271652,0.000989914,0.006940842,0,
00:00.3,0.002271652,0.000989914,0.006895065,0,
00:00.3,0.002260208,0.000984192,0.006889343,0,
00:00.3,0.002277374,0.000972748,0.006952286,0,
00:00.3,0.002305984,0.000972748,0.006969452,0,
00:00.3,0.002288818,0.000967026,0.006958008,0,
00:00.3,0.002283096,0.00097847,0.006946564,0,
00:00.3,0.002271652,0.000995636,0.006900787,0,
00:00.3,0.002277374,0.000989914,0.006906509,0,
00:00.3,0.002288818,0.000972748,0.006940842,0,
00:00.3,0.002300262,0.00097847,0.006923676,0,
00:00.3,0.002283096,0.00097847,0.006895065,0,
00:00.4,0.00226593,0.000989914,0.006940842,0,
00:00.4,0.002283096,0.000967026,0.00696373,0,
00:00.4,0.00229454,0.000972748,0.006952286,0,
00:00.4,0.002288818,0.000989914,0.006900787,0,
00:00.4,0.002271652,0.001001358,0.006952286,0,
00:00.4,0.002271652,0.000961304,0.006958008,0,
00:00.4,0.00226593,0.000967026,0.006952286,0,
00:00.4,0.00229454,0.000984192,0.006958008,0,
00:00.4,0.00229454,0.00097847,0.00693512,0,
00:00.4,0.00229454,0.000967026,0.006912231,0,
00:00.4,0.002277374,0.000967026,0.00693512,0,
00:00.4,0.002260208,0.000984192,0.006958008,0,
00:00.4,0.002277374,0.000972748,0.006952286,0,
00:00.4,0.002288818,0.000967026,0.006946564,0,
00:00.4,0.002271652,0.000989914,0.006940842,0,
00:00.4,0.00226593,0.000984192,0.006940842,0,
00:00.4,0.002283096,0.000989914,0.006958008,0,
00:00.4,0.002288818,0.000984192,0.006940842,0,
00:00.4,0.002288818,0.00097847,0.006912231,0,
00:00.4,0.002260208,0.000961304,0.006895065,0,
00:00.4,0.002271652,0.000972748,0.006906509,0,
00:00.4,0.002271652,0.000984192,0.006917953,0,
00:00.4,0.00229454,0.000984192,0.007003784,0,
00:00.4,0.002260208,0.00097847,0.006986618,0,
00:00.4,0.002283096,0.00097847,0.006958008,0,
00:00.5,0.00229454,0.000961304,0.006952286,0,
00:00.5,0.00229454,0.000955582,0.006923676,0,
00:00.5,0.002300262,0.000967026,0.006906509,0,
00:00.5,0.002271652,0.000984192,0.006980896,0,
00:00.5,0.002277374,0.000989914,0.006969452,0,
00:00.5,0.002271652,0.000955582,0.00693512,0,
00:00.5,0.002288818,0.000995636,0.006952286,0,
00:00.5,0.002288818,0.000995636,0.00696373,0,
00:00.5,0.002260208,0.00097847,0.006969452,0,
00:00.5,0.002271652,0.000984192,0.00696373,0,
00:00.5,0.002288818,0.000984192,0.006946564,0,
00:00.5,0.002283096,0.000972748,0.006946564,0,
00:00.5,0.002271652,0.000984192,0.00693512,0,
00:00.5,0.002277374,0.000972748,0.006900787,0,
00:00.5,0.002288818,0.000967026,0.006952286,0,
00:00.5,0.002283096,0.000967026,0.006975174,0,
00:00.5,0.00226593,0.000972748,0.006929398,0,
00:00.5,0.002277374,0.000967026,0.006940842,0,
00:00.5,0.002283096,0.000984192,0.006986618,0,
00:00.5,0.002283096,0.000984192,0.006986618,0,
00:00.5,0.002288818,0.00097847,0.006946564,0,
00:00.5,0.002328873,0.000972748,0.006900787,0,
00:00.5,0.002288818,0.00097847,0.006906509,0,
00:00.5,0.002248764,0.000967026,0.006986618,0,
00:00.5,0.002271652,0.00094986,0.007015228,0,
00:00.6,0.002277374,0.00097847,0.006975174,0,
00:00.6,0.002277374,0.000995636,0.006969452,0,
00:00.6,0.002277374,0.000989914,0.006952286,0,
00:00.6,0.002277374,0.000984192,0.006923676,0,
00:00.6,0.002277374,0.000967026,0.006975174,0,
00:00.6,0.002283096,0.000972748,0.006975174,0,
00:00.6,0.002288818,0.00097847,0.00696373,0,
00:00.6,0.002277374,0.000972748,0.00696373,0,
00:00.6,0.002283096,0.00097847,0.006975174,0,
00:00.6,0.002271652,0.000984192,0.006986618,0,
00:00.6,0.002277374,0.00097847,0.006969452,0,
00:00.6,0.00226593,0.00097847,0.006946564,0,
00:00.6,0.00226593,0.000984192,0.006946564,0,
00:00.6,0.002305984,0.000961304,0.00696373,0,
00:00.6,0.002305984,0.000967026,0.00696373,0,
00:00.6,0.002283096,0.000995636,0.006940842,0,
00:00.6,0.00223732,0.000989914,0.00696373,0,
00:00.6,0.002277374,0.00097847,0.006975174,0,
00:00.6,0.002283096,0.000972748,0.006946564,0,
00:00.6,0.002277374,0.000995636,0.006883621,0,
00:00.6,0.002300262,0.000984192,0.006952286,0,
00:00.6,0.002311707,0.000972748,0.007026672,0,
00:00.6,0.002271652,0.000955582,0.006998062,0,
00:00.6,0.00226593,0.000967026,0.006986618,0,
00:00.6,0.002288818,0.00097847,0.006969452,0,
00:00.7,0.002277374,0.000984192,0.006958008,0,
00:00.7,0.002260208,0.000989914,0.006986618,0,
00:00.7,0.00226593,0.000972748,0.006975174,0,
00:00.7,0.002300262,0.00097847,0.006958008,0,
00:00.7,0.002277374,0.00094986,0.006975174,0,
00:00.7,0.002277374,0.00097847,0.00699234,0,
00:00.7,0.002283096,0.000972748,0.006969452,0,
00:00.7,0.002277374,0.00097847,0.006969452,0,
00:00.7,0.002288818,0.000995636,0.006975174,0,
00:00.7,0.002283096,0.000995636,0.006969452,0,
00:00.7,0.002288818,0.000989914,0.006975174,0,
00:00.7,0.00229454,0.000989914,0.006940842,0,
00:00.7,0.00226593,0.000967026,0.006940842,0,
00:00.7,0.00226593,0.000961304,0.006917953,0,
00:00.7,0.002277374,0.000972748,0.007009506,0,
00:00.7,0.002311707,0.00097847,0.006986618,0,
00:00.7,0.002305984,0.00097847,0.006923676,0,
00:00.7,0.002260208,0.00094986,0.006998062,0,
00:00.7,0.002271652,0.000967026,0.007015228,0,
00:00.7,0.002283096,0.000995636,0.006952286,0,
00:00.7,0.002288818,0.000984192,0.006975174,0,
00:00.7,0.002300262,0.000984192,0.006980896,0,
00:00.7,0.002260208,0.000955582,0.006986618,0,
00:00.7,0.002283096,0.000955582,0.007003784,0,
00:00.7,0.002277374,0.000955582,0.007003784,0,
00:00.8,0.002277374,0.000989914,0.00699234,0,
00:00.8,0.002283096,0.000984192,0.006986618,0,
00:00.8,0.002283096,0.000995636,0.006975174,0,
00:00.8,0.002271652,0.000989914,0.006969452,0,
00:00.8,0.002300262,0.000972748,0.006958008,0,
00:00.8,0.002300262,0.000972748,0.006940842,0,
00:00.8,0.002271652,0.000972748,0.007015228,0,
00:00.8,0.002277374,0.000972748,0.007015228,0,
00:00.8,0.002277374,0.00097847,0.007003784,0,
00:00.8,0.002305984,0.00097847,0.006946564,0,
00:00.8,0.002288818,0.000972748,0.006975174,0,
00:00.8,0.002277374,0.000967026,0.00702095,0,
00:00.8,0.002277374,0.000961304,0.00699234,0,
00:00.8,0.002271652,0.000989914,0.006958008,0,
00:00.8,0.002231598,0.000972748,0.00696373,0,
00:00.8,0.002305984,0.00097847,0.007015228,0,
00:00.8,0.002283096,0.000972748,0.007003784,0,
00:00.8,0.002283096,0.000955582,0.006946564,0,
00:00.8,0.002300262,0.00097847,0.006998062,0,
00:00.8,0.002317429,0.000989914,0.006958008,0,
00:00.8,0.002305984,0.000989914,0.006969452,0,
00:00.8,0.002288818,0.000972748,0.007049561,0,
00:00.8,0.002271652,0.00097847,0.007015228,0,
00:00.8,0.002254486,0.00094986,0.006998062,0,
00:00.8,0.002288818,0.000961304,0.007015228,0,
00:00.9,0.002288818,0.000984192,0.007003784,0,
00:00.9,0.002288818,0.000995636,0.007003784,0,
00:00.9,0.00229454,0.00100708,0.006998062,0,
00:00.9,0.002288818,0.000989914,0.006986618,0,
00:00.9,0.002288818,0.00097847,0.00699234,0,
00:00.9,0.00229454,0.000972748,0.006980896,0,
00:00.9,0.002283096,0.000967026,0.006980896,0,
00:00.9,0.002271652,0.000972748,0.006980896,0,
00:00.9,0.002277374,0.000972748,0.006980896,0,
00:00.9,0.002271652,0.00097847,0.006980896,0,
00:00.9,0.002277374,0.000989914,0.007003784,0,
00:00.9,0.002271652,0.000972748,0.006980896,0,
00:00.9,0.00229454,0.000967026,0.00693512,0,
00:00.9,0.00229454,0.000961304,0.006969452,0,
00:00.9,0.002317429,0.000989914,0.007055283,0,
00:00.9,0.002305984,0.000972748,0.007009506,0,
00:00.9,0.002283096,0.000989914,0.00696373,0,
00:00.9,0.002283096,0.000989914,0.006986618,0,
00:00.9,0.002283096,0.00097847,0.007032394,0,
00:00.9,0.002283096,0.000984192,0.00702095,0,
00:00.9,0.002283096,0.000995636,0.007003784,0,
00:00.9,0.00229454,0.000984192,0.006986618,0,
00:00.9,0.00226593,0.000955582,0.006975174,0,
00:00.9,0.002277374,0.000938416,0.006986618,0,
00:00.9,0.002317429,0.001001358,0.006986618,0,
00:01.0,0.00229454,0.001024246,0.006980896,0,
00:01.0,0.002271652,0.000989914,0.007003784,0,
00:01.0,0.002283096,0.00097847,0.00702095,0,
00:01.0,0.002288818,0.00097847,0.00699234,0,
00:01.0,0.002288818,0.000984192,0.006986618,0,
00:01.0,0.002300262,0.000955582,0.006980896,0,
00:01.0,0.002277374,0.00094986,0.006912231,0,
00:01.0,0.002260208,0.001001358,0.007003784,0,
00:01.0,0.002277374,0.00097847,0.007049561,0,
00:01.0,0.002283096,0.000984192,0.007015228,0,
00:01.0,0.002283096,0.000989914,0.00702095,0,
00:01.0,0.002311707,0.000989914,0.00699234,0,
00:00:01,0.002300262,0.000989914,0.00699234,0,
00:01.0,0.002283096,0.000972748,0.00699234,0,
00:01.0,0.002271652,0.000961304,0.006998062,0,
00:01.0,0.002288818,0.000967026,0.00699234,0,
00:01.0,0.002288818,0.001001358,0.007003784,0,
00:01.0,0.002288818,0.000995636,0.007009506,0,
00:01.0,0.002288818,0.000995636,0.007009506,0,
00:01.0,0.002288818,0.000989914,0.006998062,0,
00:01.0,0.002300262,0.00097847,0.006975174,0,
00:01.0,0.002311707,0.00097847,0.006946564,0,
00:01.0,0.00229454,0.000972748,0.006877899,0,
00:01.0,0.00226593,0.000955582,0.00696373,0,
00:01.0,0.002277374,0.000967026,0.007101059,0,
00:01.1,0.002288818,0.001018524,0.007055283,0,
00:01.1,0.00229454,0.000995636,0.007032394,0,
00:01.1,0.00229454,0.000984192,0.007009506,0,
00:01.1,0.002288818,0.00097847,0.006998062,0,
00:01.1,0.002283096,0.000989914,0.006998062,0,
00:01.1,0.00229454,0.000989914,0.006980896,0,
00:01.1,0.002311707,0.000967026,0.006958008,0,
00:01.1,0.002260208,0.000938416,0.006975174,0,
00:01.1,0.002283096,0.00100708,0.007009506,0,
00:01.1,0.002283096,0.000995636,0.00702095,0,
00:01.1,0.002305984,0.000984192,0.006998062,0,
00:01.1,0.00229454,0.00097847,0.006986618,0,
00:01.1,0.00229454,0.000972748,0.007015228,0,
00:01.1,0.00229454,0.000972748,0.007003784,0,
00:01.1,0.002271652,0.00097847,0.00699234,0,
00:01.1,0.002317429,0.000938416,0.006855011,0,
00:01.1,0.002300262,0.000961304,0.006860733,0,
00:01.1,0.002288818,0.001047134,0.007106781,0,
00:01.1,0.002277374,0.000995636,0.007106781,0,
00:01.1,0.002288818,0.000984192,0.007032394,0,
00:01.1,0.002288818,0.000989914,0.00702095,0,
00:01.1,0.00229454,0.00097847,0.007009506,0,
00:01.1,0.002288818,0.00097847,0.007003784,0,
00:01.1,0.002288818,0.000972748,0.007003784,0,
00:01.1,0.002288818,0.000955582,0.006998062,0,
00:01.2,0.002277374,0.000972748,0.006958008,0,
00:01.2,0.002260208,0.000989914,0.006952286,0,
00:01.2,0.002300262,0.000984192,0.007015228,0,
00:01.2,0.002300262,0.000995636,0.007038116,0,
00:01.2,0.002288818,0.000984192,0.007026672,0,
00:01.2,0.00229454,0.000989914,0.007015228,0,
00:01.2,0.002300262,0.00097847,0.007003784,0,
00:01.2,0.002288818,0.000972748,0.007015228,0,
00:01.2,0.002288818,0.000972748,0.007003784,0,
00:01.2,0.002288818,0.000972748,0.006980896,0,
00:01.2,0.00229454,0.000972748,0.006900787,0,
00:01.2,0.002271652,0.000984192,0.006912231,0,
00:01.2,0.002334595,0.001001358,0.007032394,0,
00:01.2,0.002288818,0.000989914,0.007015228,0,
00:01.2,0.002283096,0.00097847,0.007026672,0,
00:01.2,0.002288818,0.000972748,0.007061005,0,
00:01.2,0.00229454,0.00097847,0.007026672,0,
00:01.2,0.002283096,0.00097847,0.007009506,0,
00:01.2,0.002288818,0.000972748,0.006998062,0,
00:01.2,0.002288818,0.000972748,0.007003784,0,
00:01.2,0.002254486,0.000989914,0.006986618,0,
00:01.2,0.002271652,0.000995636,0.007003784,0,
00:01.2,0.002328873,0.001001358,0.007032394,0,
00:01.2,0.002305984,0.000989914,0.007009506,0,
00:01.2,0.002288818,0.000989914,0.007009506,0,
00:01.3,0.002288818,0.000967026,0.00702095,0,
00:01.3,0.002288818,0.000972748,0.007015228,0,
00:01.3,0.00229454,0.000989914,0.007009506,0,
00:01.3,0.00229454,0.000972748,0.00702095,0,
00:01.3,0.002300262,0.001001358,0.00699234,0,
00:01.3,0.00229454,0.001001358,0.00696373,0,
00:01.3,0.002300262,0.000995636,0.00696373,0,
00:01.3,0.002311707,0.000995636,0.007026672,0,
00:01.3,0.002271652,0.000984192,0.007026672,0,
00:01.3,0.002277374,0.000984192,0.007038116,0,
00:01.3,0.002288818,0.000984192,0.007032394,0,
00:01.3,0.002288818,0.00097847,0.007015228,0,
00:01.3,0.002288818,0.000967026,0.006998062,0,
00:01.3,0.002277374,0.001001358,0.00696373,0,
00:01.3,0.002300262,0.00100708,0.006980896,0,
00:01.3,0.00229454,0.001001358,0.007026672,0,
00:01.3,0.002288818,0.000989914,0.00702095,0,
00:01.3,0.002305984,0.00097847,0.00702095,0,
00:01.3,0.002300262,0.000972748,0.007061005,0,
00:01.3,0.00229454,0.000984192,0.007032394,0,
00:01.3,0.002300262,0.000995636,0.007015228,0,
00:01.3,0.002305984,0.000984192,0.00699234,0,
00:01.3,0.00229454,0.000967026,0.006958008,0,
00:01.3,0.002277374,0.00097847,0.007009506,0,
00:01.3,0.002323151,0.001018524,0.007043839,0,
00:01.4,0.002305984,0.000995636,0.007032394,0,
00:01.4,0.002271652,0.000967026,0.007038116,0,
00:01.4,0.002283096,0.00097847,0.00702095,0,
00:01.4,0.00229454,0.000984192,0.006998062,0,
00:01.4,0.002300262,0.000984192,0.006998062,0,
00:01.4,0.002305984,0.000972748,0.00702095,0,
00:01.4,0.002288818,0.000955582,0.007015228,0,
00:01.4,0.002300262,0.000972748,0.007026672,0,
00:01.4,0.00229454,0.001001358,0.007026672,0,
00:01.4,0.002288818,0.000989914,0.00702095,0,
00:01.4,0.00229454,0.00097847,0.006998062,0,
00:01.4,0.002300262,0.00097847,0.00699234,0,
00:01.4,0.00229454,0.000944138,0.006940842,0,
00:01.4,0.002288818,0.000967026,0.006998062,0,
00:01.4,0.002311707,0.000995636,0.007061005,0,
00:01.4,0.002305984,0.000967026,0.007055283,0,
00:01.4,0.002317429,0.000967026,0.007015228,0,
00:01.4,0.002305984,0.00097847,0.007026672,0,
00:01.4,0.002283096,0.000967026,0.007026672,0,
00:01.4,0.00229454,0.000967026,0.006975174,0,
00:01.4,0.002300262,0.000955582,0.00696373,0,
00:01.4,0.002311707,0.000938416,0.007043839,0,
00:01.4,0.002300262,0.000984192,0.007038116,0,
00:01.4,0.002300262,0.001001358,0.007049561,0,
00:01.4,0.002300262,0.00097847,0.00702095,0,
00:01.5,0.002300262,0.000984192,0.007003784,0,
00:01.5,0.002288818,0.000961304,0.007026672,0,
00:01.5,0.002300262,0.000972748,0.00702095,0,
00:01.5,0.002305984,0.000989914,0.007015228,0,
00:01.5,0.002328873,0.000989914,0.007003784,0,
00:01.5,0.002311707,0.000967026,0.00699234,0,
00:01.5,0.002271652,0.000955582,0.007015228,0,
00:01.5,0.00226593,0.000972748,0.007015228,0,
00:01.5,0.002271652,0.000972748,0.006975174,0,
00:01.5,0.002283096,0.000972748,0.007038116,0,
00:01.5,0.002328873,0.000967026,0.007015228,0,
00:01.5,0.002346039,0.000961304,0.006952286,0,
00:01.5,0.002300262,0.000972748,0.006986618,0,
00:01.5,0.002271652,0.00094986,0.007066727,0,
00:01.5,0.002271652,0.000967026,0.007026672,0,
00:01.5,0.00229454,0.000955582,0.007026672,0,
00:01.5,0.002323151,0.000972748,0.007026672,0,
00:01.5,0.002311707,0.000984192,0.007026672,0,
00:01.5,0.002300262,0.000972748,0.00702095,0,
00:01.5,0.002305984,0.000972748,0.006980896,0,
00:01.5,0.002311707,0.000972748,0.006986618,0,
00:01.5,0.002288818,0.000961304,0.007026672,0,
00:01.5,0.00229454,0.000955582,0.007032394,0,
00:01.5,0.002288818,0.000984192,0.00702095,0,
00:01.5,0.002305984,0.000989914,0.006975174,0,
00:01.6,0.00229454,0.00097847,0.007003784,0,
00:01.6,0.00229454,0.000961304,0.007043839,0,
00:01.6,0.00229454,0.00097847,0.007015228,0,
00:01.6,0.00229454,0.00097847,0.00699234,0,
00:01.6,0.002288818,0.000944138,0.00699234,0,
00:01.6,0.002334595,0.000961304,0.006952286,0,
00:01.6,0.00229454,0.00097847,0.006986618,0,
00:01.6,0.00229454,0.00097847,0.007009506,0,
00:01.6,0.002283096,0.000972748,0.007049561,0,
00:01.6,0.002283096,0.000961304,0.007015228,0,
00:01.6,0.002288818,0.000944138,0.007015228,0,
00:01.6,0.002328873,0.000955582,0.007009506,0,
00:01.6,0.002317429,0.00097847,0.007003784,0,
00:01.6,0.002317429,0.000984192,0.00699234,0,
00:01.6,0.002288818,0.000967026,0.006998062,0,
00:01.6,0.00226593,0.000961304,0.007009506,0,
00:01.6,0.002288818,0.000955582,0.006969452,0,
00:01.6,0.002300262,0.000961304,0.007015228,0,
00:01.6,0.00229454,0.000972748,0.007038116,0,
00:01.6,0.002305984,0.000961304,0.007015228,0,
00:01.6,0.002311707,0.000955582,0.007003784,0,
00:01.6,0.002300262,0.000955582,0.006975174,0,
00:01.6,0.002283096,0.000972748,0.006986618,0,
00:01.6,0.002288818,0.000984192,0.006998062,0,
00:01.6,0.002328873,0.000972748,0.006975174,0,
00:01.7,0.00229454,0.000961304,0.007026672,0,
00:01.7,0.002283096,0.000955582,0.007015228,0,
00:01.7,0.002300262,0.00094986,0.006958008,0,
00:01.7,0.002305984,0.000984192,0.006986618,0,
00:01.7,0.002323151,0.000972748,0.007026672,0,
00:01.7,0.00229454,0.000955582,0.007009506,0,
00:01.7,0.002283096,0.00097847,0.007015228,0,
00:01.7,0.002283096,0.000967026,0.006975174,0,
00:01.7,0.002283096,0.000944138,0.006923676,0,
00:01.7,0.002311707,0.000955582,0.007032394,0,
00:01.7,0.002283096,0.000967026,0.007026672,0,
00:01.7,0.002300262,0.000955582,0.00702095,0,
00:01.7,0.002311707,0.000972748,0.007009506,0,
00:01.7,0.002305984,0.000984192,0.006986618,0,
00:01.7,0.002300262,0.000967026,0.006980896,0,
00:01.7,0.002288818,0.000955582,0.007009506,0,
00:01.7,0.002305984,0.000944138,0.007003784,0,
00:01.7,0.002283096,0.000938416,0.00699234,0,
00:01.7,0.002311707,0.000972748,0.006998062,0,
00:01.7,0.002323151,0.000972748,0.006986618,0,
00:01.7,0.002305984,0.000984192,0.006975174,0,
00:01.7,0.002328873,0.000967026,0.006980896,0,
00:01.7,0.002305984,0.000961304,0.006980896,0,
00:01.7,0.002254486,0.000972748,0.007003784,0,
00:01.7,0.00226593,0.000955582,0.007003784,0,
00:01.8,0.002288818,0.00094986,0.006952286,0,
00:01.8,0.002283096,0.000955582,0.006906509,0,
00:01.8,0.002311707,0.00097847,0.006986618,0,
00:01.8,0.002311707,0.000967026,0.007061005,0,
00:01.8,0.002305984,0.00094986,0.007009506,0,
00:01.8,0.002283096,0.000938416,0.006980896,0,
00:01.8,0.002283096,0.000972748,0.006986618,0,
00:01.8,0.002300262,0.000972748,0.00699234,0,
00:01.8,0.002305984,0.000955582,0.007009506,0,
00:01.8,0.002288818,0.00094986,0.00699234,0,
00:01.8,0.002288818,0.000972748,0.006980896,0,
00:01.8,0.002288818,0.00094986,0.00699234,0,
00:01.8,0.00229454,0.000944138,0.006986618,0,
00:01.8,0.00229454,0.00097847,0.006986618,0,
00:01.8,0.00229454,0.00097847,0.006986618,0,
00:01.8,0.002317429,0.000944138,0.006969452,0,
00:01.8,0.002305984,0.000967026,0.006958008,0,
00:01.8,0.002271652,0.000967026,0.006969452,0,
00:01.8,0.002288818,0.000961304,0.006969452,0,
00:01.8,0.002248764,0.000944138,0.006969452,0,
00:01.8,0.002288818,0.000955582,0.006946564,0,
00:01.8,0.002317429,0.00097847,0.006969452,0,
00:01.8,0.002288818,0.000961304,0.006980896,0,
00:01.8,0.002283096,0.000938416,0.006975174,0,
00:01.8,0.00229454,0.000972748,0.006986618,0,
00:01.9,0.002271652,0.000955582,0.006969452,0,
00:01.9,0.002271652,0.00094986,0.006940842,0,
00:01.9,0.002317429,0.00097847,0.006986618,0,
00:01.9,0.002288818,0.000967026,0.007009506,0,
00:01.9,0.002283096,0.000955582,0.00699234,0,
00:01.9,0.002288818,0.000944138,0.006975174,0,
00:01.9,0.002300262,0.000944138,0.006980896,0,
00:01.9,0.00229454,0.000955582,0.006980896,0,
00:01.9,0.002277374,0.000938416,0.00696373,0,
00:01.9,0.002277374,0.000961304,0.006975174,0,
00:01.9,0.002288818,0.000961304,0.006975174,0,
00:01.9,0.002283096,0.000972748,0.00696373,0,
00:01.9,0.002283096,0.000972748,0.00696373,0,
00:01.9,0.002288818,0.000955582,0.006958008,0,
00:01.9,0.002288818,0.000961304,0.006946564,0,
00:01.9,0.00229454,0.00097847,0.006900787,0,
00:01.9,0.002283096,0.00097847,0.006958008,0,
00:01.9,0.002271652,0.000967026,0.007003784,0,
00:01.9,0.002271652,0.000955582,0.007009506,0,
00:01.9,0.002271652,0.000955582,0.006975174,0,
00:01.9,0.002254486,0.000961304,0.006946564,0,
00:01.9,0.002260208,0.000967026,0.00693512,0,
00:01.9,0.002311707,0.000955582,0.00693512,0,
00:01.9,0.002288818,0.000961304,0.00699234,0,
00:01.9,0.002283096,0.000967026,0.006969452,0,
00:02.0,0.00229454,0.000967026,0.006969452,0,
00:02.0,0.002283096,0.000955582,0.006980896,0,
00:02.0,0.002271652,0.00094986,0.006975174,0,
00:02.0,0.002260208,0.000944138,0.00696373,0,
00:02.0,0.002300262,0.00094986,0.006940842,0,
00:02.0,0.002271652,0.000944138,0.006906509,0,
00:02.0,0.002300262,0.000967026,0.006975174,0,
00:02.0,0.002283096,0.00097847,0.006986618,0,
00:02.0,0.002271652,0.000961304,0.007003784,0,
00:02.0,0.002283096,0.000967026,0.006946564,0,
00:02.0,0.002271652,0.000955582,0.006912231,0,
00:02.0,0.00226593,0.000972748,0.007003784,0,
00:00:02,0.002288818,0.000984192,0.006969452,0,
00:02.0,0.002283096,0.000972748,0.006958008,0,
00:02.0,0.002288818,0.000961304,0.006986618,0,
00:02.0,0.002277374,0.000961304,0.006986618,0,
00:02.0,0.00226593,0.000961304,0.006975174,0,
00:02.0,0.00223732,0.000961304,0.006980896,0,
00:02.0,0.00226593,0.000955582,0.006980896,0,
00:02.0,0.00229454,0.00094986,0.006969452,0,
00:02.0,0.002283096,0.000955582,0.006969452,0,
00:02.0,0.002283096,0.000955582,0.006975174,0,
00:02.0,0.002277374,0.00097847,0.006969452,0,
00:02.0,0.002271652,0.00097847,0.006975174,0,
00:02.0,0.002283096,0.00094986,0.006975174,0,
00:02.1,0.002283096,0.000972748,0.00693512,0,
00:02.1,0.002277374,0.00097847,0.006940842,0,
00:02.1,0.00229454,0.000967026,0.006986618,0,
00:02.1,0.002260208,0.000955582,0.006952286,0,
00:02.1,0.002271652,0.00094986,0.006998062,0,
00:02.1,0.002271652,0.00097847,0.00699234,0,
00:02.1,0.002260208,0.000972748,0.006998062,0,
00:02.1,0.002260208,0.000972748,0.006980896,0,
00:02.1,0.002277374,0.000972748,0.007015228,0,
00:02.1,0.002271652,0.00097847,0.00699234,0,
00:02.1,0.002271652,0.000972748,0.006975174,0,
00:02.1,0.002260208,0.000967026,0.006958008,0,
00:02.1,0.002271652,0.000961304,0.00693512,0,
00:02.1,0.00226593,0.00094986,0.007009506,0,
00:02.1,0.002248764,0.000938416,0.007009506,0,
00:02.1,0.002288818,0.000955582,0.00699234,0,
00:02.1,0.002288818,0.000989914,0.006998062,0,
00:02.1,0.002271652,0.000972748,0.006969452,0,
00:02.1,0.002277374,0.001001358,0.006946564,0,
00:02.1,0.002277374,0.000984192,0.007015228,0,
00:02.1,0.002288818,0.000967026,0.006998062,0,
00:02.1,0.002300262,0.000967026,0.006952286,0,
00:02.1,0.002271652,0.000955582,0.006958008,0,
00:02.1,0.002220154,0.000944138,0.006998062,0,
00:02.1,0.00226593,0.000967026,0.007015228,0,
00:02.2,0.002271652,0.000961304,0.007015228,0,
00:02.2,0.002277374,0.000995636,0.007009506,0,
00:02.2,0.002277374,0.000989914,0.006998062,0,
00:02.2,0.002288818,0.000967026,0.006975174,0,
00:02.2,0.002277374,0.000989914,0.006969452,0,
00:02.2,0.002254486,0.00097847,0.006975174,0,
00:02.2,0.00226593,0.000972748,0.006980896,0,
00:02.2,0.002260208,0.000955582,0.006986618,0,
00:02.2,0.002231598,0.000938416,0.006980896,0,
00:02.2,0.00226593,0.000961304,0.006923676,0,
00:02.2,0.00229454,0.000989914,0.00693512,0,
00:02.2,0.002283096,0.000995636,0.007043839,0,
00:02.2,0.00229454,0.00097847,0.007032394,0,
00:02.2,0.002277374,0.00097847,0.006986618,0,
00:02.2,0.00226593,0.000984192,0.006958008,0,
00:02.2,0.002260208,0.00097847,0.006958008,0,
00:02.2,0.002260208,0.000972748,0.006975174,0,
00:02.2,0.002271652,0.000972748,0.006998062,0,
00:02.2,0.002260208,0.000967026,0.00702095,0,
00:02.2,0.002277374,0.000984192,0.00699234,0,
00:02.2,0.002271652,0.000972748,0.006980896,0,
00:02.2,0.002271652,0.000972748,0.006986618,0,
00:02.2,0.00226593,0.000984192,0.006986618,0,
00:02.2,0.002271652,0.000989914,0.006975174,0,
00:02.2,0.002288818,0.000984192,0.006980896,0,
00:02.3,0.002271652,0.000972748,0.00696373,0,
00:02.3,0.002248764,0.000955582,0.006952286,0,
00:02.3,0.00226593,0.000972748,0.006969452,0,
00:02.3,0.002283096,0.00097847,0.00696373,0,
00:02.3,0.002300262,0.000984192,0.006952286,0,
00:02.3,0.002271652,0.000984192,0.006998062,0,
00:02.3,0.002254486,0.000995636,0.007015228,0,
00:02.3,0.002283096,0.00097847,0.006998062,0,
00:02.3,0.002277374,0.000972748,0.00699234,0,
00:02.3,0.00226593,0.000984192,0.006969452,0,
00:02.3,0.002248764,0.000984192,0.006940842,0,
00:02.3,0.002260208,0.000984192,0.006998062,0,
00:02.3,0.002271652,0.000961304,0.006986618,0,
00:02.3,0.002260208,0.000926971,0.007003784,0,
00:02.3,0.002300262,0.00103569,0.00702095,0,
00:02.3,0.002288818,0.00100708,0.007015228,0,
00:02.3,0.002283096,0.000995636,0.007003784,0,
00:02.3,0.002277374,0.000984192,0.007003784,0,
00:02.3,0.002277374,0.000984192,0.00699234,0,
00:02.3,0.002277374,0.00097847,0.006986618,0,
00:02.3,0.002277374,0.000967026,0.006940842,0,
00:02.3,0.002277374,0.000955582,0.006900787,0,
00:02.3,0.002271652,0.00097847,0.007038116,0,
00:02.3,0.00226593,0.001012802,0.007061005,0,
00:02.3,0.002277374,0.000989914,0.007015228,0,
00:02.4,0.002283096,0.000995636,0.00699234,0,
00:02.4,0.002260208,0.000995636,0.007003784,0,
00:02.4,0.002300262,0.000984192,0.006986618,0,
00:02.4,0.002254486,0.00097847,0.006975174,0,
00:02.4,0.002260208,0.000984192,0.007015228,0,
00:02.4,0.002305984,0.000984192,0.006958008,0,
00:02.4,0.002271652,0.000972748,0.006940842,0,
00:02.4,0.002260208,0.000955582,0.007049561,0,
00:02.4,0.002283096,0.000989914,0.007038116,0,
00:02.4,0.002288818,0.001018524,0.00702095,0,
00:02.4,0.00229454,0.000995636,0.007009506,0,
00:02.4,0.002288818,0.000984192,0.00699234,0,
00:02.4,0.002277374,0.000995636,0.00699234,0,
00:02.4,0.002277374,0.00100708,0.007009506,0,
00:02.4,0.002271652,0.000984192,0.00702095,0,
00:02.4,0.00226593,0.000972748,0.007003784,0,
00:02.4,0.00226593,0.000955582,0.006975174,0,
00:02.4,0.002288818,0.001012802,0.007003784,0,
00:02.4,0.002288818,0.001029968,0.007038116,0,
00:02.4,0.002283096,0.001012802,0.007009506,0,
00:02.4,0.002277374,0.000984192,0.007009506,0,
00:02.4,0.002288818,0.000995636,0.007003784,0,
00:02.4,0.002283096,0.000995636,0.007003784,0,
00:02.4,0.002260208,0.000989914,0.007003784,0,
00:02.4,0.002248764,0.000995636,0.00699234,0,
00:02.5,0.002271652,0.000972748,0.006952286,0,
00:02.5,0.002288818,0.00097847,0.007009506,0,
00:02.5,0.002317429,0.001018524,0.007032394,0,
00:02.5,0.002305984,0.001001358,0.007026672,0,
00:02.5,0.002277374,0.001001358,0.007003784,0,
00:02.5,0.002288818,0.001001358,0.007003784,0,
00:02.5,0.002277374,0.000995636,0.006980896,0,
00:02.5,0.00226593,0.001001358,0.006958008,0,
00:02.5,0.00229454,0.000995636,0.007032394,0,
00:02.5,0.002288818,0.000995636,0.007049561,0,
00:02.5,0.002271652,0.000972748,0.007009506,0,
00:02.5,0.002277374,0.000955582,0.006986618,0,
00:02.5,0.00229454,0.001018524,0.00702095,0,
00:02.5,0.002288818,0.001058578,0.007038116,0,
00:02.5,0.00229454,0.001024246,0.007026672,0,
00:02.5,0.002300262,0.001012802,0.007015228,0,
00:02.5,0.002300262,0.00100708,0.00702095,0,
00:02.5,0.00229454,0.001001358,0.007015228,0,
00:02.5,0.00229454,0.001001358,0.007015228,0,
00:02.5,0.002288818,0.001001358,0.007015228,0,
00:02.5,0.002288818,0.001001358,0.007003784,0,
00:02.5,0.002288818,0.001001358,0.007003784,0,
00:02.5,0.002288818,0.001001358,0.007009506,0,
00:02.5,0.002317429,0.00100708,0.006969452,0,
00:02.5,0.002305984,0.00100708,0.006860733,0,
00:02.6,0.002271652,0.000967026,0.006906509,0,
00:02.6,0.002305984,0.00100708,0.007055283,0,
00:02.6,0.00229454,0.001047134,0.007141113,0,
00:02.6,0.00229454,0.001029968,0.007078171,0,
00:02.6,0.00229454,0.001018524,0.007043839,0,
00:02.6,0.002300262,0.001012802,0.00702095,0,
00:02.6,0.00229454,0.001012802,0.007015228,0,
00:02.6,0.00229454,0.001012802,0.007015228,0,
00:02.6,0.002300262,0.001018524,0.007015228,0,
00:02.6,0.002288818,0.001012802,0.007015228,0,
00:02.6,0.002277374,0.001001358,0.006998062,0,
00:02.6,0.002300262,0.000989914,0.006986618,0,
00:02.6,0.002334595,0.001024246,0.00696373,0,
00:02.6,0.00229454,0.001041412,0.006980896,0,
00:02.6,0.002300262,0.00103569,0.00699234,0,
00:02.6,0.00229454,0.00100708,0.007026672,0,
00:02.6,0.00229454,0.00100708,0.006975174,0,
00:02.6,0.002317429,0.001018524,0.007026672,0,
00:02.6,0.002288818,0.000989914,0.007049561,0,
00:02.6,0.00229454,0.001012802,0.007049561,0,
00:02.6,0.002300262,0.00103569,0.007026672,0,
00:02.6,0.002305984,0.001041412,0.007032394,0,
00:02.6,0.002305984,0.00103569,0.007038116,0,
00:02.6,0.002300262,0.001024246,0.007026672,0,
00:02.6,0.002300262,0.00100708,0.007026672,0,
00:02.7,0.002288818,0.001018524,0.007026672,0,
00:02.7,0.00229454,0.001012802,0.007026672,0,
00:02.7,0.002305984,0.001001358,0.007026672,0,
00:02.7,0.002305984,0.001041412,0.007026672,0,
00:02.7,0.00229454,0.001047134,0.006980896,0,
00:02.7,0.002300262,0.00103569,0.006940842,0,
00:02.7,0.002300262,0.001029968,0.007015228,0,
00:02.7,0.002328873,0.001001358,0.007061005,0,
00:02.7,0.002334595,0.001029968,0.007043839,0,
00:02.7,0.00229454,0.001047134,0.007038116,0,
00:02.7,0.00229454,0.001029968,0.007049561,0,
00:02.7,0.00229454,0.001018524,0.007032394,0,
00:02.7,0.002305984,0.001024246,0.007015228,0,
00:02.7,0.002323151,0.001024246,0.006969452,0,
00:02.7,0.002311707,0.001064301,0.007003784,0,
00:02.7,0.002305984,0.001047134,0.007043839,0,
00:02.7,0.002311707,0.001029968,0.007043839,0,
00:02.7,0.002305984,0.001029968,0.007026672,0,
00:02.7,0.002300262,0.001018524,0.007043839,0,
00:02.7,0.002300262,0.001001358,0.007038116,0,
00:02.7,0.002305984,0.001024246,0.00702095,0,
00:02.7,0.002300262,0.001047134,0.007015228,0,
00:02.7,0.002300262,0.001041412,0.00699234,0,
00:02.7,0.002317429,0.00103569,0.006969452,0,
00:02.7,0.002305984,0.001064301,0.007032394,0,
00:02.8,0.00229454,0.001041412,0.007066727,0,
00:02.8,0.002323151,0.00103569,0.007043839,0,
00:02.8,0.002323151,0.001041412,0.007032394,0,
00:02.8,0.002328873,0.001029968,0.007015228,0,
00:02.8,0.002328873,0.001024246,0.00699234,0,
00:02.8,0.002277374,0.001047134,0.006900787,0,
00:02.8,0.002311707,0.001087189,0.006958008,0,
00:02.8,0.002317429,0.001058578,0.007129669,0,
00:02.8,0.002305984,0.001052856,0.007072449,0,
00:02.8,0.002323151,0.001047134,0.007038116,0,
00:02.8,0.002311707,0.001041412,0.007043839,0,
00:02.8,0.002305984,0.001029968,0.007038116,0,
00:02.8,0.002323151,0.00103569,0.007038116,0,
00:02.8,0.002317429,0.001047134,0.007026672,0,
00:02.8,0.002328873,0.001058578,0.00702095,0,
00:02.8,0.002328873,0.001052856,0.007009506,0,
00:02.8,0.002311707,0.001058578,0.007015228,0,
00:02.8,0.002300262,0.001058578,0.007038116,0,
00:02.8,0.002311707,0.001047134,0.007026672,0,
00:02.8,0.002311707,0.001047134,0.007015228,0,
00:02.8,0.002300262,0.00103569,0.00702095,0,
00:02.8,0.002311707,0.001047134,0.007003784,0,
00:02.8,0.002346039,0.001047134,0.007003784,0,
00:02.8,0.002323151,0.001052856,0.006980896,0,
00:02.8,0.002300262,0.001064301,0.007032394,0,
00:02.9,0.002305984,0.001064301,0.007009506,0,
00:02.9,0.002311707,0.001064301,0.007055283,0,
00:02.9,0.002305984,0.001058578,0.007072449,0,
00:02.9,0.002288818,0.001058578,0.007043839,0,
00:02.9,0.002328873,0.001041412,0.006986618,0,
00:02.9,0.002328873,0.001075745,0.006998062,0,
00:02.9,0.002328873,0.001058578,0.007032394,0,
00:02.9,0.002317429,0.001064301,0.007026672,0,
00:02.9,0.002288818,0.001052856,0.007061005,0,
00:02.9,0.002305984,0.001041412,0.007055283,0,
00:02.9,0.002317429,0.001058578,0.007038116,0,
00:02.9,0.002311707,0.001070023,0.007026672,0,
00:02.9,0.002311707,0.001064301,0.007003784,0,
00:02.9,0.002305984,0.001058578,0.007015228,0,
00:02.9,0.002328873,0.001070023,0.007049561,0,
00:02.9,0.002323151,0.00103569,0.007032394,0,
00:02.9,0.002311707,0.001047134,0.007015228,0,
00:02.9,0.002305984,0.001081467,0.00702095,0,
00:02.9,0.002317429,0.001081467,0.007038116,0,
00:02.9,0.002323151,0.001058578,0.007038116,0,
00:02.9,0.002334595,0.001064301,0.007009506,0,
00:02.9,0.002317429,0.001052856,0.006986618,0,
00:02.9,0.002305984,0.001064301,0.007049561,0,
00:02.9,0.002317429,0.001058578,0.007055283,0,
00:02.9,0.002357483,0.001052856,0.006980896,0,
00:03.0,0.002317429,0.001058578,0.006980896,0,
00:03.0,0.002288818,0.001047134,0.007009506,0,
00:03.0,0.002317429,0.001070023,0.007049561,0,
00:03.0,0.002305984,0.001058578,0.007038116,0,
00:03.0,0.002311707,0.001047134,0.007043839,0,
00:03.0,0.002346039,0.001064301,0.007049561,0,
00:03.0,0.002317429,0.001064301,0.007038116,0,
00:03.0,0.002283096,0.001070023,0.00702095,0,
00:03.0,0.002323151,0.001075745,0.007032394,0,
00:03.0,0.002346039,0.001058578,0.007043839,0,
00:03.0,0.002328873,0.001064301,0.007026672,0,
00:03.0,0.002317429,0.001058578,0.00702095,0,
00:00:03,0.002311707,0.001081467,0.007038116,0,
00:03.0,0.002317429,0.001070023,0.007032394,0,
00:03.0,0.002323151,0.001064301,0.006986618,0,
00:03.0,0.002334595,0.001070023,0.006958008,0,
00:03.0,0.002357483,0.001058578,0.007015228,0,
00:03.0,0.002305984,0.001064301,0.007055283,0,
00:03.0,0.002317429,0.001075745,0.007072449,0,
00:03.0,0.002311707,0.001070023,0.007055283,0,
00:03.0,0.002311707,0.001075745,0.007009506,0,
00:03.0,0.002323151,0.001081467,0.007003784,0,
00:03.0,0.002323151,0.001070023,0.007043839,0,
00:03.0,0.002305984,0.001075745,0.00702095,0,
00:03.0,0.002323151,0.001070023,0.006998062,0,
00:03.1,0.002305984,0.001064301,0.00696373,0,
00:03.1,0.002328873,0.001047134,0.007066727,0,
00:03.1,0.002323151,0.001058578,0.007083893,0,
00:03.1,0.002323151,0.001064301,0.007043839,0,
00:03.1,0.002334595,0.001081467,0.007032394,0,
00:03.1,0.002334595,0.001092911,0.00702095,0,
00:03.1,0.002334595,0.001070023,0.006952286,0,
00:03.1,0.002328873,0.001070023,0.00702095,0,
00:03.1,0.002340317,0.001075745,0.007078171,0,
00:03.1,0.002311707,0.001081467,0.007049561,0,
00:03.1,0.002311707,0.001087189,0.007043839,0,
00:03.1,0.002323151,0.001064301,0.007038116,0,
00:03.1,0.002317429,0.001081467,0.007038116,0,
00:03.1,0.002328873,0.001081467,0.007026672,0,
00:03.1,0.002334595,0.001081467,0.00699234,0,
00:03.1,0.002328873,0.001081467,0.006998062,0,
00:03.1,0.002334595,0.001075745,0.007066727,0,
00:03.1,0.002323151,0.001081467,0.007043839,0,
00:03.1,0.002317429,0.001075745,0.007032394,0,
00:03.1,0.002305984,0.001075745,0.007043839,0,
00:03.1,0.002323151,0.001087189,0.007032394,0,
00:03.1,0.002328873,0.001075745,0.007015228,0,
00:03.1,0.002328873,0.001064301,0.007003784,0,
00:03.1,0.002340317,0.001081467,0.006980896,0,
00:03.1,0.002334595,0.001075745,0.006980896,0,
00:03.2,0.002323151,0.001070023,0.007038116,0,
00:03.2,0.002328873,0.001087189,0.007078171,0,
00:03.2,0.002328873,0.001110077,0.007072449,0,
00:03.2,0.002328873,0.001092911,0.007049561,0,
00:03.2,0.002340317,0.001081467,0.007026672,0,
00:03.2,0.002323151,0.001070023,0.007032394,0,
00:03.2,0.002323151,0.001110077,0.00702095,0,
00:03.2,0.002334595,0.001110077,0.007049561,0,
00:03.2,0.002346039,0.001087189,0.007043839,0,
00:03.2,0.002323151,0.001081467,0.007026672,0,
00:03.2,0.002305984,0.001092911,0.007026672,0,
00:03.2,0.002323151,0.001098633,0.007015228,0,
00:03.2,0.002346039,0.001075745,0.00702095,0,
00:03.2,0.002317429,0.001081467,0.007049561,0,
00:03.2,0.002334595,0.001110077,0.007026672,0,
00:03.2,0.002357483,0.001104355,0.007026672,0,
00:03.2,0.002334595,0.001075745,0.007061005,0,
00:03.2,0.002351761,0.001075745,0.00702095,0,
00:03.2,0.002334595,0.001075745,0.006946564,0,
00:03.2,0.002328873,0.001092911,0.007003784,0,
00:03.2,0.002351761,0.001115799,0.007089615,0,
00:03.2,0.002334595,0.001110077,0.007078171,0,
00:03.2,0.002334595,0.001075745,0.007038116,0,
00:03.2,0.002346039,0.001098633,0.007009506,0,
00:03.2,0.002328873,0.001110077,0.007038116,0,
00:03.3,0.002351761,0.001110077,0.007066727,0,
00:03.3,0.002357483,0.001092911,0.007026672,0,
00:03.3,0.002334595,0.001075745,0.007009506,0,
00:03.3,0.002323151,0.001092911,0.007038116,0,
00:03.3,0.002340317,0.001110077,0.007049561,0,
00:03.3,0.002346039,0.001081467,0.007032394,0,
00:03.3,0.002346039,0.001104355,0.00702095,0,
00:03.3,0.002340317,0.001115799,0.007026672,0,
00:03.3,0.002334595,0.001092911,0.007015228,0,
00:03.3,0.002346039,0.001081467,0.006986618,0,
00:03.3,0.002357483,0.001092911,0.007049561,0,
00:03.3,0.002357483,0.001110077,0.007083893,0,
00:03.3,0.002340317,0.001115799,0.007061005,0,
00:03.3,0.002340317,0.001098633,0.007032394,0,
00:03.3,0.002346039,0.001092911,0.007026672,0,
00:03.3,0.002351761,0.001115799,0.006998062,0,
00:03.3,0.002346039,0.001098633,0.007003784,0,
00:03.3,0.002346039,0.001104355,0.007055283,0,
00:03.3,0.002357483,0.001104355,0.007072449,0,
00:03.3,0.002368927,0.001098633,0.007049561,0,
00:03.3,0.002368927,0.001104355,0.007043839,0,
00:03.3,0.002340317,0.001098633,0.007032394,0,
00:03.3,0.002328873,0.001098633,0.007043839,0,
00:03.3,0.002311707,0.001104355,0.007043839,0,
00:03.3,0.002346039,0.001104355,0.007015228,0,
00:03.4,0.002397537,0.001081467,0.007015228,0,
00:03.4,0.002328873,0.001075745,0.007083893,0,
00:03.4,0.002340317,0.001092911,0.007072449,0,
00:03.4,0.002340317,0.001121521,0.007038116,0,
00:03.4,0.002363205,0.001127243,0.006998062,0,
00:03.4,0.002357483,0.001138687,0.007038116,0,
00:03.4,0.002351761,0.001110077,0.007061005,0,
00:03.4,0.002346039,0.001092911,0.007038116,0,
00:03.4,0.002368927,0.001104355,0.007032394,0,
00:03.4,0.002363205,0.001110077,0.007078171,0,
00:03.4,0.002346039,0.001104355,0.007066727,0,
00:03.4,0.002363205,0.001121521,0.00702095,0,
00:03.4,0.002368927,0.001127243,0.007009506,0,
00:03.4,0.002351761,0.001127243,0.007061005,0,
00:03.4,0.002368927,0.001115799,0.007049561,0,
00:03.4,0.002374649,0.001115799,0.007049561,0,
00:03.4,0.002357483,0.001110077,0.007055283,0,
00:03.4,0.002340317,0.001121521,0.007055283,0,
00:03.4,0.002334595,0.001110077,0.007066727,0,
00:03.4,0.002351761,0.001115799,0.007061005,0,
00:03.4,0.002357483,0.001115799,0.007055283,0,
00:03.4,0.002357483,0.001104355,0.007038116,0,
00:03.4,0.002357483,0.001110077,0.007032394,0,
00:03.4,0.002357483,0.001104355,0.007061005,0,
00:03.4,0.002346039,0.001127243,0.007072449,0,
00:03.5,0.002346039,0.001121521,0.007032394,0,
00:03.5,0.002323151,0.001127243,0.007003784,0,
00:03.5,0.002328873,0.001121521,0.007043839,0,
00:03.5,0.002408981,0.001132965,0.007055283,0,
00:03.5,0.002397537,0.001127243,0.007066727,0,
00:03.5,0.002340317,0.001115799,0.007043839,0,
00:03.5,0.002363205,0.001127243,0.007043839,0,
00:03.5,0.002368927,0.001115799,0.007072449,0,
00:03.5,0.002380371,0.001110077,0.007049561,0,
00:03.5,0.002357483,0.001121521,0.007038116,0,
00:03.5,0.002357483,0.001132965,0.007095337,0,
00:03.5,0.002363205,0.001127243,0.007072449,0,
00:03.5,0.002351761,0.001115799,0.007055283,0,
00:03.5,0.002363205,0.001127243,0.007032394,0,
00:03.5,0.002357483,0.001121521,0.007009506,0,
00:03.5,0.002328873,0.001132965,0.007026672,0,
00:03.5,0.002374649,0.001138687,0.007072449,0,
00:03.5,0.002374649,0.001138687,0.007101059,0,
00:03.5,0.002368927,0.001132965,0.007072449,0,
00:03.5,0.002363205,0.001115799,0.007072449,0,
00:03.5,0.002351761,0.001121521,0.007078171,0,
00:03.5,0.002368927,0.001144409,0.007061005,0,
00:03.5,0.002368927,0.001115799,0.007032394,0,
00:03.5,0.002380371,0.001132965,0.007038116,0,
00:03.5,0.002391815,0.001150131,0.007072449,0,
00:03.6,0.002374649,0.001132965,0.007061005,0,
00:03.6,0.002346039,0.001138687,0.007061005,0,
00:03.6,0.002340317,0.001127243,0.007078171,0,
00:03.6,0.002368927,0.001132965,0.007072449,0,
00:03.6,0.002363205,0.001127243,0.007078171,0,
00:03.6,0.002380371,0.001115799,0.007055283,0,
00:03.6,0.002368927,0.001092911,0.007015228,0,
00:03.6,0.002357483,0.001132965,0.006917953,0,
00:03.6,0.002380371,0.001190186,0.007003784,0,
00:03.6,0.002374649,0.001144409,0.007204056,0,
00:03.6,0.002380371,0.001127243,0.007135391,0,
00:03.6,0.002374649,0.001138687,0.007095337,0,
00:03.6,0.002380371,0.001144409,0.007083893,0,
00:03.6,0.002368927,0.001132965,0.007066727,0,
00:03.6,0.002357483,0.001110077,0.007072449,0,
00:03.6,0.002368927,0.001110077,0.007066727,0,
00:03.6,0.002380371,0.001110077,0.007049561,0,
00:03.6,0.002368927,0.001138687,0.007049561,0,
00:03.6,0.002374649,0.001167297,0.007061005,0,
00:03.6,0.002374649,0.001167297,0.007072449,0,
00:03.6,0.002386093,0.001150131,0.007123947,0,
00:03.6,0.002374649,0.001138687,0.007106781,0,
00:03.6,0.002380371,0.001144409,0.007101059,0,
00:03.6,0.002380371,0.001138687,0.007095337,0,
00:03.6,0.002380371,0.001132965,0.007101059,0,
00:03.7,0.002380371,0.001155853,0.007089615,0,
00:03.7,0.002374649,0.001127243,0.007089615,0,
00:03.7,0.002357483,0.001127243,0.007072449,0,
00:03.7,0.002340317,0.001155853,0.006969452,0,
00:03.7,0.002420425,0.001150131,0.007043839,0,
00:03.7,0.002403259,0.001150131,0.007152557,0,
00:03.7,0.002386093,0.001155853,0.007158279,0,
00:03.7,0.002374649,0.001155853,0.007129669,0,
00:03.7,0.002391815,0.001150131,0.007123947,0,
00:03.7,0.002374649,0.001132965,0.007101059,0,
00:03.7,0.002368927,0.001138687,0.007101059,0,
00:03.7,0.002357483,0.001138687,0.007072449,0,
00:03.7,0.002368927,0.001155853,0.007089615,0,
00:03.7,0.002408981,0.001155853,0.007129669,0,
00:03.7,0.002391815,0.001161575,0.007123947,0,
00:03.7,0.002391815,0.001155853,0.007101059,0,
00:03.7,0.002386093,0.001155853,0.007106781,0,
00:03.7,0.002386093,0.001144409,0.007106781,0,
00:03.7,0.002386093,0.001144409,0.007095337,0,
00:03.7,0.002374649,0.001138687,0.007032394,0,
00:03.7,0.002374649,0.001144409,0.007032394,0,
00:03.7,0.002420425,0.001178741,0.007146835,0,
00:03.7,0.002386093,0.001161575,0.007175446,0,
00:03.7,0.002391815,0.001161575,0.007141113,0,
00:03.7,0.002386093,0.001161575,0.007123947,0,
00:03.8,0.002380371,0.001150131,0.007112503,0,
00:03.8,0.002391815,0.001161575,0.007095337,0,
00:03.8,0.002386093,0.001144409,0.007095337,0,
00:03.8,0.002403259,0.001132965,0.007061005,0,
00:03.8,0.002386093,0.001138687,0.007089615,0,
00:03.8,0.002414703,0.001173019,0.007135391,0,
00:03.8,0.002403259,0.001184464,0.007129669,0,
00:03.8,0.002391815,0.001184464,0.007135391,0,
00:03.8,0.002386093,0.001173019,0.007112503,0,
00:03.8,0.002374649,0.001167297,0.007072449,0,
00:03.8,0.002351761,0.001155853,0.007112503,0,
00:03.8,0.002397537,0.001144409,0.007101059,0,
00:03.8,0.002386093,0.001138687,0.007055283,0,
00:03.8,0.002386093,0.001110077,0.007101059,0,
00:03.8,0.002426147,0.001195908,0.007118225,0,
00:03.8,0.002408981,0.001195908,0.007152557,0,
00:03.8,0.002391815,0.001178741,0.007158279,0,
00:03.8,0.002397537,0.001178741,0.007135391,0,
00:03.8,0.002397537,0.001173019,0.007118225,0,
00:03.8,0.002391815,0.001167297,0.007112503,0,
00:03.8,0.002403259,0.001161575,0.007106781,0,
00:03.8,0.002374649,0.001155853,0.007089615,0,
00:03.8,0.002363205,0.001121521,0.007106781,0,
00:03.8,0.002426147,0.001178741,0.007101059,0,
00:03.8,0.002414703,0.001184464,0.007089615,0,
00:03.9,0.002403259,0.001167297,0.007146835,0,
00:03.9,0.002420425,0.001184464,0.007141113,0,
00:03.9,0.002420425,0.001178741,0.007101059,0,
00:03.9,0.002386093,0.001173019,0.007089615,0,
00:03.9,0.002386093,0.001173019,0.007095337,0,
00:03.9,0.002386093,0.001167297,0.007112503,0,
00:03.9,0.002363205,0.001115799,0.007135391,0,
00:03.9,0.002414703,0.001173019,0.007129669,0,
00:03.9,0.002408981,0.001190186,0.007141113,0,
00:03.9,0.002414703,0.001190186,0.007123947,0,
00:03.9,0.002437592,0.001190186,0.007083893,0,
00:03.9,0.002380371,0.001173019,0.007089615,0,
00:03.9,0.002374649,0.001161575,0.007123947,0,
00:03.9,0.002391815,0.001167297,0.007118225,0,
00:03.9,0.002403259,0.001167297,0.007129669,0,
00:03.9,0.002426147,0.001167297,0.007118225,0,
00:03.9,0.002426147,0.001173019,0.007123947,0,
00:03.9,0.002403259,0.001173019,0.007135391,0,
00:03.9,0.002386093,0.001173019,0.007135391,0,
00:03.9,0.002397537,0.001195908,0.007112503,0,
00:03.9,0.002386093,0.001178741,0.007061005,0,
00:03.9,0.002408981,0.001155853,0.007089615,0,
00:03.9,0.002397537,0.001144409,0.007129669,0,
00:03.9,0.002386093,0.00120163,0.007141113,0,
00:03.9,0.002420425,0.00120163,0.007146835,0,
00:04.0,0.002420425,0.001178741,0.007129669,0,
00:04.0,0.002408981,0.001167297,0.007152557,0,
00:04.0,0.002408981,0.001190186,0.007135391,0,
00:04.0,0.002420425,0.001190186,0.007123947,0,
00:04.0,0.002403259,0.001178741,0.007123947,0,
00:04.0,0.002414703,0.001167297,0.007118225,0,
00:04.0,0.002437592,0.001173019,0.007089615,0,
00:04.0,0.002380371,0.001173019,0.007083893,0,
00:04.0,0.002414703,0.001190186,0.007152557,0,
00:04.0,0.002414703,0.001184464,0.007129669,0,
00:04.0,0.002408981,0.001184464,0.007141113,0,
00:04.0,0.002397537,0.001184464,0.007158279,0,
00:00:04,0.002414703,0.001178741,0.007141113,0,
00:04.0,0.002397537,0.001173019,0.007129669,0,
00:04.0,0.002374649,0.001167297,0.007118225,0,
00:04.0,0.00243187,0.001173019,0.007078171,0,
00:04.0,0.002420425,0.001173019,0.007101059,0,
00:04.0,0.002414703,0.001178741,0.007141113,0,
00:04.0,0.002414703,0.00120163,0.007158279,0,
00:04.0,0.002426147,0.00120163,0.007175446,0,
00:04.0,0.002420425,0.001184464,0.007135391,0,
00:04.0,0.002449036,0.001195908,0.007106781,0,
00:04.0,0.002454758,0.001178741,0.007095337,0,
00:04.0,0.002403259,0.001161575,0.007123947,0,
00:04.0,0.002386093,0.001224518,0.007141113,0,
00:04.1,0.002414703,0.001218796,0.007146835,0,
00:04.1,0.002408981,0.001190186,0.007146835,0,
00:04.1,0.002414703,0.001190186,0.007164001,0,
00:04.1,0.002420425,0.001190186,0.007146835,0,
00:04.1,0.00243187,0.001184464,0.007112503,0,
00:04.1,0.002420425,0.001178741,0.007112503,0,
00:04.1,0.002397537,0.001184464,0.007118225,0,
00:04.1,0.002403259,0.001224518,0.007152557,0,
00:04.1,0.002420425,0.00120163,0.007146835,0,
00:04.1,0.002443314,0.00120163,0.007095337,0,
00:04.1,0.002426147,0.00120163,0.007135391,0,
00:04.1,0.002454758,0.001190186,0.007175446,0,
00:04.1,0.00243187,0.001184464,0.007135391,0,
00:04.1,0.002414703,0.001207352,0.007141113,0,
00:04.1,0.002420425,0.001190186,0.007129669,0,
00:04.1,0.002449036,0.001173019,0.007061005,0,
00:04.1,0.002408981,0.001173019,0.007089615,0,
00:04.1,0.002437592,0.001224518,0.007175446,0,
00:04.1,0.00243187,0.001207352,0.007164001,0,
00:04.1,0.002426147,0.001213074,0.007175446,0,
00:04.1,0.00243187,0.00120163,0.007164001,0,
00:04.1,0.002420425,0.001178741,0.007135391,0,
00:04.1,0.002397537,0.001161575,0.007141113,0,
00:04.1,0.002408981,0.001190186,0.007135391,0,
00:04.1,0.002437592,0.001213074,0.007141113,0,
00:04.2,0.002443314,0.001207352,0.007141113,0,
00:04.2,0.002437592,0.001207352,0.007158279,0,
00:04.2,0.00243187,0.001207352,0.007152557,0,
00:04.2,0.00243187,0.00120163,0.007146835,0,
00:04.2,0.002426147,0.00120163,0.007095337,0,
00:04.2,0.002454758,0.001161575,0.007095337,0,
00:04.2,0.00243187,0.001167297,0.007164001,0,
00:04.2,0.00243187,0.001247406,0.007181168,0,
00:04.2,0.002420425,0.001224518,0.007175446,0,
00:04.2,0.00243187,0.00120163,0.007141113,0,
00:04.2,0.002443314,0.001207352,0.007112503,0,
00:04.2,0.002437592,0.00120163,0.007118225,0,
00:04.2,0.002426147,0.001207352,0.007123947,0,
00:04.2,0.002414703,0.00120163,0.007146835,0,
00:04.2,0.002426147,0.001195908,0.007192612,0,
00:04.2,0.002414703,0.001190186,0.007158279,0,
00:04.2,0.002420425,0.001150131,0.007141113,0,
00:04.2,0.002426147,0.001190186,0.007169724,0,
00:04.2,0.002426147,0.001235962,0.007164001,0,
00:04.2,0.002443314,0.001213074,0.007152557,0,
00:04.2,0.002449036,0.00120163,0.007152557,0,
00:04.2,0.002449036,0.001190186,0.007141113,0,
00:04.2,0.002449036,0.001190186,0.007101059,0,
00:04.2,0.002443314,0.00120163,0.007158279,0,
00:04.2,0.00243187,0.001195908,0.00718689,0,
00:04.3,0.00243187,0.001184464,0.007158279,0,
00:04.3,0.002437592,0.001213074,0.007135391,0,
00:04.3,0.002420425,0.001213074,0.007141113,0,
00:04.3,0.00243187,0.001213074,0.007146835,0,
00:04.3,0.002449036,0.001207352,0.007158279,0,
00:04.3,0.002449036,0.001195908,0.007158279,0,
00:04.3,0.00243187,0.001195908,0.007169724,0,
00:04.3,0.002420425,0.001190186,0.007175446,0,
00:04.3,0.002443314,0.001207352,0.007146835,0,
00:04.3,0.002443314,0.001207352,0.007141113,0,
00:04.3,0.002426147,0.00120163,0.007141113,0,
00:04.3,0.00243187,0.001213074,0.007169724,0,
00:04.3,0.002420425,0.00120163,0.007135391,0,
00:04.3,0.002437592,0.001207352,0.007181168,0,
00:04.3,0.002437592,0.001207352,0.007169724,0,
00:04.3,0.002449036,0.00120163,0.007169724,0,
00:04.3,0.002454758,0.001195908,0.007146835,0,
00:04.3,0.002466202,0.001184464,0.007101059,0,
00:04.3,0.002414703,0.001213074,0.007158279,0,
00:04.3,0.002414703,0.001213074,0.007181168,0,
00:04.3,0.00246048,0.001207352,0.007169724,0,
00:04.3,0.002443314,0.00120163,0.007181168,0,
00:04.3,0.00243187,0.00120163,0.007204056,0,
00:04.3,0.002443314,0.001213074,0.007181168,0,
00:04.3,0.002454758,0.001224518,0.007164001,0,
00:04.4,0.002437592,0.001207352,0.007175446,0,
00:04.4,0.002420425,0.001207352,0.00718689,0,
00:04.4,0.002420425,0.001190186,0.007175446,0,
00:04.4,0.00246048,0.001178741,0.007141113,0,
00:04.4,0.002449036,0.001207352,0.007164001,0,
00:04.4,0.002449036,0.001207352,0.007198334,0,
00:04.4,0.002443314,0.001218796,0.007209778,0,
00:04.4,0.002449036,0.001218796,0.00718689,0,
00:04.4,0.00243187,0.001207352,0.007135391,0,
00:04.4,0.002437592,0.001195908,0.007152557,0,
00:04.4,0.002420425,0.001190186,0.007221222,0,
00:04.4,0.002437592,0.001167297,0.007209778,0,
00:04.4,0.00246048,0.001224518,0.007192612,0,
00:04.4,0.002449036,0.001235962,0.007232666,0,
00:04.4,0.002414703,0.001207352,0.007226944,0,
00:04.4,0.002443314,0.00120163,0.007232666,0,
00:04.4,0.002437592,0.001190186,0.0072155,0,
00:04.4,0.002443314,0.001213074,0.007209778,0,
00:04.4,0.002437592,0.001213074,0.007204056,0,
00:04.4,0.00246048,0.001213074,0.007192612,0,
00:04.4,0.002437592,0.001213074,0.007175446,0,
00:04.4,0.002449036,0.001195908,0.007169724,0,
00:04.4,0.002443314,0.001190186,0.007141113,0,
00:04.4,0.00243187,0.001190186,0.007175446,0,
00:04.4,0.002443314,0.001224518,0.007209778,0,
00:04.5,0.00243187,0.001235962,0.007204056,0,
00:04.5,0.002443314,0.001213074,0.007146835,0,
00:04.5,0.002437592,0.00123024,0.007192612,0,
00:04.5,0.00243187,0.001218796,0.007192612,0,
00:04.5,0.00246048,0.001218796,0.007118225,0,
00:04.5,0.002443314,0.00120163,0.007129669,0,
00:04.5,0.002437592,0.001190186,0.007209778,0,
00:04.5,0.002420425,0.001178741,0.007226944,0,
00:04.5,0.002426147,0.001184464,0.007198334,0,
00:04.5,0.00246048,0.001247406,0.00718689,0,
00:04.5,0.002437592,0.001235962,0.007209778,0,
00:04.5,0.002443314,0.001218796,0.007204056,0,
00:04.5,0.002449036,0.001218796,0.007192612,0,
00:04.5,0.002437592,0.001218796,0.00718689,0,
00:04.5,0.00243187,0.001213074,0.007181168,0,
00:04.5,0.002471924,0.001213074,0.007175446,0,
00:04.5,0.002443314,0.00120163,0.007175446,0,
00:04.5,0.002449036,0.001190186,0.007169724,0,
00:04.5,0.00243187,0.001207352,0.00718689,0,
00:04.5,0.002380371,0.001184464,0.007141113,0,
00:04.5,0.002414703,0.001224518,0.007192612,0,
00:04.5,0.002477646,0.001247406,0.007249832,0,
00:04.5,0.00246048,0.001224518,0.007209778,0,
00:04.5,0.002437592,0.001213074,0.007181168,0,
00:04.5,0.002437592,0.001207352,0.007192612,0,
00:04.6,0.002426147,0.001213074,0.00718689,0,
00:04.6,0.002426147,0.00120163,0.007181168,0,
00:04.6,0.002454758,0.001207352,0.007146835,0,
00:04.6,0.002466202,0.001235962,0.007175446,0,
00:04.6,0.002454758,0.001241684,0.007221222,0,
00:04.6,0.002466202,0.001235962,0.007226944,0,
00:04.6,0.002420425,0.00120163,0.0072155,0,
00:04.6,0.002426147,0.001213074,0.007221222,0,
00:04.6,0.002443314,0.001218796,0.0072155,0,
00:04.6,0.002443314,0.001213074,0.007209778,0,
00:04.6,0.002449036,0.001213074,0.007198334,0,
00:04.6,0.002443314,0.001207352,0.007181168,0,
00:04.6,0.002437592,0.00120163,0.007141113,0,
00:04.6,0.00243187,0.001184464,0.007118225,0,
00:04.6,0.002420425,0.001195908,0.007181168,0,
00:04.6,0.002449036,0.001264572,0.007238388,0,
00:04.6,0.002443314,0.001247406,0.007249832,0,
00:04.6,0.002449036,0.001224518,0.007232666,0,
00:04.6,0.002437592,0.001213074,0.007226944,0,
00:04.6,0.002449036,0.001218796,0.007204056,0,
00:04.6,0.002449036,0.001218796,0.007198334,0,
00:04.6,0.002443314,0.001207352,0.007204056,0,
00:04.6,0.002426147,0.001213074,0.007204056,0,
00:04.6,0.002449036,0.001218796,0.007169724,0,
00:04.6,0.002477646,0.001213074,0.007083893,0,
00:04.7,0.002483368,0.001207352,0.007164001,0,
00:04.7,0.002426147,0.001213074,0.00724411,0,
00:04.7,0.002414703,0.001218796,0.007255554,0,
00:04.7,0.002420425,0.00123024,0.007209778,0,
00:04.7,0.002454758,0.001224518,0.007118225,0,
00:04.7,0.002466202,0.001218796,0.007232666,0,
00:04.7,0.002449036,0.001213074,0.00727272,0,
00:04.7,0.002443314,0.001207352,0.007226944,0,
00:04.7,0.002443314,0.001213074,0.007209778,0,
00:04.7,0.002443314,0.00120163,0.007204056,0,
00:04.7,0.002420425,0.001190186,0.007169724,0,
00:04.7,0.002443314,0.001184464,0.007152557,0,
00:04.7,0.002494812,0.001235962,0.007158279,0,
00:04.7,0.002443314,0.001253128,0.007226944,0,
00:04.7,0.002443314,0.001241684,0.007266998,0,
00:04.7,0.002443314,0.001218796,0.007238388,0,
00:04.7,0.002443314,0.001207352,0.007221222,0,
00:04.7,0.002454758,0.001218796,0.0072155,0,
00:04.7,0.002449036,0.001224518,0.007204056,0,
00:04.7,0.002443314,0.001207352,0.007209778,0,
00:04.7,0.00246048,0.001213074,0.007198334,0,
00:04.7,0.00246048,0.001213074,0.007192612,0,
00:04.7,0.002449036,0.00123024,0.007181168,0,
00:04.7,0.002426147,0.001207352,0.007066727,0,
00:04.7,0.002443314,0.001224518,0.007209778,0,
00:04.8,0.002449036,0.00120163,0.007289886,0,
00:04.8,0.002454758,0.001218796,0.007249832,0,
00:04.8,0.002494812,0.001241684,0.0072155,0,
00:04.8,0.002449036,0.001218796,0.007198334,0,
00:04.8,0.002403259,0.001195908,0.007232666,0,
00:04.8,0.002420425,0.001184464,0.007209778,0,
00:04.8,0.002471924,0.001224518,0.007198334,0,
00:04.8,0.002477646,0.001247406,0.007204056,0,
00:04.8,0.002466202,0.001241684,0.007181168,0,
00:04.8,0.002454758,0.001235962,0.007192612,0,
00:04.8,0.002449036,0.001218796,0.00724411,0,
00:04.8,0.002443314,0.00120163,0.007204056,0,
00:04.8,0.002449036,0.00120163,0.007209778,0,
00:04.8,0.002477646,0.001224518,0.007209778,0,
00:04.8,0.002466202,0.001218796,0.007175446,0,
00:04.8,0.002454758,0.001213074,0.007209778,0,
00:04.8,0.002443314,0.001218796,0.0072155,0,
00:04.8,0.002443314,0.00123024,0.007192612,0,
00:04.8,0.002466202,0.001213074,0.007198334,0,
00:04.8,0.00246048,0.001207352,0.00724411,0,
00:04.8,0.002454758,0.001218796,0.0072155,0,
00:04.8,0.002494812,0.00123024,0.007209778,0,
00:04.8,0.00243187,0.001224518,0.007169724,0,
00:04.8,0.002403259,0.001218796,0.007152557,0,
00:04.8,0.002477646,0.001235962,0.0072155,0,
00:04.9,0.002454758,0.001224518,0.00727272,0,
00:04.9,0.00246048,0.001213074,0.007226944,0,
00:04.9,0.002471924,0.00120163,0.007232666,0,
00:04.9,0.002449036,0.001213074,0.007221222,0,
00:04.9,0.002454758,0.001190186,0.007204056,0,
00:04.9,0.002466202,0.001207352,0.007181168,0,
00:04.9,0.002477646,0.001224518,0.007129669,0,
00:04.9,0.00246048,0.001207352,0.007198334,0,
00:04.9,0.002443314,0.001207352,0.007232666,0,
00:04.9,0.002471924,0.001224518,0.007209778,0,
00:04.9,0.00246048,0.001218796,0.007261276,0,
00:04.9,0.002449036,0.001213074,0.00724411,0,
00:04.9,0.002454758,0.001207352,0.007238388,0,
00:04.9,0.002449036,0.00120163,0.007221222,0,
00:04.9,0.002466202,0.001195908,0.007204056,0,
00:04.9,0.002483368,0.001195908,0.007192612,0,
00:04.9,0.00243187,0.001213074,0.00718689,0,
00:04.9,0.002408981,0.001213074,0.0072155,0,
00:04.9,0.00246048,0.001213074,0.007204056,0,
00:04.9,0.002437592,0.001218796,0.007226944,0,
00:04.9,0.002449036,0.001195908,0.00724411,0,
00:04.9,0.002477646,0.001195908,0.007238388,0,
00:04.9,0.002466202,0.001207352,0.007221222,0,
00:04.9,0.002466202,0.001195908,0.007209778,0,
00:04.9,0.002466202,0.001195908,0.007181168,0,
00:05.0,0.002466202,0.001184464,0.007135391,0,
00:05.0,0.00246048,0.00123024,0.007129669,0,
00:05.0,0.002437592,0.001213074,0.007249832,0,
00:05.0,0.002437592,0.001190186,0.007289886,0,
00:05.0,0.002454758,0.00120163,0.007261276,0,
00:05.0,0.00246048,0.001195908,0.007226944,0,
00:05.0,0.00246048,0.001195908,0.007209778,0,
00:05.0,0.002454758,0.001184464,0.007226944,0,
00:05.0,0.002466202,0.001144409,0.007221222,0,
00:05.0,0.002454758,0.001224518,0.007198334,0,
00:05.0,0.002443314,0.001247406,0.007209778,0,
00:05.0,0.002449036,0.001218796,0.007232666,0,
00:00:05,0.002471924,0.001207352,0.007209778,0,
00:05.0,0.002449036,0.00120163,0.007221222,0,
00:05.0,0.002449036,0.001195908,0.007232666,0,
00:05.0,0.002454758,0.001184464,0.007232666,0,
00:05.0,0.002454758,0.001190186,0.0072155,0,
00:05.0,0.002454758,0.001178741,0.007221222,0,
00:05.0,0.002466202,0.001190186,0.007198334,0,
00:05.0,0.00246048,0.00120163,0.007198334,0,
00:05.0,0.002454758,0.00120163,0.007221222,0,
00:05.0,0.00243187,0.00120163,0.007141113,0,
00:05.0,0.00246048,0.00120163,0.007164001,0,
00:05.0,0.002466202,0.001190186,0.007307053,0,
00:05.0,0.00243187,0.001178741,0.007284164,0,
00:05.1,0.002471924,0.001178741,0.007249832,0,
00:05.1,0.002466202,0.001178741,0.007232666,0,
00:05.1,0.002449036,0.001190186,0.007238388,0,
00:05.1,0.002454758,0.001190186,0.007226944,0,
00:05.1,0.002437592,0.00120163,0.0072155,0,
00:05.1,0.002466202,0.001213074,0.007209778,0,
00:05.1,0.00246048,0.001207352,0.007226944,0,
00:05.1,0.00246048,0.001207352,0.007221222,0,
00:05.1,0.00246048,0.001213074,0.007232666,0,
00:05.1,0.002454758,0.001190186,0.00724411,0,
00:05.1,0.002454758,0.001190186,0.007232666,0,
00:05.1,0.002471924,0.001190186,0.007204056,0,
00:05.1,0.002466202,0.001184464,0.007198334,0,
00:05.1,0.002449036,0.001195908,0.0072155,0,
00:05.1,0.002466202,0.001207352,0.007146835,0,
00:05.1,0.002426147,0.001173019,0.007198334,0,
00:05.1,0.002443314,0.001195908,0.007255554,0,
00:05.1,0.002471924,0.001184464,0.00727272,0,
00:05.1,0.002454758,0.001213074,0.007284164,0,
00:05.1,0.00246048,0.001224518,0.007249832,0,
00:05.1,0.00246048,0.001190186,0.007255554,0,
00:05.1,0.002454758,0.001173019,0.007249832,0,
00:05.1,0.002449036,0.001190186,0.00724411,0,
00:05.1,0.002443314,0.001190186,0.007232666,0,
00:05.1,0.002454758,0.001178741,0.007192612,0,
00:05.2,0.002506256,0.001207352,0.007152557,0,
00:05.2,0.002437592,0.001207352,0.00724411,0,
00:05.2,0.002437592,0.001213074,0.007301331,0,
00:05.2,0.002466202,0.001213074,0.00727272,0,
00:05.2,0.00246048,0.00120163,0.007255554,0,
00:05.2,0.002454758,0.00120163,0.007255554,0,
00:05.2,0.002449036,0.001195908,0.007249832,0,
00:05.2,0.00246048,0.001195908,0.007249832,0,
00:05.2,0.002449036,0.001190186,0.00724411,0,
00:05.2,0.002454758,0.001184464,0.007221222,0,
00:05.2,0.002454758,0.001195908,0.007175446,0,
00:05.2,0.002426147,0.001195908,0.007238388,0,
00:05.2,0.002454758,0.001195908,0.007232666,0,
00:05.2,0.002466202,0.001207352,0.007255554,0,
00:05.2,0.00246048,0.001213074,0.007289886,0,
00:05.2,0.002454758,0.001190186,0.007284164,0,
00:05.2,0.002454758,0.001178741,0.007261276,0,
00:05.2,0.00246048,0.001195908,0.007249832,0,
00:05.2,0.002449036,0.00120163,0.007249832,0,
00:05.2,0.002443314,0.001207352,0.007232666,0,
00:05.2,0.002494812,0.001207352,0.007192612,0,
00:05.2,0.002449036,0.001195908,0.007198334,0,
00:05.2,0.002466202,0.001213074,0.007266998,0,
00:05.2,0.002494812,0.001213074,0.007266998,0,
00:05.2,0.002437592,0.001190186,0.007284164,0,
00:05.3,0.00243187,0.00120163,0.007278442,0,
00:05.3,0.00246048,0.001207352,0.007266998,0,
00:05.3,0.002454758,0.001207352,0.007255554,0,
00:05.3,0.002443314,0.001195908,0.007209778,0,
00:05.3,0.00246048,0.001190186,0.0072155,0,
00:05.3,0.002466202,0.001207352,0.007289886,0,
00:05.3,0.002471924,0.001207352,0.007266998,0,
00:05.3,0.002443314,0.001178741,0.007261276,0,
00:05.3,0.00246048,0.00120163,0.007232666,0,
00:05.3,0.002454758,0.00123024,0.007221222,0,
00:05.3,0.002483368,0.001213074,0.007278442,0,
00:05.3,0.002449036,0.001190186,0.007266998,0,
00:05.3,0.00246048,0.001213074,0.00724411,0,
00:05.3,0.002466202,0.001218796,0.007232666,0,
00:05.3,0.002477646,0.001207352,0.007261276,0,
00:05.3,0.00246048,0.001190186,0.007238388,0,
00:05.3,0.002443314,0.00120163,0.007261276,0,
00:05.3,0.002454758,0.001213074,0.00727272,0,
00:05.3,0.002466202,0.001213074,0.007266998,0,
00:05.3,0.002454758,0.001213074,0.007249832,0,
00:05.3,0.00243187,0.001207352,0.00724411,0,
00:05.3,0.002443314,0.001190186,0.007226944,0,
00:05.3,0.002449036,0.001173019,0.007221222,0,
00:05.3,0.002506256,0.001218796,0.007261276,0,
00:05.3,0.002477646,0.001207352,0.007266998,0,
00:05.4,0.002471924,0.001218796,0.007278442,0,
00:05.4,0.002454758,0.001213074,0.007278442,0,
00:05.4,0.002449036,0.001207352,0.007261276,0,
00:05.4,0.002454758,0.001195908,0.007221222,0,
00:05.4,0.002454758,0.001190186,0.00727272,0,
00:05.4,0.002466202,0.001218796,0.007278442,0,
00:05.4,0.00246048,0.001213074,0.007255554,0,
00:05.4,0.002454758,0.001207352,0.007232666,0,
00:05.4,0.002471924,0.001235962,0.007249832,0,
00:05.4,0.002494812,0.001224518,0.007249832,0,
00:05.4,0.002466202,0.001218796,0.007266998,0,
00:05.4,0.002454758,0.001213074,0.007284164,0,
00:05.4,0.002454758,0.001207352,0.007261276,0,
00:05.4,0.002466202,0.001213074,0.007261276,0,
00:05.4,0.002443314,0.001190186,0.007209778,0,
00:05.4,0.002449036,0.001213074,0.007209778,0,
00:05.4,0.002471924,0.001235962,0.007301331,0,
00:05.4,0.002466202,0.001218796,0.007284164,0,
00:05.4,0.002477646,0.001218796,0.007249832,0,
00:05.4,0.002483368,0.001213074,0.007261276,0,
00:05.4,0.002483368,0.001213074,0.007261276,0,
00:05.4,0.00246048,0.001207352,0.007249832,0,
00:05.4,0.002466202,0.00120163,0.007238388,0,
00:05.4,0.00246048,0.001213074,0.007192612,0,
00:05.4,0.00246048,0.001224518,0.00727272,0,
00:05.5,0.002471924,0.00120163,0.007318497,0,
00:05.5,0.002471924,0.00120163,0.007278442,0,
00:05.5,0.00248909,0.001235962,0.007261276,0,
00:05.5,0.002471924,0.001218796,0.007249832,0,
00:05.5,0.002471924,0.001207352,0.00724411,0,
00:05.5,0.002483368,0.00120163,0.007261276,0,
00:05.5,0.002466202,0.001224518,0.007278442,0,
00:05.5,0.002471924,0.001247406,0.007284164,0,
00:05.5,0.002466202,0.001224518,0.007266998,0,
00:05.5,0.002466202,0.001218796,0.007249832,0,
00:05.5,0.002483368,0.001213074,0.007261276,0,
00:05.5,0.002466202,0.00120163,0.0072155,0,
00:05.5,0.00246048,0.001207352,0.007221222,0,
00:05.5,0.002483368,0.001218796,0.00727272,0,
00:05.5,0.002506256,0.001195908,0.007221222,0,
00:05.5,0.002483368,0.001213074,0.007226944,0,
00:05.5,0.002443314,0.001224518,0.007278442,0,
00:05.5,0.002449036,0.00120163,0.007318497,0,
00:05.5,0.002494812,0.00123024,0.007261276,0,
00:05.5,0.002466202,0.001218796,0.007221222,0,
00:05.5,0.002494812,0.001224518,0.007255554,0,
00:05.5,0.002500534,0.001218796,0.007261276,0,
00:05.5,0.002443314,0.001218796,0.007249832,0,
00:05.5,0.002483368,0.00120163,0.007266998,0,
00:05.5,0.002483368,0.001190186,0.007284164,0,
00:05.6,0.002494812,0.001218796,0.0072155,0,
00:05.6,0.00248909,0.001241684,0.007238388,0,
00:05.6,0.002471924,0.00123024,0.007301331,0,
00:05.6,0.002466202,0.001218796,0.007278442,0,
00:05.6,0.002477646,0.00120163,0.007266998,0,
00:05.6,0.002483368,0.001195908,0.007238388,0,
00:05.6,0.002477646,0.001235962,0.0072155,0,
00:05.6,0.00248909,0.00123024,0.007261276,0,
00:05.6,0.002483368,0.001224518,0.007301331,0,
00:05.6,0.002483368,0.001218796,0.007278442,0,
00:05.6,0.00248909,0.001218796,0.007255554,0,
00:05.6,0.002483368,0.001218796,0.007249832,0,
00:05.6,0.002477646,0.001218796,0.007238388,0,
00:05.6,0.002494812,0.001224518,0.00724411,0,
00:05.6,0.00248909,0.001224518,0.007226944,0,
00:05.6,0.002466202,0.001213074,0.007249832,0,
00:05.6,0.002477646,0.001207352,0.007301331,0,
00:05.6,0.002494812,0.00123024,0.007278442,0,
00:05.6,0.002477646,0.001218796,0.007255554,0,
00:05.6,0.00248909,0.001207352,0.0072155,0,
00:05.6,0.002483368,0.001218796,0.007158279,0,
00:05.6,0.002483368,0.00123024,0.007266998,0,
00:05.6,0.002483368,0.00123024,0.007307053,0,
00:05.6,0.002483368,0.00123024,0.007255554,0,
00:05.6,0.00248909,0.00123024,0.007238388,0,
00:05.7,0.002483368,0.001218796,0.007295609,0,
00:05.7,0.002494812,0.001213074,0.007255554,0,
00:05.7,0.002471924,0.001224518,0.00724411,0,
00:05.7,0.002477646,0.001218796,0.007255554,0,
00:05.7,0.002500534,0.00123024,0.007266998,0,
00:05.7,0.002483368,0.001213074,0.007278442,0,
00:05.7,0.002483368,0.001235962,0.00727272,0,
00:05.7,0.00248909,0.00123024,0.007261276,0,
00:05.7,0.00248909,0.001224518,0.007255554,0,
00:05.7,0.00248909,0.001218796,0.007232666,0,
00:05.7,0.00248909,0.00123024,0.007192612,0,
00:05.7,0.002483368,0.00123024,0.007198334,0,
00:05.7,0.002500534,0.00123024,0.007266998,0,
00:05.7,0.002471924,0.001224518,0.007312775,0,
00:05.7,0.002471924,0.001218796,0.007278442,0,
00:05.7,0.002494812,0.001224518,0.007261276,0,
00:05.7,0.002483368,0.001235962,0.007266998,0,
00:05.7,0.00248909,0.001224518,0.007255554,0,
00:05.7,0.00248909,0.001218796,0.007232666,0,
00:05.7,0.002471924,0.001207352,0.00724411,0,
00:05.7,0.002483368,0.001224518,0.007238388,0,
00:05.7,0.002494812,0.001241684,0.007232666,0,
00:05.7,0.002500534,0.001224518,0.00724411,0,
00:05.7,0.00248909,0.001235962,0.007284164,0,
00:05.7,0.002483368,0.001235962,0.007278442,0,
00:05.8,0.002500534,0.001218796,0.007266998,0,
00:05.8,0.00248909,0.001213074,0.007266998,0,
00:05.8,0.002506256,0.001224518,0.00724411,0,
00:05.8,0.002494812,0.001235962,0.007221222,0,
00:05.8,0.002477646,0.001224518,0.007232666,0,
00:05.8,0.00248909,0.001224518,0.007169724,0,
00:05.8,0.002483368,0.001241684,0.007284164,0,
00:05.8,0.002471924,0.001235962,0.007318497,0,
00:05.8,0.002477646,0.001241684,0.007249832,0,
00:05.8,0.002506256,0.001224518,0.007255554,0,
00:05.8,0.002511978,0.001218796,0.007266998,0,
00:05.8,0.00248909,0.001241684,0.007289886,0,
00:05.8,0.002494812,0.001235962,0.00727272,0,
00:05.8,0.002506256,0.001218796,0.007255554,0,
00:05.8,0.002500534,0.00123024,0.007255554,0,
00:05.8,0.002471924,0.001247406,0.007255554,0,
00:05.8,0.00248909,0.00123024,0.007255554,0,
00:05.8,0.002483368,0.001207352,0.00727272,0,
00:05.8,0.002483368,0.001235962,0.007266998,0,
00:05.8,0.0025177,0.001247406,0.007238388,0,
00:05.8,0.002511978,0.001235962,0.00724411,0,
00:05.8,0.002494812,0.00123024,0.007261276,0,
00:05.8,0.002483368,0.001224518,0.007266998,0,
00:05.8,0.00248909,0.001247406,0.007266998,0,
00:05.8,0.002471924,0.001241684,0.00724411,0,
00:05.9,0.002529144,0.00123024,0.007204056,0,
00:05.9,0.002529144,0.00123024,0.007129669,0,
00:05.9,0.002471924,0.001247406,0.007249832,0,
00:05.9,0.002477646,0.001235962,0.007341385,0,
00:05.9,0.002506256,0.00123024,0.007301331,0,
00:05.9,0.002471924,0.00123024,0.00727272,0,
00:05.9,0.002494812,0.001241684,0.00727272,0,
00:05.9,0.002511978,0.00123024,0.007278442,0,
00:05.9,0.002494812,0.001224518,0.007266998,0,
00:05.9,0.002500534,0.001253128,0.007255554,0,
00:05.9,0.002506256,0.001253128,0.007255554,0,
00:05.9,0.002494812,0.001241684,0.007261276,0,
00:05.9,0.002500534,0.00123024,0.007261276,0,
00:05.9,0.002506256,0.001235962,0.007255554,0,
00:05.9,0.002506256,0.001224518,0.007238388,0,
00:05.9,0.002471924,0.001241684,0.00724411,0,
00:05.9,0.002494812,0.001253128,0.007266998,0,
00:05.9,0.002500534,0.001264572,0.00724411,0,
00:05.9,0.002494812,0.001241684,0.00724411,0,
00:05.9,0.0025177,0.001235962,0.007198334,0,
00:05.9,0.002506256,0.001253128,0.007255554,0,
00:05.9,0.002500534,0.001241684,0.007307053,0,
00:05.9,0.002506256,0.001235962,0.007289886,0,
00:05.9,0.002506256,0.001218796,0.007261276,0,
00:05.9,0.002529144,0.001247406,0.007198334,0,
00:06.0,0.002511978,0.001247406,0.007238388,0,
00:06.0,0.002471924,0.001235962,0.007278442,0,
00:06.0,0.00246048,0.001253128,0.007284164,0,
00:06.0,0.002483368,0.001247406,0.007266998,0,
00:06.0,0.0025177,0.001241684,0.007261276,0,
00:06.0,0.0025177,0.001247406,0.007255554,0,
00:06.0,0.002511978,0.001247406,0.007249832,0,
00:06.0,0.002500534,0.00123024,0.00724411,0,
00:06.0,0.002466202,0.001235962,0.00724411,0,
00:06.0,0.00248909,0.001218796,0.007249832,0,
00:06.0,0.002523422,0.00123024,0.007255554,0,
00:06.0,0.002534866,0.001235962,0.007232666,0,
00:00:06,0.002500534,0.001264572,0.0072155,0,
00:06.0,0.002483368,0.001264572,0.007232666,0,
00:06.0,0.002494812,0.001241684,0.007221222,0,
00:06.0,0.002506256,0.001241684,0.007249832,0,
00:06.0,0.002506256,0.001241684,0.007284164,0,
00:06.0,0.002523422,0.001224518,0.007249832,0,
00:06.0,0.002506256,0.00123024,0.007226944,0,
00:06.0,0.00248909,0.001241684,0.007238388,0,
00:06.0,0.00248909,0.001224518,0.007221222,0,
00:06.0,0.002494812,0.001253128,0.007238388,0,
00:06.0,0.0025177,0.001253128,0.007232666,0,
00:06.0,0.002523422,0.001241684,0.00727272,0,
00:06.0,0.0025177,0.001241684,0.007249832,0,
00:06.1,0.002494812,0.00123024,0.007232666,0,
00:06.1,0.002483368,0.001235962,0.007221222,0,
00:06.1,0.002483368,0.00125885,0.007238388,0,
00:06.1,0.002511978,0.001241684,0.007232666,0,
00:06.1,0.002511978,0.00123024,0.0072155,0,
00:06.1,0.002506256,0.001235962,0.007261276,0,
00:06.1,0.002506256,0.001241684,0.007261276,0,
00:06.1,0.002500534,0.001241684,0.00724411,0,
00:06.1,0.002494812,0.001235962,0.007232666,0,
00:06.1,0.002500534,0.001224518,0.007192612,0,
00:06.1,0.002511978,0.001218796,0.007221222,0,
00:06.1,0.002540588,0.001235962,0.007238388,0,
00:06.1,0.002506256,0.001235962,0.007238388,0,
00:06.1,0.002500534,0.001264572,0.007255554,0,
00:06.1,0.0025177,0.001253128,0.007255554,0,
00:06.1,0.00248909,0.00123024,0.00724411,0,
00:06.1,0.002506256,0.00123024,0.007238388,0,
00:06.1,0.002523422,0.001241684,0.0072155,0,
00:06.1,0.002500534,0.001235962,0.007175446,0,
00:06.1,0.002494812,0.001253128,0.007209778,0,
00:06.1,0.002511978,0.001253128,0.00727272,0,
00:06.1,0.002500534,0.00123024,0.007255554,0,
00:06.1,0.002506256,0.00123024,0.00724411,0,
00:06.1,0.002511978,0.00123024,0.00724411,0,
00:06.1,0.002511978,0.001247406,0.007249832,0,
00:06.2,0.002506256,0.001241684,0.007226944,0,
00:06.2,0.002511978,0.001235962,0.007226944,0,
00:06.2,0.002523422,0.00123024,0.007181168,0,
00:06.2,0.002494812,0.001241684,0.007181168,0,
00:06.2,0.00248909,0.001253128,0.007255554,0,
00:06.2,0.002529144,0.001235962,0.007266998,0,
00:06.2,0.0025177,0.001253128,0.007255554,0,
00:06.2,0.002494812,0.001247406,0.007238388,0,
00:06.2,0.002500534,0.001235962,0.00724411,0,
00:06.2,0.002506256,0.00123024,0.00724411,0,
00:06.2,0.002506256,0.001218796,0.007232666,0,
00:06.2,0.002529144,0.001264572,0.0072155,0,
00:06.2,0.002500534,0.00125885,0.007198334,0,
00:06.2,0.002500534,0.001247406,0.007164001,0,
00:06.2,0.002511978,0.00125885,0.0072155,0,
00:06.2,0.002511978,0.001241684,0.007289886,0,
00:06.2,0.002500534,0.001235962,0.00727272,0,
00:06.2,0.0025177,0.001241684,0.007249832,0,
00:06.2,0.002511978,0.001224518,0.007238388,0,
00:06.2,0.002506256,0.00123024,0.007198334,0,
00:06.2,0.0025177,0.001264572,0.007169724,0,
00:06.2,0.002511978,0.001241684,0.007181168,0,
00:06.2,0.0025177,0.001264572,0.00724411,0,
00:06.2,0.002540588,0.001253128,0.007255554,0,
00:06.2,0.002523422,0.001241684,0.007226944,0,
00:06.3,0.002500534,0.001247406,0.007238388,0,
00:06.3,0.00248909,0.001241684,0.007266998,0,
00:06.3,0.002506256,0.001253128,0.007238388,0,
00:06.3,0.0025177,0.001247406,0.007221222,0,
00:06.3,0.002506256,0.00123024,0.007226944,0,
00:06.3,0.0025177,0.001224518,0.0072155,0,
00:06.3,0.002540588,0.001270294,0.0072155,0,
00:06.3,0.002500534,0.00125885,0.007204056,0,
00:06.3,0.002500534,0.001235962,0.007192612,0,
00:06.3,0.002500534,0.001253128,0.007221222,0,
00:06.3,0.002511978,0.001235962,0.007221222,0,
00:06.3,0.002534866,0.001253128,0.00724411,0,
00:06.3,0.0025177,0.001253128,0.007209778,0,
00:06.3,0.0025177,0.001264572,0.00724411,0,
00:06.3,0.002540588,0.001247406,0.007221222,0,
00:06.3,0.002529144,0.001235962,0.007175446,0,
00:06.3,0.002494812,0.001235962,0.00724411,0,
00:06.3,0.002523422,0.001247406,0.007249832,0,
00:06.3,0.002511978,0.001241684,0.0072155,0,
00:06.3,0.002511978,0.001253128,0.007221222,0,
00:06.3,0.002511978,0.001247406,0.007209778,0,
00:06.3,0.002523422,0.001247406,0.007226944,0,
00:06.3,0.002529144,0.001247406,0.007204056,0,
00:06.3,0.002523422,0.001241684,0.007198334,0,
00:06.3,0.0025177,0.001241684,0.0072155,0,
00:06.4,0.002529144,0.001241684,0.007169724,0,
00:06.4,0.002523422,0.001241684,0.00724411,0,
00:06.4,0.0025177,0.001253128,0.00724411,0,
00:06.4,0.002523422,0.001235962,0.007226944,0,
00:06.4,0.0025177,0.001247406,0.007181168,0,
00:06.4,0.002534866,0.001247406,0.0072155,0,
00:06.4,0.0025177,0.001247406,0.00724411,0,
00:06.4,0.002506256,0.001235962,0.007221222,0,
00:06.4,0.002511978,0.001218796,0.007198334,0,
00:06.4,0.002506256,0.001218796,0.007164001,0,
00:06.4,0.002534866,0.001253128,0.00724411,0,
00:06.4,0.002557755,0.001276016,0.007249832,0,
00:06.4,0.002523422,0.00125885,0.007226944,0,
00:06.4,0.002506256,0.001241684,0.007221222,0,
00:06.4,0.002511978,0.001253128,0.007209778,0,
00:06.4,0.002534866,0.001241684,0.007209778,0,
00:06.4,0.002529144,0.001235962,0.007192612,0,
00:06.4,0.002534866,0.001235962,0.007164001,0,
00:06.4,0.0025177,0.00125885,0.007192612,0,
00:06.4,0.0025177,0.00123024,0.00724411,0,
00:06.4,0.002540588,0.00123024,0.0072155,0,
00:06.4,0.002563477,0.001270294,0.007204056,0,
00:06.4,0.002534866,0.001253128,0.007209778,0,
00:06.4,0.0025177,0.001247406,0.007209778,0,
00:06.4,0.002511978,0.001235962,0.007204056,0,
00:06.5,0.002511978,0.001241684,0.007209778,0,
00:06.5,0.002511978,0.001253128,0.00718689,0,
00:06.5,0.0025177,0.001224518,0.007112503,0,
00:06.5,0.002534866,0.00123024,0.007175446,0,
00:06.5,0.002540588,0.001276016,0.007261276,0,
00:06.5,0.002540588,0.001264572,0.007238388,0,
00:06.5,0.002523422,0.001253128,0.007232666,0,
00:06.5,0.002511978,0.001253128,0.007221222,0,
00:06.5,0.002523422,0.001241684,0.007221222,0,
00:06.5,0.002540588,0.001247406,0.007204056,0,
00:06.5,0.002534866,0.001235962,0.00718689,0,
00:06.5,0.002523422,0.001224518,0.007192612,0,
00:06.5,0.002523422,0.001247406,0.0072155,0,
00:06.5,0.002574921,0.001241684,0.007181168,0,
00:06.5,0.002557755,0.00125885,0.007169724,0,
00:06.5,0.002511978,0.001264572,0.0072155,0,
00:06.5,0.002523422,0.001247406,0.007226944,0,
00:06.5,0.002523422,0.001241684,0.0072155,0,
00:06.5,0.002529144,0.001235962,0.007204056,0,
00:06.5,0.002523422,0.001218796,0.007204056,0,
00:06.5,0.002523422,0.00123024,0.007169724,0,
00:06.5,0.00254631,0.001247406,0.007146835,0,
00:06.5,0.002523422,0.001253128,0.007181168,0,
00:06.5,0.002540588,0.001253128,0.007232666,0,
00:06.5,0.002529144,0.001253128,0.00718689,0,
00:06.6,0.002534866,0.001247406,0.007158279,0,
00:06.6,0.002540588,0.00123024,0.0072155,0,
00:06.6,0.002511978,0.001241684,0.007209778,0,
00:06.6,0.002552032,0.001235962,0.007146835,0,
00:06.6,0.002523422,0.001224518,0.007152557,0,
00:06.6,0.002540588,0.001241684,0.007232666,0,
00:06.6,0.002540588,0.001247406,0.007204056,0,
00:06.6,0.002529144,0.001247406,0.007192612,0,
00:06.6,0.002540588,0.00125885,0.007209778,0,
00:06.6,0.00254631,0.001247406,0.00718689,0,
00:06.6,0.002552032,0.001247406,0.007175446,0,
00:06.6,0.002534866,0.001235962,0.007164001,0,
00:06.6,0.002529144,0.00123024,0.00718689,0,
00:06.6,0.002523422,0.00123024,0.007181168,0,
00:06.6,0.002529144,0.00125885,0.007175446,0,
00:06.6,0.002534866,0.00125885,0.007141113,0,
00:06.6,0.002540588,0.001253128,0.007141113,0,
00:06.6,0.002552032,0.001235962,0.007164001,0,
00:06.6,0.002540588,0.001241684,0.007226944,0,
00:06.6,0.002534866,0.001235962,0.007209778,0,
00:06.6,0.002540588,0.001235962,0.007175446,0,
00:06.6,0.002540588,0.00123024,0.007175446,0,
00:06.6,0.00254631,0.00123024,0.007158279,0,
00:06.6,0.002540588,0.001235962,0.007146835,0,
00:06.6,0.002534866,0.001253128,0.007152557,0,
00:06.7,0.0025177,0.001224518,0.007198334,0,
00:06.7,0.002534866,0.001213074,0.007181168,0,
00:06.7,0.002574921,0.001253128,0.007164001,0,
00:06.7,0.002563477,0.001247406,0.007152557,0,
00:06.7,0.002557755,0.001235962,0.007169724,0,
00:06.7,0.002540588,0.001224518,0.007169724,0,
00:06.7,0.002523422,0.001224518,0.007175446,0,
00:06.7,0.00254631,0.001247406,0.007169724,0,
00:06.7,0.002552032,0.00123024,0.007146835,0,
00:06.7,0.002540588,0.001207352,0.007123947,0,
00:06.7,0.002534866,0.001253128,0.007123947,0,
00:06.7,0.0025177,0.001241684,0.007118225,0,
00:06.7,0.002557755,0.001235962,0.007164001,0,
00:06.7,0.002563477,0.001235962,0.007164001,0,
00:06.7,0.002563477,0.001253128,0.007141113,0,
00:06.7,0.002540588,0.001241684,0.007146835,0,
00:06.7,0.002534866,0.00123024,0.007204056,0,
00:06.7,0.00254631,0.001224518,0.007164001,0,
00:06.7,0.00254631,0.001235962,0.007158279,0,
00:06.7,0.002540588,0.00123024,0.007175446,0,
00:06.7,0.002552032,0.001241684,0.007152557,0,
00:06.7,0.002552032,0.001224518,0.007141113,0,
00:06.7,0.002534866,0.001207352,0.007141113,0,
00:06.7,0.002557755,0.001247406,0.007146835,0,
00:06.7,0.002552032,0.00125885,0.007146835,0,
00:06.8,0.002557755,0.001235962,0.007129669,0,
00:06.8,0.002563477,0.001235962,0.007123947,0,
00:06.8,0.0025177,0.00123024,0.007135391,0,
00:06.8,0.002523422,0.00123024,0.007129669,0,
00:06.8,0.002569199,0.001235962,0.007083893,0,
00:06.8,0.002557755,0.00123024,0.007112503,0,
00:06.8,0.00254631,0.001235962,0.007123947,0,
00:06.8,0.00254631,0.001224518,0.007146835,0,
00:06.8,0.002563477,0.001224518,0.007135391,0,
00:06.8,0.002557755,0.001235962,0.00718689,0,
00:06.8,0.002563477,0.001235962,0.007164001,0,
00:06.8,0.00254631,0.00123024,0.007146835,0,
00:06.8,0.002534866,0.00123024,0.007146835,0,
00:06.8,0.00254631,0.001224518,0.007135391,0,
00:06.8,0.00254631,0.001224518,0.007123947,0,
00:06.8,0.002552032,0.001224518,0.007123947,0,
00:06.8,0.002552032,0.001218796,0.007129669,0,
00:06.8,0.00254631,0.001224518,0.007123947,0,
00:06.8,0.002552032,0.001207352,0.007123947,0,
00:06.8,0.002552032,0.00120163,0.007118225,0,
00:06.8,0.002563477,0.001241684,0.007095337,0,
00:06.8,0.002563477,0.001235962,0.007089615,0,
00:06.8,0.002529144,0.001218796,0.007112503,0,
00:06.8,0.002557755,0.001224518,0.007055283,0,
00:06.8,0.002563477,0.00123024,0.007038116,0,
00:06.9,0.002552032,0.001224518,0.007204056,0,
00:06.9,0.00254631,0.001218796,0.007175446,0,
00:06.9,0.002557755,0.001213074,0.007141113,0,
00:06.9,0.002563477,0.001224518,0.007118225,0,
00:06.9,0.002563477,0.001235962,0.007106781,0,
00:06.9,0.002569199,0.00123024,0.007101059,0,
00:06.9,0.002569199,0.001218796,0.007066727,0,
00:06.9,0.002529144,0.00120163,0.007083893,0,
00:06.9,0.002552032,0.001207352,0.007152557,0,
00:06.9,0.00254631,0.001213074,0.007135391,0,
00:06.9,0.002563477,0.001218796,0.007118225,0,
00:06.9,0.002569199,0.001224518,0.007101059,0,
00:06.9,0.002552032,0.001213074,0.007101059,0,
00:06.9,0.00254631,0.00120163,0.007106781,0,
00:06.9,0.002563477,0.001213074,0.007101059,0,
00:06.9,0.002552032,0.001207352,0.007112503,0,
00:06.9,0.002563477,0.001224518,0.007112503,0,
00:06.9,0.002592087,0.001213074,0.007078171,0,
00:06.9,0.002580643,0.00120163,0.007055283,0,
00:06.9,0.002534866,0.001218796,0.007072449,0,
00:06.9,0.002529144,0.001218796,0.007066727,0,
00:06.9,0.00254631,0.001224518,0.007112503,0,
00:06.9,0.002552032,0.001218796,0.007141113,0,
00:06.9,0.002569199,0.001218796,0.007112503,0,
00:06.9,0.002569199,0.001207352,0.007112503,0,
00:07.0,0.002563477,0.001195908,0.007095337,0,
00:07.0,0.002563477,0.001195908,0.007083893,0,
00:07.0,0.002569199,0.001213074,0.007066727,0,
00:07.0,0.002563477,0.001195908,0.007083893,0,
00:07.0,0.002563477,0.001190186,0.007112503,0,
00:07.0,0.002529144,0.001207352,0.007112503,0,
00:07.0,0.00254631,0.001195908,0.007112503,0,
00:07.0,0.002557755,0.00120163,0.007095337,0,
00:07.0,0.002557755,0.001224518,0.007095337,0,
00:07.0,0.002569199,0.001218796,0.007083893,0,
00:07.0,0.002597809,0.001195908,0.007061005,0,
00:07.0,0.002569199,0.00120163,0.007026672,0,
00:00:07,0.002534866,0.001213074,0.007083893,0,
00:07.0,0.002563477,0.001190186,0.007158279,0,
00:07.0,0.002557755,0.001207352,0.007123947,0,
00:07.0,0.00254631,0.001190186,0.007112503,0,
00:07.0,0.002557755,0.001195908,0.007101059,0,
00:07.0,0.002557755,0.001195908,0.007089615,0,
00:07.0,0.002569199,0.001207352,0.007066727,0,
00:07.0,0.00254631,0.001207352,0.007066727,0,
00:07.0,0.002552032,0.001184464,0.007101059,0,
00:07.0,0.002580643,0.001190186,0.007106781,0,
00:07.0,0.002580643,0.00120163,0.007089615,0,
00:07.0,0.002540588,0.001190186,0.007089615,0,
00:07.0,0.002569199,0.001195908,0.007083893,0,
00:07.1,0.002552032,0.001207352,0.007055283,0,
00:07.1,0.002557755,0.001190186,0.007049561,0,
00:07.1,0.002574921,0.001167297,0.007083893,0,
00:07.1,0.002574921,0.001173019,0.007066727,0,
00:07.1,0.002574921,0.001213074,0.007078171,0,
00:07.1,0.002557755,0.001213074,0.007095337,0,
00:07.1,0.002563477,0.001207352,0.007083893,0,
00:07.1,0.002580643,0.001190186,0.007118225,0,
00:07.1,0.002592087,0.001184464,0.007078171,0,
00:07.1,0.00254631,0.00120163,0.007043839,0,
00:07.1,0.002540588,0.001173019,0.007083893,0,
00:07.1,0.002552032,0.001167297,0.007095337,0,
00:07.1,0.002557755,0.00120163,0.007095337,0,
00:07.1,0.002563477,0.001184464,0.007095337,0,
00:07.1,0.002580643,0.001184464,0.007083893,0,
00:07.1,0.002563477,0.001190186,0.007078171,0,
00:07.1,0.002563477,0.001195908,0.007078171,0,
00:07.1,0.002569199,0.001173019,0.007072449,0,
00:07.1,0.002563477,0.001178741,0.007049561,0,
00:07.1,0.00254631,0.001190186,0.007055283,0,
00:07.1,0.002557755,0.00120163,0.007089615,0,
00:07.1,0.002563477,0.001184464,0.007061005,0,
00:07.1,0.002586365,0.001167297,0.007055283,0,
00:07.1,0.002574921,0.001155853,0.007083893,0,
00:07.1,0.002557755,0.001173019,0.007078171,0,
00:07.2,0.002552032,0.001195908,0.007083893,0,
00:07.2,0.00254631,0.001178741,0.007043839,0,
00:07.2,0.002563477,0.001184464,0.007055283,0,
00:07.2,0.002574921,0.001195908,0.007095337,0,
00:07.2,0.002557755,0.001178741,0.007032394,0,
00:07.2,0.002574921,0.001173019,0.007055283,0,
00:07.2,0.002574921,0.001144409,0.007106781,0,
00:07.2,0.002563477,0.001161575,0.007049561,0,
00:07.2,0.002569199,0.001190186,0.007055283,0,
00:07.2,0.002557755,0.001184464,0.007089615,0,
00:07.2,0.002569199,0.001178741,0.007089615,0,
00:07.2,0.002569199,0.001173019,0.007055283,0,
00:07.2,0.002552032,0.001184464,0.007066727,0,
00:07.2,0.002534866,0.001173019,0.007055283,0,
00:07.2,0.002569199,0.001167297,0.007061005,0,
00:07.2,0.002580643,0.001161575,0.007066727,0,
00:07.2,0.002557755,0.001173019,0.007038116,0,
00:07.2,0.002557755,0.001173019,0.007055283,0,
00:07.2,0.002552032,0.001167297,0.007089615,0,
00:07.2,0.002557755,0.001155853,0.007066727,0,
00:07.2,0.002563477,0.001138687,0.007026672,0,
00:07.2,0.002557755,0.001190186,0.007026672,0,
00:07.2,0.002552032,0.001167297,0.007095337,0,
00:07.2,0.002597809,0.001173019,0.007043839,0,
00:07.2,0.002574921,0.001195908,0.00702095,0,
00:07.3,0.002563477,0.001161575,0.007089615,0,
00:07.3,0.002563477,0.001155853,0.007089615,0,
00:07.3,0.002569199,0.001161575,0.007072449,0,
00:07.3,0.002569199,0.001167297,0.007061005,0,
00:07.3,0.002574921,0.001138687,0.007055283,0,
00:07.3,0.002580643,0.001150131,0.007038116,0,
00:07.3,0.002569199,0.001190186,0.007038116,0,
00:07.3,0.002574921,0.001161575,0.007055283,0,
00:07.3,0.002569199,0.001178741,0.007038116,0,
00:07.3,0.002563477,0.001173019,0.007049561,0,
00:07.3,0.002557755,0.001167297,0.007061005,0,
00:07.3,0.002563477,0.001161575,0.007072449,0,
00:07.3,0.002563477,0.001150131,0.007078171,0,
00:07.3,0.002563477,0.001150131,0.007061005,0,
00:07.3,0.002563477,0.001150131,0.007015228,0,
00:07.3,0.002574921,0.001138687,0.007009506,0,
00:07.3,0.002563477,0.001155853,0.007078171,0,
00:07.3,0.002552032,0.001173019,0.007061005,0,
00:07.3,0.002557755,0.001178741,0.007038116,0,
00:07.3,0.002557755,0.001155853,0.007049561,0,
00:07.3,0.002557755,0.001150131,0.007049561,0,
00:07.3,0.002586365,0.001150131,0.007032394,0,
00:07.3,0.002603531,0.001150131,0.006986618,0,
00:07.3,0.002552032,0.001138687,0.007049561,0,
00:07.3,0.002529144,0.001121521,0.007049561,0,
00:07.4,0.002592087,0.001167297,0.007055283,0,
00:07.4,0.002580643,0.001155853,0.007032394,0,
00:07.4,0.002552032,0.001161575,0.007038116,0,
00:07.4,0.002563477,0.001161575,0.007061005,0,
00:07.4,0.002540588,0.001155853,0.007066727,0,
00:07.4,0.002540588,0.001150131,0.007049561,0,
00:07.4,0.002574921,0.001132965,0.007038116,0,
00:07.4,0.002563477,0.001138687,0.007038116,0,
00:07.4,0.002569199,0.001161575,0.007038116,0,
00:07.4,0.002574921,0.001161575,0.007003784,0,
00:07.4,0.002557755,0.001144409,0.007003784,0,
00:07.4,0.002557755,0.001150131,0.007061005,0,
00:07.4,0.002563477,0.001150131,0.007038116,0,
00:07.4,0.002563477,0.001132965,0.006998062,0,
00:07.4,0.002540588,0.001138687,0.006980896,0,
00:07.4,0.00254631,0.001127243,0.007072449,0,
00:07.4,0.002597809,0.001150131,0.007043839,0,
00:07.4,0.002580643,0.001132965,0.006998062,0,
00:07.4,0.002552032,0.001150131,0.007066727,0,
00:07.4,0.002574921,0.001155853,0.007061005,0,
00:07.4,0.002569199,0.001138687,0.007015228,0,
00:07.4,0.00254631,0.001121521,0.006998062,0,
00:07.4,0.002540588,0.001127243,0.006998062,0,
00:07.4,0.002563477,0.001150131,0.007049561,0,
00:07.4,0.002540588,0.001155853,0.007043839,0,
00:07.5,0.002552032,0.001121521,0.007049561,0,
00:07.5,0.002586365,0.001132965,0.007032394,0,
00:07.5,0.002574921,0.001144409,0.007032394,0,
00:07.5,0.002563477,0.001121521,0.00702095,0,
00:07.5,0.002563477,0.001127243,0.006975174,0,
00:07.5,0.002557755,0.001127243,0.006975174,0,
00:07.5,0.002557755,0.001121521,0.007049561,0,
00:07.5,0.002557755,0.001144409,0.007038116,0,
00:07.5,0.002557755,0.001127243,0.00702095,0,
00:07.5,0.002552032,0.001138687,0.00702095,0,
00:07.5,0.002563477,0.001144409,0.007026672,0,
00:07.5,0.00254631,0.001132965,0.007026672,0,
00:07.5,0.002557755,0.001127243,0.00702095,0,
00:07.5,0.002574921,0.001110077,0.007003784,0,
00:07.5,0.002574921,0.001115799,0.006969452,0,
00:07.5,0.002557755,0.001138687,0.006946564,0,
00:07.5,0.002557755,0.001144409,0.006975174,0,
00:07.5,0.00254631,0.001121521,0.006998062,0,
00:07.5,0.002563477,0.001121521,0.007066727,0,
00:07.5,0.002552032,0.001127243,0.007049561,0,
00:07.5,0.002557755,0.001121521,0.00702095,0,
00:07.5,0.002574921,0.001110077,0.006998062,0,
00:07.5,0.002563477,0.001115799,0.006958008,0,
00:07.5,0.002563477,0.001138687,0.006998062,0,
00:07.5,0.002569199,0.001121521,0.007032394,0,
00:07.6,0.00254631,0.001127243,0.007003784,0,
00:07.6,0.002557755,0.001110077,0.006998062,0,
00:07.6,0.00254631,0.001115799,0.007015228,0,
00:07.6,0.002534866,0.001110077,0.007003784,0,
00:07.6,0.002563477,0.001110077,0.007003784,0,
00:07.6,0.002586365,0.001121521,0.006986618,0,
00:07.6,0.002569199,0.001104355,0.006975174,0,
00:07.6,0.002569199,0.001121521,0.006980896,0,
00:07.6,0.002569199,0.001115799,0.006980896,0,
00:07.6,0.002540588,0.001115799,0.007015228,0,
00:07.6,0.002540588,0.001104355,0.007009506,0,
00:07.6,0.002569199,0.001110077,0.00699234,0,
00:07.6,0.002563477,0.001110077,0.007003784,0,
00:07.6,0.00254631,0.001104355,0.007015228,0,
00:07.6,0.00254631,0.001098633,0.006969452,0,
00:07.6,0.002563477,0.001098633,0.006923676,0,
00:07.6,0.002580643,0.001121521,0.006958008,0,
00:07.6,0.002563477,0.001115799,0.007055283,0,
00:07.6,0.00254631,0.001092911,0.007043839,0,
00:07.6,0.00254631,0.001115799,0.007003784,0,
00:07.6,0.002529144,0.001104355,0.006986618,0,
00:07.6,0.002574921,0.001110077,0.006998062,0,
00:07.6,0.002574921,0.001087189,0.007015228,0,
00:07.6,0.002557755,0.001104355,0.00699234,0,
00:07.6,0.002569199,0.001098633,0.006958008,0,
00:07.7,0.002569199,0.001104355,0.006975174,0,
00:07.7,0.002540588,0.001104355,0.007015228,0,
00:07.7,0.002540588,0.001092911,0.006998062,0,
00:07.7,0.002563477,0.001104355,0.006969452,0,
00:07.7,0.002569199,0.001104355,0.006969452,0,
00:07.7,0.002569199,0.001092911,0.00699234,0,
00:07.7,0.002563477,0.001092911,0.00699234,0,
00:07.7,0.002552032,0.001087189,0.006986618,0,
00:07.7,0.002563477,0.001098633,0.006958008,0,
00:07.7,0.002552032,0.001104355,0.006952286,0,
00:07.7,0.00254631,0.001098633,0.007026672,0,
00:07.7,0.002534866,0.001092911,0.007015228,0,
00:07.7,0.00254631,0.001081467,0.006986618,0,
00:07.7,0.002563477,0.001092911,0.006980896,0,
00:07.7,0.002540588,0.001092911,0.006980896,0,
00:07.7,0.002552032,0.001104355,0.006980896,0,
00:07.7,0.002586365,0.001098633,0.006975174,0,
00:07.7,0.002580643,0.001092911,0.00696373,0,
00:07.7,0.002569199,0.001075745,0.00693512,0,
00:07.7,0.002534866,0.001087189,0.006929398,0,
00:07.7,0.002540588,0.001092911,0.006998062,0,
00:07.7,0.002557755,0.001087189,0.006986618,0,
00:07.7,0.002557755,0.001064301,0.00696373,0,
00:07.7,0.002557755,0.001081467,0.006975174,0,
00:07.7,0.002552032,0.001092911,0.006980896,0,
00:07.8,0.002569199,0.001087189,0.006975174,0,
00:07.8,0.002557755,0.001087189,0.006958008,0,
00:07.8,0.00254631,0.001070023,0.006958008,0,
00:07.8,0.002569199,0.001081467,0.006923676,0,
00:07.8,0.002534866,0.001064301,0.006975174,0,
00:07.8,0.002523422,0.001098633,0.00699234,0,
00:07.8,0.002534866,0.001087189,0.00696373,0,
00:07.8,0.002574921,0.001070023,0.00699234,0,
00:07.8,0.002569199,0.001064301,0.006980896,0,
00:07.8,0.002563477,0.001064301,0.006969452,0,
00:07.8,0.002557755,0.001092911,0.006969452,0,
00:07.8,0.002563477,0.001098633,0.006958008,0,
00:07.8,0.002557755,0.001081467,0.006929398,0,
00:07.8,0.002540588,0.001075745,0.00696373,0,
00:07.8,0.002552032,0.001058578,0.006975174,0,
00:07.8,0.002563477,0.001070023,0.006969452,0,
00:07.8,0.002563477,0.001052856,0.006946564,0,
00:07.8,0.002557755,0.001075745,0.006940842,0,
00:07.8,0.002540588,0.001075745,0.006975174,0,
00:07.8,0.002552032,0.001070023,0.006952286,0,
00:07.8,0.00254631,0.001047134,0.006929398,0,
00:07.8,0.002540588,0.001075745,0.006917953,0,
00:07.8,0.00254631,0.001098633,0.00696373,0,
00:07.8,0.002569199,0.001064301,0.006917953,0,
00:07.8,0.002586365,0.001070023,0.006912231,0,
00:07.9,0.002557755,0.001064301,0.006980896,0,
00:07.9,0.002540588,0.001058578,0.006980896,0,
00:07.9,0.0025177,0.001041412,0.006975174,0,
00:07.9,0.002563477,0.001058578,0.00696373,0,
00:07.9,0.002563477,0.001070023,0.00693512,0,
00:07.9,0.002569199,0.001058578,0.006952286,0,
00:07.9,0.00254631,0.001058578,0.006952286,0,
00:07.9,0.002552032,0.001052856,0.006940842,0,
00:07.9,0.002534866,0.001047134,0.00693512,0,
00:07.9,0.00254631,0.001058578,0.006946564,0,
00:07.9,0.002552032,0.001041412,0.006952286,0,
00:07.9,0.00254631,0.001064301,0.006952286,0,
00:07.9,0.002557755,0.001087189,0.006946564,0,
00:07.9,0.002540588,0.001052856,0.006940842,0,
00:07.9,0.00254631,0.001058578,0.006929398,0,
00:07.9,0.002557755,0.001058578,0.006929398,0,
00:07.9,0.002557755,0.001052856,0.006940842,0,
00:07.9,0.00254631,0.00103569,0.006895065,0,
00:07.9,0.002552032,0.001075745,0.006912231,0,
00:07.9,0.00254631,0.001064301,0.006975174,0,
00:07.9,0.002563477,0.00103569,0.00693512,0,
00:07.9,0.002563477,0.001052856,0.006917953,0,
00:07.9,0.002563477,0.001058578,0.006929398,0,
00:07.9,0.002557755,0.001070023,0.006912231,0,
00:07.9,0.002534866,0.001041412,0.006900787,0,
00:08.0,0.002552032,0.00103569,0.00693512,0,
00:08.0,0.002540588,0.001029968,0.00696373,0,
00:08.0,0.002540588,0.001047134,0.006952286,0,
00:08.0,0.002569199,0.001047134,0.006917953,0,
00:08.0,0.002552032,0.001047134,0.006917953,0,
00:08.0,0.002534866,0.001024246,0.006946564,0,
00:08.0,0.00254631,0.001029968,0.00693512,0,
00:08.0,0.00254631,0.001047134,0.006946564,0,
00:08.0,0.002557755,0.001058578,0.006917953,0,
00:08.0,0.00254631,0.001041412,0.006917953,0,
00:08.0,0.002534866,0.001052856,0.006889343,0,
00:08.0,0.002523422,0.001041412,0.006912231,0,
00:00:08,0.002563477,0.001012802,0.006969452,0,
00:08.0,0.002563477,0.00103569,0.006940842,0,
00:08.0,0.002569199,0.001052856,0.006923676,0,
00:08.0,0.002574921,0.00103569,0.006912231,0,
00:08.0,0.002569199,0.001047134,0.006872177,0,
00:08.0,0.002540588,0.001047134,0.00693512,0,
00:08.0,0.002552032,0.00103569,0.006958008,0,
00:08.0,0.002563477,0.001018524,0.006940842,0,
00:08.0,0.002534866,0.001024246,0.006917953,0,
00:08.0,0.002534866,0.001024246,0.006917953,0,
00:08.0,0.002534866,0.001024246,0.006923676,0,
00:08.0,0.002529144,0.001024246,0.006877899,0,
00:08.0,0.002552032,0.00103569,0.006889343,0,
00:08.1,0.002563477,0.001041412,0.006917953,0,
00:08.1,0.002569199,0.001018524,0.006917953,0,
00:08.1,0.002552032,0.00103569,0.00693512,0,
00:08.1,0.002534866,0.00103569,0.006923676,0,
00:08.1,0.002552032,0.001018524,0.006883621,0,
00:08.1,0.00254631,0.001024246,0.006917953,0,
00:08.1,0.002552032,0.001012802,0.006969452,0,
00:08.1,0.00254631,0.001018524,0.00693512,0,
00:08.1,0.002552032,0.001041412,0.006912231,0,
00:08.1,0.002552032,0.001047134,0.006906509,0,
00:08.1,0.002569199,0.001024246,0.006877899,0,
00:08.1,0.002569199,0.001024246,0.006866455,0,
00:08.1,0.002523422,0.001012802,0.006912231,0,
00:08.1,0.002511978,0.001012802,0.006940842,0,
00:08.1,0.002552032,0.00100708,0.006923676,0,
00:08.1,0.002552032,0.000995636,0.006929398,0,
00:08.1,0.002557755,0.001029968,0.006917953,0,
00:08.1,0.002552032,0.001029968,0.006906509,0,
00:08.1,0.002557755,0.001029968,0.006900787,0,
00:08.1,0.002569199,0.001012802,0.006895065,0,
00:08.1,0.002534866,0.000989914,0.006900787,0,
00:08.1,0.002534866,0.000989914,0.006906509,0,
00:08.1,0.002552032,0.00103569,0.006895065,0,
00:08.1,0.002557755,0.001029968,0.006855011,0,
00:08.1,0.00254631,0.001018524,0.006895065,0,
00:08.2,0.002523422,0.00100708,0.006917953,0,
00:08.2,0.002552032,0.000995636,0.006855011,0,
00:08.2,0.002569199,0.000995636,0.006820679,0,
00:08.2,0.00254631,0.001024246,0.006940842,0,
00:08.2,0.002552032,0.001012802,0.00696373,0,
00:08.2,0.002534866,0.001012802,0.006923676,0,
00:08.2,0.002552032,0.001001358,0.006912231,0,
00:08.2,0.00254631,0.000995636,0.006912231,0,
00:08.2,0.00254631,0.00100708,0.006906509,0,
00:08.2,0.002563477,0.00100708,0.006877899,0,
00:08.2,0.002552032,0.001012802,0.006895065,0,
00:08.2,0.002529144,0.00097847,0.006906509,0,
00:08.2,0.002540588,0.001012802,0.006906509,0,
00:08.2,0.002557755,0.001001358,0.006895065,0,
00:08.2,0.002552032,0.001012802,0.006895065,0,
00:08.2,0.002557755,0.001012802,0.006883621,0,
00:08.2,0.002540588,0.00100708,0.006883621,0,
00:08.2,0.002529144,0.000995636,0.006889343,0,
00:08.2,0.002557755,0.000995636,0.006866455,0,
00:08.2,0.002580643,0.001001358,0.006826401,0,
00:08.2,0.002552032,0.000972748,0.006809235,0,
00:08.2,0.002511978,0.00100708,0.006889343,0,
00:08.2,0.002523422,0.001012802,0.006946564,0,
00:08.2,0.00254631,0.000984192,0.006912231,0,
00:08.2,0.002534866,0.000995636,0.006883621,0,
00:08.3,0.00254631,0.000995636,0.006889343,0,
00:08.3,0.002557755,0.000984192,0.006883621,0,
00:08.3,0.002534866,0.000995636,0.006849289,0,
00:08.3,0.002557755,0.001001358,0.006832123,0,
00:08.3,0.002563477,0.000984192,0.006877899,0,
00:08.3,0.002540588,0.000984192,0.006906509,0,
00:08.3,0.00254631,0.001001358,0.006900787,0,
00:08.3,0.002540588,0.00100708,0.006889343,0,
00:08.3,0.002557755,0.000995636,0.006877899,0,
00:08.3,0.00254631,0.000989914,0.006866455,0,
00:08.3,0.00254631,0.000995636,0.006860733,0,
00:08.3,0.002574921,0.00097847,0.006814957,0,
00:08.3,0.00254631,0.000984192,0.006792068,0,
00:08.3,0.002534866,0.00100708,0.006889343,0,
00:08.3,0.002540588,0.000995636,0.00693512,0,
00:08.3,0.002540588,0.000984192,0.006895065,0,
00:08.3,0.002534866,0.00097847,0.006872177,0,
00:08.3,0.00254631,0.000967026,0.006866455,0,
00:08.3,0.002540588,0.000967026,0.006849289,0,
00:08.3,0.002523422,0.000995636,0.006872177,0,
00:08.3,0.002529144,0.000989914,0.006866455,0,
00:08.3,0.002534866,0.000995636,0.006866455,0,
00:08.3,0.002563477,0.000995636,0.006860733,0,
00:08.3,0.002563477,0.000995636,0.006860733,0,
00:08.3,0.002534866,0.00097847,0.006877899,0,
00:08.4,0.002523422,0.000967026,0.006872177,0,
00:08.4,0.002529144,0.000972748,0.006820679,0,
00:08.4,0.002569199,0.000989914,0.006809235,0,
00:08.4,0.002534866,0.000995636,0.006895065,0,
00:08.4,0.002540588,0.00097847,0.006900787,0,
00:08.4,0.002534866,0.000984192,0.006860733,0,
00:08.4,0.002557755,0.000989914,0.006832123,0,
00:08.4,0.002557755,0.000984192,0.006843567,0,
00:08.4,0.002529144,0.00097847,0.006843567,0,
00:08.4,0.002540588,0.000972748,0.006883621,0,
00:08.4,0.002529144,0.000967026,0.006889343,0,
00:08.4,0.002506256,0.000955582,0.006872177,0,
00:08.4,0.002511978,0.000989914,0.006866455,0,
00:08.4,0.002552032,0.00097847,0.006843567,0,
00:08.4,0.00254631,0.000967026,0.006860733,0,
00:08.4,0.002540588,0.000972748,0.006877899,0,
00:08.4,0.00254631,0.000972748,0.006866455,0,
00:08.4,0.002540588,0.000972748,0.006866455,0,
00:08.4,0.002534866,0.00097847,0.006872177,0,
00:08.4,0.002552032,0.000967026,0.006860733,0,
00:08.4,0.002552032,0.00097847,0.006843567,0,
00:08.4,0.002523422,0.000944138,0.006849289,0,
00:08.4,0.002540588,0.00097847,0.006849289,0,
00:08.4,0.002534866,0.000984192,0.006843567,0,
00:08.4,0.002534866,0.000984192,0.006872177,0,
00:08.5,0.002534866,0.000967026,0.006849289,0,
00:08.5,0.00254631,0.00097847,0.006837845,0,
00:08.5,0.00254631,0.000967026,0.006849289,0,
00:08.5,0.002540588,0.000967026,0.006832123,0,
00:08.5,0.00254631,0.000961304,0.006883621,0,
00:08.5,0.002540588,0.000967026,0.006877899,0,
00:08.5,0.00254631,0.000972748,0.006860733,0,
00:08.5,0.002511978,0.00094986,0.006877899,0,
00:08.5,0.0025177,0.000961304,0.006866455,0,
00:08.5,0.002523422,0.000955582,0.006860733,0,
00:08.5,0.002511978,0.000955582,0.006849289,0,
00:08.5,0.002552032,0.000967026,0.006832123,0,
00:08.5,0.002552032,0.000955582,0.006849289,0,
00:08.5,0.002534866,0.00094986,0.006855011,0,
00:08.5,0.0025177,0.000944138,0.006849289,0,
00:08.5,0.00254631,0.000961304,0.006837845,0,
00:08.5,0.002523422,0.00094986,0.006860733,0,
00:08.5,0.002540588,0.000967026,0.006872177,0,
00:08.5,0.002552032,0.000967026,0.006855011,0,
00:08.5,0.002534866,0.000955582,0.006877899,0,
00:08.5,0.002534866,0.000944138,0.006872177,0,
00:08.5,0.002534866,0.000955582,0.006860733,0,
00:08.5,0.002552032,0.000961304,0.006809235,0,
00:08.5,0.002534866,0.000944138,0.006792068,0,
00:08.5,0.0025177,0.000961304,0.006843567,0,
00:08.6,0.002569199,0.000961304,0.006855011,0,
00:08.6,0.002540588,0.00094986,0.006883621,0,
00:08.6,0.002511978,0.000944138,0.006883621,0,
00:08.6,0.002523422,0.00094986,0.006877899,0,
00:08.6,0.002534866,0.00094986,0.006866455,0,
00:08.6,0.002523422,0.00094986,0.006860733,0,
00:08.6,0.002540588,0.000955582,0.006843567,0,
00:08.6,0.002534866,0.00094986,0.006832123,0,
00:08.6,0.002477646,0.000926971,0.006820679,0,
00:08.6,0.002506256,0.000932693,0.006792068,0,
00:08.6,0.002552032,0.000955582,0.006877899,0,
00:08.6,0.002540588,0.000961304,0.006883621,0,
00:08.6,0.002534866,0.00094986,0.006866455,0,
00:08.6,0.002534866,0.000932693,0.006872177,0,
00:08.6,0.002540588,0.000944138,0.006855011,0,
00:08.6,0.002529144,0.000938416,0.006855011,0,
00:08.6,0.002534866,0.000938416,0.006849289,0,
00:08.6,0.002540588,0.000932693,0.006832123,0,
00:08.6,0.002540588,0.000955582,0.006792068,0,
00:08.6,0.00254631,0.000944138,0.006797791,0,
00:08.6,0.002540588,0.000944138,0.006797791,0,
00:08.6,0.002529144,0.000961304,0.006849289,0,
00:08.6,0.002511978,0.000938416,0.006906509,0,
00:08.6,0.002529144,0.000938416,0.006877899,0,
00:08.6,0.002523422,0.000938416,0.006855011,0,
00:08.7,0.002523422,0.000932693,0.006849289,0,
00:08.7,0.002529144,0.000926971,0.006855011,0,
00:08.7,0.002534866,0.000921249,0.006843567,0,
00:08.7,0.002523422,0.000915527,0.006843567,0,
00:08.7,0.0025177,0.000915527,0.006843567,0,
00:08.7,0.0025177,0.000898361,0.006826401,0,
00:08.7,0.002534866,0.000961304,0.006809235,0,
00:08.7,0.002534866,0.00094986,0.006786346,0,
00:08.7,0.002534866,0.000961304,0.00676918,0,
00:08.7,0.002511978,0.000932693,0.006832123,0,
00:08.7,0.00254631,0.000932693,0.006923676,0,
00:08.7,0.002523422,0.000932693,0.006877899,0,
00:08.7,0.0025177,0.000921249,0.006855011,0,
00:08.7,0.002529144,0.000921249,0.006843567,0,
00:08.7,0.002529144,0.000932693,0.006837845,0,
00:08.7,0.002540588,0.000944138,0.006832123,0,
00:08.7,0.002534866,0.000926971,0.006832123,0,
00:08.7,0.002557755,0.000921249,0.006820679,0,
00:08.7,0.002534866,0.000926971,0.006814957,0,
00:08.7,0.002477646,0.000909805,0.006803513,0,
00:08.7,0.0025177,0.000921249,0.006826401,0,
00:08.7,0.002529144,0.000921249,0.006855011,0,
00:08.7,0.002540588,0.000921249,0.006872177,0,
00:08.7,0.002529144,0.000926971,0.006843567,0,
00:08.7,0.002523422,0.000926971,0.006843567,0,
00:08.8,0.0025177,0.000898361,0.006849289,0,
00:08.8,0.002529144,0.000892639,0.006849289,0,
00:08.8,0.002534866,0.000932693,0.006837845,0,
00:08.8,0.002534866,0.000938416,0.006837845,0,
00:08.8,0.002511978,0.000898361,0.006763458,0,
00:08.8,0.0025177,0.000926971,0.006786346,0,
00:08.8,0.00254631,0.000938416,0.006877899,0,
00:08.8,0.002552032,0.000926971,0.006860733,0,
00:08.8,0.002506256,0.000915527,0.006849289,0,
00:08.8,0.002506256,0.000904083,0.006860733,0,
00:08.8,0.0025177,0.000898361,0.006860733,0,
00:08.8,0.002523422,0.000898361,0.006843567,0,
00:08.8,0.0025177,0.000904083,0.006832123,0,
00:08.8,0.002529144,0.000921249,0.006826401,0,
00:08.8,0.002529144,0.000926971,0.006820679,0,
00:08.8,0.002477646,0.000909805,0.006797791,0,
00:08.8,0.002523422,0.000904083,0.006809235,0,
00:08.8,0.00254631,0.000909805,0.006837845,0,
00:08.8,0.002523422,0.000892639,0.006849289,0,
00:08.8,0.002523422,0.000892639,0.006872177,0,
00:08.8,0.002534866,0.000932693,0.006849289,0,
00:08.8,0.002529144,0.000944138,0.006843567,0,
00:08.8,0.002523422,0.000915527,0.006832123,0,
00:08.8,0.0025177,0.000915527,0.006814957,0,
00:08.8,0.002540588,0.000909805,0.00676918,0,
00:08.9,0.002511978,0.000898361,0.006780624,0,
00:08.9,0.002494812,0.000904083,0.006855011,0,
00:08.9,0.002511978,0.000915527,0.006849289,0,
00:08.9,0.002534866,0.000915527,0.006866455,0,
00:08.9,0.002511978,0.000904083,0.006855011,0,
00:08.9,0.002529144,0.000892639,0.006832123,0,
00:08.9,0.002534866,0.000904083,0.006814957,0,
00:08.9,0.0025177,0.000921249,0.006797791,0,
00:08.9,0.002511978,0.000915527,0.006832123,0,
00:08.9,0.002511978,0.000892639,0.006826401,0,
00:08.9,0.002523422,0.000898361,0.006826401,0,
00:08.9,0.0025177,0.000909805,0.006832123,0,
00:08.9,0.0025177,0.000892639,0.006832123,0,
00:08.9,0.002534866,0.000898361,0.006809235,0,
00:08.9,0.002523422,0.000904083,0.006809235,0,
00:08.9,0.0025177,0.000904083,0.006814957,0,
00:08.9,0.002529144,0.000909805,0.006780624,0,
00:08.9,0.002523422,0.000904083,0.006809235,0,
00:08.9,0.002523422,0.000921249,0.006855011,0,
00:08.9,0.002523422,0.000898361,0.006849289,0,
00:08.9,0.0025177,0.000892639,0.006837845,0,
00:08.9,0.002506256,0.000898361,0.006826401,0,
00:08.9,0.002506256,0.000904083,0.006820679,0,
00:08.9,0.002506256,0.000881195,0.006809235,0,
00:08.9,0.002494812,0.000904083,0.006786346,0,
00:09.0,0.0025177,0.000898361,0.006814957,0,
00:09.0,0.002534866,0.000892639,0.006832123,0,
00:09.0,0.002523422,0.000892639,0.006820679,0,
00:09.0,0.0025177,0.000898361,0.006803513,0,
00:09.0,0.002534866,0.000898361,0.006797791,0,
00:09.0,0.002506256,0.000886917,0.006803513,0,
00:09.0,0.002540588,0.000898361,0.006797791,0,
00:09.0,0.0025177,0.000869751,0.006792068,0,
00:09.0,0.002494812,0.000875473,0.006832123,0,
00:09.0,0.002500534,0.000915527,0.006837845,0,
00:09.0,0.002529144,0.000898361,0.006826401,0,
00:09.0,0.002523422,0.000892639,0.006774902,0,
00:00:09,0.002511978,0.000898361,0.00676918,0,
00:09.0,0.002506256,0.000881195,0.006837845,0,
00:09.0,0.002506256,0.000864029,0.006814957,0,
00:09.0,0.0025177,0.000881195,0.00676918,0,
00:09.0,0.002523422,0.000915527,0.006774902,0,
00:09.0,0.002529144,0.000909805,0.006826401,0,
00:09.0,0.002511978,0.000892639,0.006832123,0,
00:09.0,0.002500534,0.000881195,0.006826401,0,
00:09.0,0.002494812,0.000881195,0.006814957,0,
00:09.0,0.0025177,0.000886917,0.006797791,0,
00:09.0,0.002529144,0.000886917,0.006797791,0,
00:09.0,0.0025177,0.000875473,0.006809235,0,
00:09.0,0.002494812,0.000869751,0.006803513,0,
00:09.1,0.002534866,0.000864029,0.006780624,0,
00:09.1,0.002529144,0.000875473,0.006797791,0,
00:09.1,0.002494812,0.000898361,0.006803513,0,
00:09.1,0.002494812,0.000881195,0.006792068,0,
00:09.1,0.00248909,0.000892639,0.006780624,0,
00:09.1,0.002511978,0.000892639,0.006820679,0,
00:09.1,0.002523422,0.000886917,0.006814957,0,
00:09.1,0.002529144,0.000875473,0.006797791,0,
00:09.1,0.002494812,0.000869751,0.006792068,0,
00:09.1,0.002506256,0.000881195,0.006797791,0,
00:09.1,0.002511978,0.000881195,0.006826401,0,
00:09.1,0.0025177,0.000881195,0.006809235,0,
00:09.1,0.0025177,0.000881195,0.006763458,0,
00:09.1,0.002511978,0.000858307,0.006752014,0,
00:09.1,0.002511978,0.000864029,0.006803513,0,
00:09.1,0.002483368,0.000892639,0.006814957,0,
00:09.1,0.002483368,0.000852585,0.006820679,0,
00:09.1,0.002500534,0.000875473,0.006809235,0,
00:09.1,0.002511978,0.000886917,0.006786346,0,
00:09.1,0.0025177,0.000886917,0.006792068,0,
00:09.1,0.0025177,0.000875473,0.006792068,0,
00:09.1,0.002500534,0.000846863,0.006780624,0,
00:09.1,0.002500534,0.000858307,0.006797791,0,
00:09.1,0.002500534,0.000875473,0.006797791,0,
00:09.1,0.002511978,0.000881195,0.006786346,0,
00:09.2,0.002506256,0.000886917,0.006786346,0,
00:09.2,0.0025177,0.000875473,0.006780624,0,
00:09.2,0.002523422,0.000869751,0.006734848,0,
00:09.2,0.002477646,0.000858307,0.006774902,0,
00:09.2,0.002500534,0.000858307,0.006792068,0,
00:09.2,0.002483368,0.000864029,0.006797791,0,
00:09.2,0.002500534,0.000869751,0.006814957,0,
00:09.2,0.002523422,0.000864029,0.006797791,0,
00:09.2,0.002506256,0.000864029,0.006786346,0,
00:09.2,0.002506256,0.000858307,0.006780624,0,
00:09.2,0.002523422,0.000864029,0.006774902,0,
00:09.2,0.002511978,0.000864029,0.00676918,0,
00:09.2,0.00248909,0.000881195,0.006774902,0,
00:09.2,0.002483368,0.000875473,0.006792068,0,
00:09.2,0.002483368,0.000852585,0.006792068,0,
00:09.2,0.002483368,0.000852585,0.006774902,0,
00:09.2,0.002506256,0.000852585,0.006746292,0,
00:09.2,0.0025177,0.000869751,0.006757736,0,
00:09.2,0.002511978,0.000869751,0.006786346,0,
00:09.2,0.002477646,0.000852585,0.006786346,0,
00:09.2,0.002494812,0.000841141,0.006792068,0,
00:09.2,0.002511978,0.000864029,0.006780624,0,
00:09.2,0.002500534,0.000852585,0.006780624,0,
00:09.2,0.002500534,0.000858307,0.00676918,0,
00:09.2,0.002494812,0.000858307,0.006763458,0,
00:09.3,0.002494812,0.000858307,0.006700516,0,
00:09.3,0.002500534,0.000846863,0.006666183,0,
00:09.3,0.002511978,0.000858307,0.006797791,0,
00:09.3,0.002500534,0.000841141,0.006814957,0,
00:09.3,0.00248909,0.000829697,0.006809235,0,
00:09.3,0.002500534,0.000858307,0.006774902,0,
00:09.3,0.002500534,0.000858307,0.006734848,0,
00:09.3,0.002506256,0.000858307,0.006746292,0,
00:09.3,0.002506256,0.000823975,0.006786346,0,
00:09.3,0.002494812,0.000841141,0.006780624,0,
00:09.3,0.00248909,0.000864029,0.006780624,0,
00:09.3,0.002483368,0.000846863,0.006774902,0,
00:09.3,0.00248909,0.000864029,0.006752014,0,
00:09.3,0.00248909,0.000841141,0.006723404,0,
00:09.3,0.002483368,0.000841141,0.006763458,0,
00:09.3,0.002500534,0.000864029,0.006774902,0,
00:09.3,0.002494812,0.000852585,0.006774902,0,
00:09.3,0.00248909,0.000841141,0.00674057,0,
00:09.3,0.002500534,0.000846863,0.006729126,0,
00:09.3,0.002500534,0.000841141,0.00674057,0,
00:09.3,0.002511978,0.000841141,0.006717682,0,
00:09.3,0.002477646,0.000823975,0.006786346,0,
00:09.3,0.002477646,0.000829697,0.006803513,0,
00:09.3,0.002506256,0.000858307,0.006752014,0,
00:09.3,0.002483368,0.000846863,0.006757736,0,
00:09.4,0.002483368,0.000829697,0.006757736,0,
00:09.4,0.00248909,0.000829697,0.006752014,0,
00:09.4,0.0025177,0.000852585,0.006717682,0,
00:09.4,0.002477646,0.000841141,0.006677628,0,
00:09.4,0.002437592,0.000829697,0.006763458,0,
00:09.4,0.00248909,0.000835419,0.006820679,0,
00:09.4,0.00248909,0.000829697,0.006780624,0,
00:09.4,0.00248909,0.000829697,0.006763458,0,
00:09.4,0.002494812,0.000829697,0.006757736,0,
00:09.4,0.002506256,0.000835419,0.006734848,0,
00:09.4,0.002477646,0.000835419,0.006752014,0,
00:09.4,0.002494812,0.000835419,0.006752014,0,
00:09.4,0.002494812,0.000841141,0.006746292,0,
00:09.4,0.002471924,0.000818253,0.006734848,0,
00:09.4,0.002483368,0.000841141,0.006757736,0,
00:09.4,0.002494812,0.000846863,0.006786346,0,
00:09.4,0.002494812,0.000835419,0.00676918,0,
00:09.4,0.002477646,0.000823975,0.006757736,0,
00:09.4,0.002477646,0.000829697,0.006763458,0,
00:09.4,0.002494812,0.000829697,0.006746292,0,
00:09.4,0.00248909,0.000835419,0.006752014,0,
00:09.4,0.002471924,0.000818253,0.006746292,0,
00:09.4,0.002494812,0.000829697,0.00674057,0,
00:09.4,0.002483368,0.000858307,0.006746292,0,
00:09.4,0.002477646,0.000841141,0.006763458,0,
00:09.5,0.002477646,0.000823975,0.00676918,0,
00:09.5,0.002471924,0.000823975,0.006752014,0,
00:09.5,0.002466202,0.000801086,0.006734848,0,
00:09.5,0.002477646,0.000835419,0.006746292,0,
00:09.5,0.002483368,0.000835419,0.006734848,0,
00:09.5,0.002466202,0.000823975,0.006723404,0,
00:09.5,0.002494812,0.000818253,0.006654739,0,
00:09.5,0.002477646,0.000818253,0.006671906,0,
00:09.5,0.002454758,0.000829697,0.006746292,0,
00:09.5,0.002483368,0.000823975,0.006820679,0,
00:09.5,0.002483368,0.000812531,0.006786346,0,
00:09.5,0.002483368,0.000835419,0.006763458,0,
00:09.5,0.002471924,0.000841141,0.006763458,0,
00:09.5,0.002471924,0.000829697,0.006752014,0,
00:09.5,0.002483368,0.000823975,0.00674057,0,
00:09.5,0.00248909,0.000823975,0.006734848,0,
00:09.5,0.002483368,0.000812531,0.006729126,0,
00:09.5,0.002466202,0.000835419,0.006734848,0,
00:09.5,0.002471924,0.000841141,0.006746292,0,
00:09.5,0.002466202,0.000823975,0.00674057,0,
00:09.5,0.00246048,0.000812531,0.006746292,0,
00:09.5,0.002477646,0.000818253,0.006734848,0,
00:09.5,0.002477646,0.000818253,0.00671196,0,
00:09.5,0.002494812,0.000829697,0.00671196,0,
00:09.5,0.002477646,0.000801086,0.006729126,0,
00:09.6,0.002449036,0.000795364,0.006752014,0,
00:09.6,0.002454758,0.000829697,0.006757736,0,
00:09.6,0.002449036,0.000829697,0.006734848,0,
00:09.6,0.002471924,0.000812531,0.006706238,0,
00:09.6,0.002483368,0.000841141,0.006666183,0,
00:09.6,0.002471924,0.000823975,0.006729126,0,
00:09.6,0.002449036,0.000812531,0.00676918,0,
00:09.6,0.002466202,0.000806808,0.006717682,0,
00:09.6,0.002471924,0.000818253,0.006717682,0,
00:09.6,0.002471924,0.000812531,0.00674057,0,
00:09.6,0.002466202,0.000801086,0.006717682,0,
00:09.6,0.002466202,0.000818253,0.006717682,0,
00:09.6,0.00246048,0.000818253,0.006689072,0,
00:09.6,0.002466202,0.000801086,0.00671196,0,
00:09.6,0.002500534,0.000795364,0.006746292,0,
00:09.6,0.002494812,0.000801086,0.006700516,0,
00:09.6,0.002477646,0.00078392,0.006700516,0,
00:09.6,0.002443314,0.000812531,0.006706238,0,
00:09.6,0.002437592,0.000818253,0.006729126,0,
00:09.6,0.002443314,0.000812531,0.00674057,0,
00:09.6,0.002437592,0.00078392,0.006717682,0,
00:09.6,0.00246048,0.000795364,0.006723404,0,
00:09.6,0.002477646,0.000801086,0.006734848,0,
00:09.6,0.002466202,0.000789642,0.006723404,0,
00:09.6,0.00246048,0.00078392,0.006717682,0,
00:09.7,0.002454758,0.000801086,0.00671196,0,
00:09.7,0.002449036,0.000795364,0.006666183,0,
00:09.7,0.002443314,0.000795364,0.006689072,0,
00:09.7,0.002471924,0.00078392,0.006734848,0,
00:09.7,0.002483368,0.000789642,0.006723404,0,
00:09.7,0.002477646,0.00078392,0.00674057,0,
00:09.7,0.002437592,0.00078392,0.006723404,0,
00:09.7,0.002437592,0.000801086,0.00671196,0,
00:09.7,0.002483368,0.000806808,0.006706238,0,
00:09.7,0.002529144,0.000795364,0.006700516,0,
00:09.7,0.00246048,0.00078392,0.00668335,0,
00:09.7,0.002426147,0.000789642,0.006734848,0,
00:09.7,0.002443314,0.00078392,0.006717682,0,
00:09.7,0.002437592,0.000772476,0.006723404,0,
00:09.7,0.002471924,0.000766754,0.006700516,0,
00:09.7,0.002449036,0.00078392,0.006666183,0,
00:09.7,0.002466202,0.000806808,0.00674057,0,
00:09.7,0.002466202,0.000801086,0.006752014,0,
00:09.7,0.00246048,0.000778198,0.006723404,0,
00:09.7,0.002454758,0.000795364,0.00671196,0,
00:09.7,0.002443314,0.000789642,0.006717682,0,
00:09.7,0.002449036,0.00078392,0.006706238,0,
00:09.7,0.002449036,0.00078392,0.006671906,0,
00:09.7,0.002471924,0.000789642,0.006752014,0,
00:09.7,0.002466202,0.000778198,0.006746292,0,
00:09.8,0.002454758,0.000795364,0.006729126,0,
00:09.8,0.002443314,0.000795364,0.006723404,0,
00:09.8,0.002454758,0.000789642,0.006706238,0,
00:09.8,0.002471924,0.00078392,0.006706238,0,
00:09.8,0.00246048,0.00078392,0.006717682,0,
00:09.8,0.002443314,0.000789642,0.006706238,0,
00:09.8,0.002449036,0.00078392,0.006700516,0,
00:09.8,0.002471924,0.000772476,0.006723404,0,
00:09.8,0.002443314,0.000778198,0.00674057,0,
00:09.8,0.002426147,0.000778198,0.006734848,0,
00:09.8,0.002454758,0.000789642,0.006746292,0,
00:09.8,0.002449036,0.000778198,0.006729126,0,
00:09.8,0.002449036,0.000778198,0.006723404,0,
00:09.8,0.002454758,0.000778198,0.006717682,0,
00:09.8,0.002449036,0.000766754,0.006723404,0,
00:09.8,0.002466202,0.00078392,0.006660461,0,
00:09.8,0.002449036,0.000795364,0.006700516,0,
00:09.8,0.002443314,0.000789642,0.006763458,0,
00:09.8,0.002449036,0.000789642,0.006706238,0,
00:09.8,0.00246048,0.000789642,0.006729126,0,
00:09.8,0.002449036,0.000778198,0.00676918,0,
00:09.8,0.002449036,0.000778198,0.00674057,0,
00:09.8,0.002454758,0.000778198,0.006723404,0,
00:09.8,0.002449036,0.00078392,0.00671196,0,
00:09.8,0.002466202,0.000772476,0.00671196,0,
00:09.9,0.00246048,0.000778198,0.006689072,0,
00:09.9,0.002414703,0.000795364,0.006734848,0,
00:09.9,0.00243187,0.00078392,0.006763458,0,
00:09.9,0.002466202,0.00078392,0.00674057,0,
00:09.9,0.002454758,0.000778198,0.006734848,0,
00:09.9,0.002454758,0.000778198,0.006729126,0,
00:09.9,0.002443314,0.000766754,0.006729126,0,
00:09.9,0.002414703,0.000732422,0.006700516,0,
00:09.9,0.002449036,0.000812531,0.006723404,0,
00:09.9,0.002477646,0.000818253,0.006746292,0,
00:09.9,0.002449036,0.000789642,0.006723404,0,
00:09.9,0.002443314,0.000778198,0.00674057,0,
00:09.9,0.00246048,0.000772476,0.00671196,0,
00:09.9,0.002454758,0.00078392,0.006694794,0,
00:09.9,0.002426147,0.00078392,0.006757736,0,
00:09.9,0.002437592,0.000778198,0.006752014,0,
00:09.9,0.002454758,0.000778198,0.00671196,0,
00:09.9,0.002449036,0.0007267,0.006666183,0,
00:09.9,0.002443314,0.000801086,0.006752014,0,
00:09.9,0.002454758,0.000801086,0.006780624,0,
00:09.9,0.002454758,0.000801086,0.006752014,0,
00:09.9,0.002449036,0.000778198,0.006734848,0,
00:09.9,0.002454758,0.000778198,0.006729126,0,
00:09.9,0.002449036,0.000772476,0.00674057,0,
00:09.9,0.002449036,0.000766754,0.006729126,0,
00:10.0,0.002437592,0.00075531,0.006723404,0,
00:10.0,0.002443314,0.000743866,0.006706238,0,
00:10.0,0.002449036,0.000761032,0.006729126,0,
00:10.0,0.002466202,0.000829697,0.00674057,0,
00:10.0,0.002454758,0.00078392,0.006763458,0,
00:10.0,0.002449036,0.000778198,0.006757736,0,
00:10.0,0.002466202,0.000778198,0.00674057,0,
00:10.0,0.00243187,0.000772476,0.006734848,0,
00:10.0,0.002443314,0.000766754,0.006734848,0,
00:10.0,0.002454758,0.000778198,0.006729126,0,
00:10.0,0.002466202,0.000766754,0.006729126,0,
00:10.0,0.002466202,0.000778198,0.006654739,0,
00:00:10,0.002403259,0.000778198,0.006671906,0,
00:10.0,0.002449036,0.000778198,0.00676918,0,
00:10.0,0.00246048,0.000801086,0.006809235,0,
00:10.0,0.00246048,0.000778198,0.006786346,0,
00:10.0,0.002454758,0.000772476,0.00676918,0,
00:10.0,0.002449036,0.000766754,0.006757736,0,
00:10.0,0.002449036,0.000778198,0.006757736,0,
00:10.0,0.002437592,0.00075531,0.006757736,0,
00:10.0,0.002449036,0.0007267,0.006752014,0,
00:10.0,0.002454758,0.000812531,0.006752014,0,
00:10.0,0.002449036,0.000823975,0.006746292,0,
00:10.0,0.002437592,0.000789642,0.006746292,0,
00:10.0,0.002443314,0.000772476,0.006746292,0,
00:10.1,0.002443314,0.00078392,0.006746292,0,
00:10.1,0.00246048,0.000761032,0.006746292,0,
00:10.1,0.002466202,0.000761032,0.006746292,0,
00:10.1,0.002449036,0.000772476,0.006734848,0,
00:10.1,0.002443314,0.000789642,0.006752014,0,
00:10.1,0.002466202,0.000795364,0.006723404,0,
00:10.1,0.002471924,0.00078392,0.006666183,0,
00:10.1,0.002420425,0.000778198,0.006700516,0,
00:10.1,0.00243187,0.000778198,0.006814957,0,
00:10.1,0.002454758,0.000772476,0.006803513,0,
00:10.1,0.002454758,0.000766754,0.006774902,0,
00:10.1,0.002454758,0.000772476,0.006734848,0,
00:10.1,0.002454758,0.000795364,0.00674057,0,
00:10.1,0.002466202,0.000766754,0.006752014,0,
00:10.1,0.002454758,0.000772476,0.00674057,0,
00:10.1,0.002437592,0.000789642,0.006757736,0,
00:10.1,0.002466202,0.000772476,0.006729126,0,
00:10.1,0.002449036,0.000772476,0.006734848,0,
00:10.1,0.002454758,0.000778198,0.006786346,0,
00:10.1,0.002454758,0.000772476,0.00676918,0,
00:10.1,0.002449036,0.000766754,0.006752014,0,
00:10.1,0.00246048,0.000778198,0.006763458,0,
00:10.1,0.002477646,0.000778198,0.00674057,0,
00:10.1,0.00246048,0.000772476,0.006734848,0,
00:10.1,0.00243187,0.000766754,0.006757736,0,
00:10.2,0.002420425,0.000778198,0.006734848,0,
00:10.2,0.002449036,0.00078392,0.006763458,0,
00:10.2,0.002466202,0.000766754,0.00676918,0,
00:10.2,0.002437592,0.000766754,0.00674057,0,
00:10.2,0.002414703,0.00078392,0.00671196,0,
00:10.2,0.002437592,0.000778198,0.006774902,0,
00:10.2,0.002466202,0.000778198,0.006774902,0,
00:10.2,0.002466202,0.000778198,0.006774902,0,
00:10.2,0.002449036,0.000778198,0.00676918,0,
00:10.2,0.002454758,0.000772476,0.006757736,0,
00:10.2,0.002454758,0.000766754,0.006763458,0,
00:10.2,0.002449036,0.000761032,0.00676918,0,
00:10.2,0.00246048,0.000772476,0.00676918,0,
00:10.2,0.002466202,0.000766754,0.006752014,0,
00:10.2,0.002449036,0.000766754,0.006752014,0,
00:10.2,0.002443314,0.000761032,0.006706238,0,
00:10.2,0.00246048,0.000761032,0.006654739,0,
00:10.2,0.002454758,0.00075531,0.006803513,0,
00:10.2,0.002437592,0.000766754,0.006843567,0,
00:10.2,0.002466202,0.000795364,0.006803513,0,
00:10.2,0.002454758,0.000778198,0.006786346,0,
00:10.2,0.00246048,0.000766754,0.00676918,0,
00:10.2,0.002454758,0.000766754,0.006763458,0,
00:10.2,0.002443314,0.000772476,0.006763458,0,
00:10.2,0.002449036,0.000778198,0.006763458,0,
00:10.3,0.002454758,0.000761032,0.006734848,0,
00:10.3,0.002449036,0.000778198,0.006717682,0,
00:10.3,0.00246048,0.000795364,0.006780624,0,
00:10.3,0.002454758,0.000766754,0.006780624,0,
00:10.3,0.00246048,0.000761032,0.006780624,0,
00:10.3,0.002443314,0.000772476,0.006774902,0,
00:10.3,0.002471924,0.000766754,0.006763458,0,
00:10.3,0.002454758,0.000761032,0.00676918,0,
00:10.3,0.002454758,0.000766754,0.006752014,0,
00:10.3,0.002437592,0.000761032,0.006797791,0,
00:10.3,0.002454758,0.000766754,0.006797791,0,
00:10.3,0.002449036,0.00075531,0.00676918,0,
