Elapsed_Time,EMG1,EMG2,EMG3,BioRadio Event,Unnamed: 5
00:00:00,0.001871109,0.001562119,0.003181458,0,
00:00.0,0.001876831,0.001562119,0.003175735,0,
00:00.0,0.001893997,0.001562119,0.003170013,0,
00:00.0,0.001876831,0.001562119,0.003181458,0,
00:00.0,0.001888275,0.001567841,0.003181458,0,
00:00.0,0.001893997,0.001573563,0.003175735,0,
00:00.0,0.001893997,0.001573563,0.003170013,0,
00:00.0,0.001876831,0.001562119,0.003164291,0,
00:00.0,0.001871109,0.001562119,0.003170013,0,
00:00.0,0.001876831,0.001562119,0.003175735,0,
00:00.0,0.001888275,0.001579285,0.003170013,0,
00:00.0,0.001882553,0.001567841,0.003170013,0,
00:00.0,0.001882553,0.001562119,0.003164291,0,
00:00.1,0.001899719,0.001579285,0.003164291,0,
00:00.1,0.001899719,0.001579285,0.003164291,0,
00:00.1,0.001882553,0.001573563,0.003170013,0,
00:00.1,0.001893997,0.001567841,0.003170013,0,
00:00.1,0.001882553,0.001556396,0.003164291,0,
00:00.1,0.001871109,0.001567841,0.003170013,0,
00:00.1,0.001882553,0.001573563,0.003170013,0,
00:00.1,0.001888275,0.001579285,0.003170013,0,
00:00.1,0.001888275,0.001585007,0.003170013,0,
00:00.1,0.001882553,0.001573563,0.003164291,0,
00:00.1,0.001888275,0.001567841,0.003170013,0,
00:00.1,0.001882553,0.001567841,0.003170013,0,
00:00.1,0.001893997,0.001579285,0.003170013,0,
00:00.1,0.001905441,0.001585007,0.003158569,0,
00:00.1,0.001888275,0.001579285,0.003158569,0,
00:00.1,0.001893997,0.001573563,0.003164291,0,
00:00.1,0.001893997,0.001573563,0.003170013,0,
00:00.1,0.001876831,0.001579285,0.003170013,0,
00:00.1,0.001882553,0.001573563,0.003164291,0,
00:00.1,0.001882553,0.001573563,0.003164291,0,
00:00.1,0.001882553,0.001573563,0.003170013,0,
00:00.1,0.001893997,0.001585007,0.003170013,0,
00:00.1,0.001882553,0.001585007,0.003170013,0,
00:00.1,0.001888275,0.001585007,0.003164291,0,
00:00.1,0.001888275,0.001585007,0.003164291,0,
00:00.2,0.001899719,0.001596451,0.003164291,0,
00:00.2,0.001905441,0.001596451,0.003158569,0,
00:00.2,0.001865387,0.001579285,0.003158569,0,
00:00.2,0.001888275,0.001579285,0.003164291,0,
00:00.2,0.001876831,0.001585007,0.003164291,0,
00:00.2,0.001882553,0.001596451,0.003164291,0,
00:00.2,0.001882553,0.001596451,0.003164291,0,
00:00.2,0.001893997,0.001596451,0.003158569,0,
00:00.2,0.001899719,0.001607895,0.003158569,0,
00:00.2,0.001888275,0.001607895,0.003152847,0,
00:00.2,0.001905441,0.001602173,0.003147125,0,
00:00.2,0.001893997,0.001590729,0.003135681,0,
00:00.2,0.001871109,0.001596451,0.003158569,0,
00:00.2,0.001882553,0.001596451,0.003158569,0,
00:00.2,0.001899719,0.001596451,0.003152847,0,
00:00.2,0.001876831,0.001596451,0.003152847,0,
00:00.2,0.001882553,0.001596451,0.003158569,0,
00:00.2,0.001882553,0.001596451,0.003152847,0,
00:00.2,0.001882553,0.001602173,0.003152847,0,
00:00.2,0.001888275,0.001602173,0.003147125,0,
00:00.2,0.001893997,0.001607895,0.003147125,0,
00:00.2,0.001893997,0.001613617,0.003141403,0,
00:00.2,0.001911163,0.001625061,0.003141403,0,
00:00.2,0.001888275,0.001613617,0.003141403,0,
00:00.2,0.001882553,0.001613617,0.003147125,0,
00:00.3,0.001882553,0.001607895,0.003147125,0,
00:00.3,0.001876831,0.001590729,0.003147125,0,
00:00.3,0.001888275,0.001602173,0.003141403,0,
00:00.3,0.001882553,0.001607895,0.003147125,0,
00:00.3,0.001888275,0.001607895,0.003141403,0,
00:00.3,0.001888275,0.001613617,0.003141403,0,
00:00.3,0.001893997,0.001619339,0.003147125,0,
00:00.3,0.001899719,0.001619339,0.003141403,0,
00:00.3,0.001905441,0.001619339,0.003135681,0,
00:00.3,0.001888275,0.001613617,0.003141403,0,
00:00.3,0.001888275,0.001619339,0.003147125,0,
00:00.3,0.001893997,0.001613617,0.003147125,0,
00:00.3,0.001882553,0.001613617,0.003141403,0,
00:00.3,0.001893997,0.001613617,0.003141403,0,
00:00.3,0.001916885,0.001625061,0.003135681,0,
00:00.3,0.001882553,0.001625061,0.003135681,0,
00:00.3,0.001876831,0.001613617,0.003135681,0,
00:00.3,0.001888275,0.001613617,0.003141403,0,
00:00.3,0.001888275,0.001619339,0.003141403,0,
00:00.3,0.001905441,0.001625061,0.003135681,0,
00:00.3,0.001882553,0.001619339,0.003141403,0,
00:00.3,0.001882553,0.001619339,0.003135681,0,
00:00.3,0.001888275,0.001619339,0.003135681,0,
00:00.3,0.001888275,0.001619339,0.003129959,0,
00:00.3,0.001888275,0.001613617,0.003135681,0,
00:00.4,0.001888275,0.001619339,0.003135681,0,
00:00.4,0.001893997,0.001625061,0.003129959,0,
00:00.4,0.001916885,0.001630783,0.003124237,0,
00:00.4,0.001882553,0.001619339,0.003129959,0,
00:00.4,0.001888275,0.001619339,0.003129959,0,
00:00.4,0.001893997,0.001636505,0.003129959,0,
00:00.4,0.001905441,0.001630783,0.003129959,0,
00:00.4,0.001888275,0.001625061,0.003124237,0,
00:00.4,0.001888275,0.001619339,0.003118515,0,
00:00.4,0.001893997,0.001619339,0.003124237,0,
00:00.4,0.001893997,0.001630783,0.003129959,0,
00:00.4,0.001899719,0.001630783,0.003129959,0,
00:00.4,0.001905441,0.001636505,0.003118515,0,
00:00.4,0.001916885,0.001636505,0.003112793,0,
00:00.4,0.001893997,0.001625061,0.003124237,0,
00:00.4,0.001865387,0.001619339,0.003129959,0,
00:00.4,0.001882553,0.001625061,0.003124237,0,
00:00.4,0.001893997,0.001630783,0.003124237,0,
00:00.4,0.001888275,0.001625061,0.003124237,0,
00:00.4,0.001893997,0.001625061,0.003124237,0,
00:00.4,0.001905441,0.001636505,0.003124237,0,
00:00.4,0.001916885,0.001642227,0.003112793,0,
00:00.4,0.001888275,0.001636505,0.003112793,0,
00:00.4,0.001893997,0.001630783,0.003124237,0,
00:00.4,0.001899719,0.001636505,0.003124237,0,
00:00.5,0.001893997,0.001625061,0.003118515,0,
00:00.5,0.001899719,0.001630783,0.003107071,0,
00:00.5,0.001905441,0.001636505,0.003112793,0,
00:00.5,0.001905441,0.001630783,0.003118515,0,
00:00.5,0.001899719,0.001630783,0.003112793,0,
00:00.5,0.001905441,0.001642227,0.003118515,0,
00:00.5,0.001911163,0.001642227,0.003112793,0,
00:00.5,0.001899719,0.001630783,0.003107071,0,
00:00.5,0.001916885,0.001642227,0.003107071,0,
00:00.5,0.001916885,0.001642227,0.003112793,0,
00:00.5,0.001911163,0.001642227,0.003112793,0,
00:00.5,0.001893997,0.001630783,0.003101349,0,
00:00.5,0.001876831,0.001619339,0.003112793,0,
00:00.5,0.001899719,0.001636505,0.003118515,0,
00:00.5,0.001911163,0.001642227,0.003112793,0,
00:00.5,0.001911163,0.001642227,0.003112793,0,
00:00.5,0.001888275,0.001642227,0.003112793,0,
00:00.5,0.001905441,0.001647949,0.003112793,0,
00:00.5,0.001911163,0.001642227,0.003107071,0,
00:00.5,0.001916885,0.001647949,0.003101349,0,
00:00.5,0.001893997,0.001642227,0.003112793,0,
00:00.5,0.001899719,0.001636505,0.003118515,0,
00:00.5,0.001905441,0.001642227,0.003112793,0,
00:00.5,0.001905441,0.001642227,0.003107071,0,
00:00.5,0.001905441,0.001642227,0.003112793,0,
00:00.6,0.001905441,0.001653671,0.003112793,0,
00:00.6,0.001905441,0.001647949,0.003112793,0,
00:00.6,0.001916885,0.001653671,0.003107071,0,
00:00.6,0.001928329,0.001659393,0.003095627,0,
00:00.6,0.001922607,0.001653671,0.003089905,0,
00:00.6,0.001888275,0.001642227,0.003101349,0,
00:00.6,0.001905441,0.001647949,0.003107071,0,
00:00.6,0.001911163,0.001636505,0.003107071,0,
00:00.6,0.001899719,0.001642227,0.003101349,0,
00:00.6,0.001905441,0.001642227,0.003101349,0,
00:00.6,0.001905441,0.001642227,0.003095627,0,
00:00.6,0.001911163,0.001647949,0.003101349,0,
00:00.6,0.001916885,0.001647949,0.003101349,0,
00:00.6,0.001916885,0.001653671,0.003101349,0,
00:00.6,0.001922607,0.001647949,0.003089905,0,
00:00.6,0.001916885,0.001642227,0.003095627,0,
00:00.6,0.001911163,0.001642227,0.003095627,0,
00:00.6,0.001899719,0.001647949,0.003095627,0,
00:00.6,0.001911163,0.001653671,0.003095627,0,
00:00.6,0.001922607,0.001659393,0.003089905,0,
00:00.6,0.001911163,0.001642227,0.003084183,0,
00:00.6,0.001893997,0.001636505,0.003089905,0,
00:00.6,0.001888275,0.001642227,0.003089905,0,
00:00.6,0.001905441,0.001647949,0.003089905,0,
00:00.6,0.001916885,0.001647949,0.003089905,0,
00:00.7,0.001916885,0.001647949,0.003089905,0,
00:00.7,0.001911163,0.001653671,0.003084183,0,
00:00.7,0.001905441,0.001642227,0.003078461,0,
00:00.7,0.001911163,0.001642227,0.003084183,0,
00:00.7,0.001911163,0.001642227,0.003084183,0,
00:00.7,0.001922607,0.001653671,0.003084183,0,
00:00.7,0.001911163,0.001653671,0.003084183,0,
00:00.7,0.001905441,0.001653671,0.003078461,0,
00:00.7,0.001911163,0.001647949,0.003078461,0,
00:00.7,0.001922607,0.001642227,0.003078461,0,
00:00.7,0.001911163,0.001647949,0.003078461,0,
00:00.7,0.001911163,0.001647949,0.003084183,0,
00:00.7,0.001905441,0.001642227,0.003084183,0,
00:00.7,0.001905441,0.001642227,0.003078461,0,
00:00.7,0.001911163,0.001642227,0.003078461,0,
00:00.7,0.001911163,0.001642227,0.003078461,0,
00:00.7,0.001905441,0.001647949,0.003078461,0,
00:00.7,0.001905441,0.001647949,0.003072739,0,
00:00.7,0.001916885,0.001653671,0.003072739,0,
00:00.7,0.001922607,0.001647949,0.003078461,0,
00:00.7,0.001916885,0.001642227,0.003061295,0,
00:00.7,0.001916885,0.001642227,0.003078461,0,
00:00.7,0.001888275,0.001636505,0.003089905,0,
00:00.7,0.001893997,0.001636505,0.003078461,0,
00:00.7,0.001905441,0.001647949,0.003078461,0,
00:00.8,0.001905441,0.001642227,0.003072739,0,
00:00.8,0.001922607,0.001653671,0.003072739,0,
00:00.8,0.001928329,0.001653671,0.003072739,0,
00:00.8,0.001899719,0.001642227,0.003072739,0,
00:00.8,0.001905441,0.001636505,0.003072739,0,
00:00.8,0.001922607,0.001642227,0.003067017,0,
00:00.8,0.001899719,0.001636505,0.003067017,0,
00:00.8,0.001905441,0.001642227,0.003072739,0,
00:00.8,0.001899719,0.001642227,0.003072739,0,
00:00.8,0.001905441,0.001642227,0.003072739,0,
00:00.8,0.001922607,0.001653671,0.003072739,0,
00:00.8,0.001928329,0.001659393,0.003067017,0,
00:00.8,0.001899719,0.001636505,0.003061295,0,
00:00.8,0.001905441,0.001642227,0.003061295,0,
00:00.8,0.001916885,0.001653671,0.003067017,0,
00:00.8,0.001911163,0.001647949,0.003067017,0,
00:00.8,0.001911163,0.001642227,0.003067017,0,
00:00.8,0.001928329,0.001647949,0.003067017,0,
00:00.8,0.001899719,0.001647949,0.003072739,0,
00:00.8,0.001905441,0.001647949,0.003072739,0,
00:00.8,0.001905441,0.001647949,0.003067017,0,
00:00.8,0.001905441,0.001647949,0.003067017,0,
00:00.8,0.001928329,0.001653671,0.003067017,0,
00:00.8,0.001911163,0.001647949,0.003067017,0,
00:00.8,0.001916885,0.001653671,0.003072739,0,
00:00.9,0.001911163,0.001653671,0.003078461,0,
00:00.9,0.001899719,0.001642227,0.003072739,0,
00:00.9,0.001911163,0.001647949,0.003067017,0,
00:00.9,0.001911163,0.001653671,0.003067017,0,
00:00.9,0.001922607,0.001665115,0.003061295,0,
00:00.9,0.001905441,0.001653671,0.003061295,0,
00:00.9,0.001905441,0.001642227,0.003061295,0,
00:00.9,0.001911163,0.001647949,0.003061295,0,
00:00.9,0.001911163,0.001647949,0.003061295,0,
00:00.9,0.001916885,0.001653671,0.003061295,0,
00:00.9,0.001905441,0.001653671,0.003055573,0,
00:00.9,0.001899719,0.001653671,0.003061295,0,
00:00.9,0.001905441,0.001647949,0.003067017,0,
00:00.9,0.001905441,0.001642227,0.003061295,0,
00:00.9,0.001911163,0.001647949,0.00304985,0,
00:00.9,0.001939774,0.001665115,0.003055573,0,
00:00.9,0.001911163,0.001670837,0.003061295,0,
00:00.9,0.001905441,0.001647949,0.003055573,0,
00:00.9,0.001899719,0.001647949,0.00304985,0,
00:00.9,0.001882553,0.001659393,0.003055573,0,
00:00.9,0.001893997,0.001653671,0.003061295,0,
00:00.9,0.001916885,0.001659393,0.003055573,0,
00:00.9,0.001916885,0.001659393,0.00304985,0,
00:00.9,0.001911163,0.001659393,0.003044128,0,
00:00.9,0.001905441,0.001653671,0.00304985,0,
00:01.0,0.001905441,0.001659393,0.003055573,0,
00:01.0,0.001911163,0.001659393,0.003055573,0,
00:01.0,0.001911163,0.001659393,0.00304985,0,
00:01.0,0.001916885,0.001665115,0.003044128,0,
00:01.0,0.001905441,0.001653671,0.00304985,0,
00:01.0,0.001905441,0.001647949,0.003044128,0,
00:01.0,0.001899719,0.001653671,0.003044128,0,
00:01.0,0.001905441,0.001653671,0.003038406,0,
00:01.0,0.001905441,0.001659393,0.003038406,0,
00:01.0,0.001922607,0.001653671,0.003032684,0,
00:01.0,0.001893997,0.001636505,0.003038406,0,
00:01.0,0.001893997,0.001642227,0.003038406,0,
00:00:01,0.001899719,0.001647949,0.003038406,0,
00:01.0,0.001905441,0.001647949,0.003032684,0,
00:01.0,0.001905441,0.001653671,0.003026962,0,
00:01.0,0.001905441,0.001659393,0.003032684,0,
00:01.0,0.001905441,0.001647949,0.003026962,0,
00:01.0,0.001899719,0.001636505,0.003026962,0,
00:01.0,0.001905441,0.001642227,0.003026962,0,
00:01.0,0.001899719,0.001647949,0.003032684,0,
00:01.0,0.001905441,0.001647949,0.003032684,0,
00:01.0,0.001905441,0.001647949,0.003026962,0,
00:01.0,0.001916885,0.001659393,0.003015518,0,
00:01.0,0.001916885,0.001659393,0.003015518,0,
00:01.0,0.001911163,0.001653671,0.003026962,0,
00:01.1,0.001899719,0.001653671,0.00302124,0,
00:01.1,0.001893997,0.001647949,0.00302124,0,
00:01.1,0.001888275,0.001642227,0.003026962,0,
00:01.1,0.001905441,0.001642227,0.00302124,0,
00:01.1,0.001888275,0.001647949,0.003026962,0,
00:01.1,0.001899719,0.001642227,0.003026962,0,
00:01.1,0.001922607,0.001659393,0.003015518,0,
00:01.1,0.001905441,0.001653671,0.003009796,0,
00:01.1,0.001893997,0.001642227,0.003032684,0,
00:01.1,0.001905441,0.001647949,0.003026962,0,
00:01.1,0.001899719,0.001642227,0.00302124,0,
00:01.1,0.001899719,0.001642227,0.003026962,0,
00:01.1,0.001899719,0.001647949,0.00302124,0,
00:01.1,0.001899719,0.001642227,0.003015518,0,
00:01.1,0.001899719,0.001642227,0.003015518,0,
00:01.1,0.001893997,0.001642227,0.00302124,0,
00:01.1,0.001893997,0.001642227,0.00302124,0,
00:01.1,0.001905441,0.001647949,0.003015518,0,
00:01.1,0.001905441,0.001653671,0.003009796,0,
00:01.1,0.001888275,0.001636505,0.00302124,0,
00:01.1,0.001888275,0.001642227,0.00302124,0,
00:01.1,0.001893997,0.001642227,0.003015518,0,
00:01.1,0.001893997,0.001642227,0.00302124,0,
00:01.1,0.001893997,0.001642227,0.003015518,0,
00:01.1,0.001905441,0.001642227,0.003015518,0,
00:01.2,0.001905441,0.001647949,0.003015518,0,
00:01.2,0.001916885,0.001647949,0.003004074,0,
00:01.2,0.001899719,0.001642227,0.003009796,0,
00:01.2,0.001888275,0.001636505,0.003015518,0,
00:01.2,0.001893997,0.001636505,0.003015518,0,
00:01.2,0.001882553,0.001642227,0.003015518,0,
00:01.2,0.001899719,0.001653671,0.003009796,0,
00:01.2,0.001905441,0.001647949,0.003004074,0,
00:01.2,0.001893997,0.001642227,0.003004074,0,
00:01.2,0.001899719,0.001642227,0.00302124,0,
00:01.2,0.001899719,0.001642227,0.003015518,0,
00:01.2,0.001882553,0.001630783,0.003009796,0,
00:01.2,0.001899719,0.001642227,0.003009796,0,
00:01.2,0.001899719,0.001642227,0.003015518,0,
00:01.2,0.001888275,0.001636505,0.003009796,0,
00:01.2,0.001899719,0.001647949,0.003009796,0,
00:01.2,0.001893997,0.001636505,0.003009796,0,
00:01.2,0.001882553,0.001636505,0.003009796,0,
00:01.2,0.001899719,0.001642227,0.003009796,0,
00:01.2,0.001893997,0.001642227,0.003009796,0,
00:01.2,0.001893997,0.001647949,0.003004074,0,
00:01.2,0.001893997,0.001642227,0.002998352,0,
00:01.2,0.001888275,0.001642227,0.003009796,0,
00:01.2,0.001905441,0.001642227,0.003009796,0,
00:01.2,0.001893997,0.001636505,0.003009796,0,
00:01.3,0.001876831,0.001636505,0.003004074,0,
00:01.3,0.001882553,0.001636505,0.003009796,0,
00:01.3,0.001899719,0.001653671,0.003004074,0,
00:01.3,0.001893997,0.001642227,0.003004074,0,
00:01.3,0.001882553,0.001630783,0.003004074,0,
00:01.3,0.001882553,0.001636505,0.003004074,0,
00:01.3,0.001899719,0.001636505,0.002998352,0,
00:01.3,0.001899719,0.001636505,0.002998352,0,
00:01.3,0.001876831,0.001630783,0.003004074,0,
00:01.3,0.001888275,0.001642227,0.003004074,0,
00:01.3,0.001893997,0.001642227,0.003004074,0,
00:01.3,0.001893997,0.001636505,0.003004074,0,
00:01.3,0.001888275,0.001636505,0.002998352,0,
00:01.3,0.001888275,0.001630783,0.003009796,0,
00:01.3,0.001899719,0.001636505,0.003009796,0,
00:01.3,0.001882553,0.001630783,0.003004074,0,
00:01.3,0.001876831,0.001630783,0.003004074,0,
00:01.3,0.001888275,0.001636505,0.003004074,0,
00:01.3,0.001888275,0.001636505,0.002998352,0,
00:01.3,0.001888275,0.001636505,0.003004074,0,
00:01.3,0.001893997,0.001636505,0.003009796,0,
00:01.3,0.001876831,0.001636505,0.003009796,0,
00:01.3,0.001888275,0.001642227,0.003009796,0,
00:01.3,0.001905441,0.001636505,0.003009796,0,
00:01.3,0.001888275,0.001642227,0.003009796,0,
00:01.4,0.001876831,0.001636505,0.003009796,0,
00:01.4,0.001882553,0.001625061,0.003009796,0,
00:01.4,0.001888275,0.001630783,0.003004074,0,
00:01.4,0.001882553,0.001636505,0.003004074,0,
00:01.4,0.001893997,0.001642227,0.003004074,0,
00:01.4,0.001888275,0.001636505,0.003004074,0,
00:01.4,0.001871109,0.001625061,0.003009796,0,
00:01.4,0.001876831,0.001625061,0.003009796,0,
00:01.4,0.001899719,0.001630783,0.003004074,0,
00:01.4,0.001905441,0.001630783,0.002998352,0,
00:01.4,0.001865387,0.001619339,0.003015518,0,
00:01.4,0.001871109,0.001630783,0.003026962,0,
00:01.4,0.001876831,0.001636505,0.003015518,0,
00:01.4,0.001888275,0.001636505,0.003015518,0,
00:01.4,0.001893997,0.001636505,0.003015518,0,
00:01.4,0.001893997,0.001625061,0.003015518,0,
00:01.4,0.001876831,0.001625061,0.00302124,0,
00:01.4,0.001865387,0.001625061,0.003015518,0,
00:01.4,0.001876831,0.001630783,0.003015518,0,
00:01.4,0.001888275,0.001636505,0.00302124,0,
00:01.4,0.001871109,0.001625061,0.00302124,0,
00:01.4,0.001876831,0.001630783,0.00302124,0,
00:01.4,0.001882553,0.001630783,0.00302124,0,
00:01.4,0.001882553,0.001630783,0.003015518,0,
00:01.4,0.001876831,0.001630783,0.003009796,0,
00:01.5,0.001871109,0.001613617,0.00302124,0,
00:01.5,0.001876831,0.001625061,0.00302124,0,
00:01.5,0.001871109,0.001630783,0.003015518,0,
00:01.5,0.001882553,0.001630783,0.003015518,0,
00:01.5,0.001905441,0.001630783,0.003009796,0,
00:01.5,0.001876831,0.001625061,0.003015518,0,
00:01.5,0.001859665,0.001619339,0.00302124,0,
00:01.5,0.001871109,0.001625061,0.003032684,0,
00:01.5,0.001888275,0.001636505,0.00302124,0,
00:01.5,0.001876831,0.001630783,0.003015518,0,
00:01.5,0.001882553,0.001636505,0.00302124,0,
00:01.5,0.001871109,0.001625061,0.003026962,0,
00:01.5,0.001882553,0.001625061,0.003026962,0,
00:01.5,0.001876831,0.001619339,0.003015518,0,
00:01.5,0.001859665,0.001619339,0.00302124,0,
00:01.5,0.001865387,0.001619339,0.003032684,0,
00:01.5,0.001882553,0.001619339,0.00302124,0,
00:01.5,0.001876831,0.001625061,0.00302124,0,
00:01.5,0.001865387,0.001630783,0.003026962,0,
00:01.5,0.001865387,0.001619339,0.00302124,0,
00:01.5,0.001859665,0.001613617,0.00302124,0,
00:01.5,0.001865387,0.001613617,0.00302124,0,
00:01.5,0.001871109,0.001619339,0.003015518,0,
00:01.5,0.001876831,0.001625061,0.003015518,0,
00:01.5,0.001876831,0.001619339,0.00302124,0,
00:01.6,0.001853943,0.001625061,0.00302124,0,
00:01.6,0.001876831,0.001619339,0.00302124,0,
00:01.6,0.001871109,0.001619339,0.00302124,0,
00:01.6,0.001865387,0.001613617,0.00302124,0,
00:01.6,0.001871109,0.001613617,0.003015518,0,
00:01.6,0.001865387,0.001625061,0.00302124,0,
00:01.6,0.001853943,0.001613617,0.003026962,0,
00:01.6,0.001859665,0.001619339,0.00302124,0,
00:01.6,0.001859665,0.001625061,0.003015518,0,
00:01.6,0.001859665,0.001607895,0.003009796,0,
00:01.6,0.001865387,0.001613617,0.003026962,0,
00:01.6,0.001853943,0.001619339,0.00302124,0,
00:01.6,0.001865387,0.001619339,0.00302124,0,
00:01.6,0.001865387,0.001619339,0.003015518,0,
00:01.6,0.001848221,0.001613617,0.00302124,0,
00:01.6,0.001853943,0.001613617,0.003026962,0,
00:01.6,0.001859665,0.001607895,0.003026962,0,
00:01.6,0.001871109,0.001613617,0.003015518,0,
00:01.6,0.001876831,0.001619339,0.003009796,0,
00:01.6,0.001859665,0.001613617,0.003026962,0,
00:01.6,0.001853943,0.001613617,0.003026962,0,
00:01.6,0.001842499,0.001613617,0.003032684,0,
00:01.6,0.001853943,0.001607895,0.003026962,0,
00:01.6,0.001848221,0.001607895,0.003026962,0,
00:01.6,0.001853943,0.001607895,0.00302124,0,
00:01.7,0.001848221,0.001619339,0.00302124,0,
00:01.7,0.001865387,0.001613617,0.003032684,0,
00:01.7,0.001859665,0.001607895,0.00302124,0,
00:01.7,0.001853943,0.001602173,0.00302124,0,
00:01.7,0.001842499,0.001607895,0.003026962,0,
00:01.7,0.001836777,0.001607895,0.003032684,0,
00:01.7,0.001853943,0.001613617,0.003026962,0,
00:01.7,0.001848221,0.001613617,0.00302124,0,
00:01.7,0.001848221,0.001607895,0.003026962,0,
00:01.7,0.001859665,0.001607895,0.003026962,0,
00:01.7,0.001848221,0.001607895,0.003032684,0,
00:01.7,0.001848221,0.001607895,0.003038406,0,
00:01.7,0.001853943,0.001613617,0.003026962,0,
00:01.7,0.001853943,0.001607895,0.003026962,0,
00:01.7,0.001871109,0.001607895,0.003026962,0,
00:01.7,0.001853943,0.001607895,0.003032684,0,
00:01.7,0.001836777,0.001602173,0.003044128,0,
00:01.7,0.001842499,0.001607895,0.003032684,0,
00:01.7,0.001848221,0.001602173,0.003032684,0,
00:01.7,0.001842499,0.001602173,0.003038406,0,
00:01.7,0.001871109,0.001613617,0.003032684,0,
00:01.7,0.001853943,0.001613617,0.003032684,0,
00:01.7,0.001819611,0.001590729,0.003044128,0,
00:01.7,0.001831055,0.001590729,0.003044128,0,
00:01.7,0.001853943,0.001596451,0.003044128,0,
00:01.8,0.001848221,0.001602173,0.003044128,0,
00:01.8,0.001842499,0.001602173,0.003038406,0,
00:01.8,0.001848221,0.001613617,0.003038406,0,
00:01.8,0.001853943,0.001607895,0.003038406,0,
00:01.8,0.001842499,0.001596451,0.003032684,0,
00:01.8,0.001842499,0.001590729,0.003044128,0,
00:01.8,0.001836777,0.001596451,0.003038406,0,
00:01.8,0.001842499,0.001596451,0.003038406,0,
00:01.8,0.001831055,0.001596451,0.003038406,0,
00:01.8,0.001831055,0.001590729,0.00304985,0,
00:01.8,0.001836777,0.001596451,0.003044128,0,
00:01.8,0.001853943,0.001607895,0.003044128,0,
00:01.8,0.001848221,0.001602173,0.003038406,0,
00:01.8,0.001848221,0.001596451,0.003038406,0,
00:01.8,0.001848221,0.001596451,0.00304985,0,
00:01.8,0.001831055,0.001585007,0.003044128,0,
00:01.8,0.001831055,0.001590729,0.003038406,0,
00:01.8,0.001831055,0.001585007,0.003038406,0,
00:01.8,0.001831055,0.001585007,0.003044128,0,
00:01.8,0.001842499,0.001596451,0.003044128,0,
00:01.8,0.001842499,0.001596451,0.003044128,0,
00:01.8,0.001836777,0.001596451,0.003038406,0,
00:01.8,0.001825333,0.001585007,0.003044128,0,
00:01.8,0.001848221,0.001590729,0.003044128,0,
00:01.8,0.001848221,0.001590729,0.003038406,0,
00:01.9,0.001836777,0.001585007,0.003044128,0,
00:01.9,0.001819611,0.001585007,0.003055573,0,
00:01.9,0.001819611,0.001579285,0.003055573,0,
00:01.9,0.001831055,0.001573563,0.00304985,0,
00:01.9,0.001836777,0.001585007,0.003055573,0,
00:01.9,0.001848221,0.001590729,0.003055573,0,
00:01.9,0.001825333,0.001590729,0.00304985,0,
00:01.9,0.001825333,0.001590729,0.00304985,0,
00:01.9,0.001825333,0.001585007,0.003055573,0,
00:01.9,0.001831055,0.001585007,0.00304985,0,
00:01.9,0.001831055,0.001590729,0.003055573,0,
00:01.9,0.001836777,0.001596451,0.00304985,0,
00:01.9,0.001831055,0.001590729,0.00304985,0,
00:01.9,0.001831055,0.001590729,0.003055573,0,
00:01.9,0.001831055,0.001590729,0.003055573,0,
00:01.9,0.001825333,0.001585007,0.00304985,0,
00:01.9,0.001831055,0.001579285,0.00304985,0,
00:01.9,0.001825333,0.001579285,0.00304985,0,
00:01.9,0.001836777,0.001585007,0.00304985,0,
00:01.9,0.001825333,0.001579285,0.00304985,0,
00:01.9,0.001825333,0.001585007,0.00304985,0,
00:01.9,0.001831055,0.001590729,0.003055573,0,
00:01.9,0.001825333,0.001585007,0.003055573,0,
00:01.9,0.001831055,0.001579285,0.003055573,0,
00:01.9,0.001825333,0.001579285,0.003055573,0,
00:02.0,0.001842499,0.001585007,0.00304985,0,
00:02.0,0.001831055,0.001585007,0.00304985,0,
00:02.0,0.001819611,0.001579285,0.00304985,0,
00:02.0,0.001825333,0.001573563,0.003061295,0,
00:02.0,0.001825333,0.001573563,0.003067017,0,
00:02.0,0.001819611,0.001579285,0.003061295,0,
00:02.0,0.001825333,0.001585007,0.003061295,0,
00:02.0,0.001831055,0.001585007,0.003055573,0,
00:02.0,0.001842499,0.001585007,0.00304985,0,
00:02.0,0.001819611,0.001579285,0.003055573,0,
00:02.0,0.001819611,0.001579285,0.003055573,0,
00:02.0,0.001831055,0.001585007,0.003061295,0,
00:00:02,0.001819611,0.001585007,0.003061295,0,
00:02.0,0.001819611,0.001579285,0.003055573,0,
00:02.0,0.001831055,0.001579285,0.003055573,0,
00:02.0,0.001831055,0.001579285,0.003061295,0,
00:02.0,0.001819611,0.001585007,0.003061295,0,
00:02.0,0.001836777,0.001602173,0.003055573,0,
00:02.0,0.001836777,0.001590729,0.003055573,0,
00:02.0,0.001808167,0.001573563,0.003061295,0,
00:02.0,0.001819611,0.001573563,0.003055573,0,
00:02.0,0.001819611,0.001573563,0.003067017,0,
00:02.0,0.001819611,0.001585007,0.003067017,0,
00:02.0,0.001825333,0.001585007,0.003055573,0,
00:02.0,0.001825333,0.001579285,0.003055573,0,
00:02.1,0.001825333,0.001585007,0.003061295,0,
00:02.1,0.001842499,0.001607895,0.003061295,0,
00:02.1,0.001836777,0.001579285,0.003044128,0,
00:02.1,0.001813889,0.001573563,0.003061295,0,
00:02.1,0.001819611,0.001579285,0.003067017,0,
00:02.1,0.001813889,0.001567841,0.003061295,0,
00:02.1,0.001813889,0.001573563,0.003067017,0,
00:02.1,0.001813889,0.001573563,0.003061295,0,
00:02.1,0.001813889,0.001573563,0.003061295,0,
00:02.1,0.001819611,0.001573563,0.003061295,0,
00:02.1,0.001819611,0.001579285,0.003061295,0,
00:02.1,0.001813889,0.001585007,0.003061295,0,
00:02.1,0.001825333,0.001585007,0.003055573,0,
00:02.1,0.001848221,0.001585007,0.003044128,0,
00:02.1,0.001859665,0.001596451,0.003055573,0,
00:02.1,0.001796722,0.001567841,0.00304985,0,
00:02.1,0.001796722,0.001562119,0.003067017,0,
00:02.1,0.001802444,0.001567841,0.003061295,0,
00:02.1,0.001813889,0.001573563,0.003061295,0,
00:02.1,0.001813889,0.001573563,0.003061295,0,
00:02.1,0.001813889,0.001573563,0.003061295,0,
00:02.1,0.001813889,0.001579285,0.003061295,0,
00:02.1,0.001813889,0.001585007,0.003061295,0,
00:02.1,0.001831055,0.001585007,0.003061295,0,
00:02.1,0.001848221,0.001590729,0.00304985,0,
00:02.2,0.001848221,0.001596451,0.003044128,0,
00:02.2,0.001785278,0.001556396,0.003055573,0,
00:02.2,0.001796722,0.001550674,0.003055573,0,
00:02.2,0.001808167,0.001556396,0.003061295,0,
00:02.2,0.001813889,0.001562119,0.003072739,0,
00:02.2,0.001808167,0.001567841,0.003067017,0,
00:02.2,0.001813889,0.001567841,0.003067017,0,
00:02.2,0.001813889,0.001567841,0.003061295,0,
00:02.2,0.001813889,0.001573563,0.003061295,0,
00:02.2,0.001825333,0.001573563,0.003055573,0,
00:02.2,0.001842499,0.001579285,0.003055573,0,
00:02.2,0.001819611,0.001573563,0.00304985,0,
00:02.2,0.001802444,0.001567841,0.003055573,0,
00:02.2,0.001802444,0.001556396,0.003055573,0,
00:02.2,0.001802444,0.001562119,0.003061295,0,
00:02.2,0.001808167,0.001562119,0.003067017,0,
00:02.2,0.001808167,0.001567841,0.003061295,0,
00:02.2,0.001808167,0.001573563,0.003061295,0,
00:02.2,0.001825333,0.001585007,0.003061295,0,
00:02.2,0.001848221,0.001585007,0.00304985,0,
00:02.2,0.001813889,0.001562119,0.003044128,0,
00:02.2,0.001791,0.001556396,0.003055573,0,
00:02.2,0.001796722,0.001562119,0.003055573,0,
00:02.2,0.001802444,0.001556396,0.003055573,0,
00:02.2,0.001808167,0.001556396,0.003067017,0,
00:02.3,0.001808167,0.001556396,0.003061295,0,
00:02.3,0.001808167,0.001567841,0.003061295,0,
00:02.3,0.001819611,0.001585007,0.003055573,0,
00:02.3,0.001831055,0.001585007,0.00304985,0,
00:02.3,0.001808167,0.001550674,0.00304985,0,
00:02.3,0.001825333,0.001550674,0.00304985,0,
00:02.3,0.001796722,0.001556396,0.003061295,0,
00:02.3,0.001796722,0.001556396,0.003061295,0,
00:02.3,0.001802444,0.001556396,0.003061295,0,
00:02.3,0.001808167,0.001562119,0.003067017,0,
00:02.3,0.001808167,0.001562119,0.003067017,0,
00:02.3,0.001808167,0.001573563,0.003061295,0,
00:02.3,0.001831055,0.001585007,0.00304985,0,
00:02.3,0.001842499,0.001590729,0.003044128,0,
00:02.3,0.001802444,0.001550674,0.003044128,0,
00:02.3,0.001791,0.001544952,0.003055573,0,
00:02.3,0.001785278,0.001544952,0.003061295,0,
00:02.3,0.001802444,0.001556396,0.003055573,0,
00:02.3,0.001808167,0.001556396,0.003055573,0,
00:02.3,0.001808167,0.001562119,0.003055573,0,
00:02.3,0.001802444,0.001562119,0.003055573,0,
00:02.3,0.001813889,0.001562119,0.003055573,0,
00:02.3,0.001836777,0.001573563,0.00304985,0,
00:02.3,0.001825333,0.001573563,0.00304985,0,
00:02.3,0.001819611,0.001556396,0.00304985,0,
00:02.4,0.001791,0.001550674,0.003055573,0,
00:02.4,0.001796722,0.001550674,0.003061295,0,
00:02.4,0.001819611,0.001562119,0.003061295,0,
00:02.4,0.001802444,0.001556396,0.003055573,0,
00:02.4,0.001813889,0.001567841,0.00304985,0,
00:02.4,0.001825333,0.001579285,0.00304985,0,
00:02.4,0.001819611,0.001573563,0.003055573,0,
00:02.4,0.001791,0.001550674,0.003055573,0,
00:02.4,0.001802444,0.001544952,0.00304985,0,
00:02.4,0.001802444,0.001550674,0.00304985,0,
00:02.4,0.001808167,0.001562119,0.003055573,0,
00:02.4,0.001802444,0.001556396,0.003055573,0,
00:02.4,0.001808167,0.001556396,0.003055573,0,
00:02.4,0.001825333,0.001567841,0.00304985,0,
00:02.4,0.001813889,0.001556396,0.00304985,0,
00:02.4,0.001802444,0.001556396,0.00304985,0,
00:02.4,0.001802444,0.001556396,0.00304985,0,
00:02.4,0.001808167,0.001562119,0.003055573,0,
00:02.4,0.001808167,0.001567841,0.00304985,0,
00:02.4,0.001819611,0.001562119,0.00304985,0,
00:02.4,0.001796722,0.001544952,0.00304985,0,
00:02.4,0.001796722,0.001550674,0.00304985,0,
00:02.4,0.001796722,0.001550674,0.00304985,0,
00:02.4,0.001813889,0.001562119,0.00304985,0,
00:02.4,0.001819611,0.001562119,0.003055573,0,
00:02.5,0.001808167,0.001556396,0.003055573,0,
00:02.5,0.001808167,0.001550674,0.00304985,0,
00:02.5,0.001796722,0.001556396,0.003055573,0,
00:02.5,0.001808167,0.001556396,0.003055573,0,
00:02.5,0.001819611,0.001556396,0.003055573,0,
00:02.5,0.001813889,0.001556396,0.00304985,0,
00:02.5,0.001802444,0.001550674,0.003055573,0,
00:02.5,0.001802444,0.001544952,0.00304985,0,
00:02.5,0.001808167,0.001550674,0.00304985,0,
00:02.5,0.001808167,0.001550674,0.00304985,0,
00:02.5,0.001808167,0.001550674,0.003055573,0,
00:02.5,0.001808167,0.001550674,0.003061295,0,
00:02.5,0.001813889,0.001562119,0.003061295,0,
00:02.5,0.001813889,0.001556396,0.003055573,0,
00:02.5,0.001808167,0.001544952,0.003055573,0,
00:02.5,0.001808167,0.00153923,0.003055573,0,
00:02.5,0.001802444,0.00153923,0.003055573,0,
00:02.5,0.001802444,0.001544952,0.003061295,0,
00:02.5,0.001819611,0.001550674,0.003055573,0,
00:02.5,0.001825333,0.001550674,0.00304985,0,
00:02.5,0.001802444,0.001544952,0.003055573,0,
00:02.5,0.001791,0.00153923,0.003061295,0,
00:02.5,0.001808167,0.001544952,0.003061295,0,
00:02.5,0.001825333,0.001556396,0.003055573,0,
00:02.5,0.001836777,0.001562119,0.003067017,0,
00:02.6,0.001808167,0.001544952,0.003067017,0,
00:02.6,0.001785278,0.00153923,0.003055573,0,
00:02.6,0.001802444,0.001544952,0.003061295,0,
00:02.6,0.001813889,0.001544952,0.003067017,0,
00:02.6,0.001819611,0.001550674,0.003072739,0,
00:02.6,0.001808167,0.001544952,0.003067017,0,
00:02.6,0.001808167,0.001544952,0.003067017,0,
00:02.6,0.001802444,0.001544952,0.003055573,0,
00:02.6,0.001813889,0.001544952,0.003061295,0,
00:02.6,0.001825333,0.001567841,0.003067017,0,
00:02.6,0.001819611,0.001550674,0.003067017,0,
00:02.6,0.001802444,0.00153923,0.003061295,0,
00:02.6,0.001802444,0.001544952,0.003055573,0,
00:02.6,0.001808167,0.001544952,0.003061295,0,
00:02.6,0.001819611,0.001550674,0.003061295,0,
00:02.6,0.001825333,0.001556396,0.003055573,0,
00:02.6,0.001796722,0.00153923,0.003055573,0,
00:02.6,0.001819611,0.001544952,0.003055573,0,
00:02.6,0.001825333,0.001544952,0.00304985,0,
00:02.6,0.001802444,0.00153923,0.003061295,0,
00:02.6,0.001813889,0.001550674,0.003067017,0,
00:02.6,0.001808167,0.001550674,0.003067017,0,
00:02.6,0.001819611,0.001544952,0.003061295,0,
00:02.6,0.001813889,0.001544952,0.003061295,0,
00:02.6,0.001796722,0.00153923,0.003055573,0,
00:02.7,0.001802444,0.001533508,0.003055573,0,
00:02.7,0.001819611,0.001544952,0.003067017,0,
00:02.7,0.001808167,0.00153923,0.003067017,0,
00:02.7,0.001813889,0.00153923,0.003061295,0,
00:02.7,0.001819611,0.00153923,0.003061295,0,
00:02.7,0.001836777,0.001550674,0.003061295,0,
00:02.7,0.001808167,0.001544952,0.003055573,0,
00:02.7,0.001796722,0.00153923,0.003055573,0,
00:02.7,0.001808167,0.00153923,0.003061295,0,
00:02.7,0.001808167,0.001533508,0.003061295,0,
00:02.7,0.001808167,0.001533508,0.003067017,0,
00:02.7,0.001819611,0.001544952,0.003061295,0,
00:02.7,0.001825333,0.001550674,0.003055573,0,
00:02.7,0.001836777,0.001556396,0.003055573,0,
00:02.7,0.001813889,0.00153923,0.003055573,0,
00:02.7,0.001802444,0.001533508,0.003055573,0,
00:02.7,0.001808167,0.00153923,0.003055573,0,
00:02.7,0.001808167,0.001533508,0.003061295,0,
00:02.7,0.001813889,0.001527786,0.003067017,0,
00:02.7,0.001842499,0.001556396,0.003061295,0,
00:02.7,0.001831055,0.001556396,0.003055573,0,
00:02.7,0.001796722,0.001533508,0.003055573,0,
00:02.7,0.001802444,0.001527786,0.00304985,0,
00:02.7,0.001808167,0.001533508,0.00304985,0,
00:02.7,0.001813889,0.001533508,0.003055573,0,
00:02.8,0.001808167,0.001533508,0.003061295,0,
00:02.8,0.001819611,0.00153923,0.003055573,0,
00:02.8,0.001825333,0.00153923,0.00304985,0,
00:02.8,0.001836777,0.00153923,0.003038406,0,
00:02.8,0.001831055,0.001550674,0.00304985,0,
00:02.8,0.001808167,0.001533508,0.003055573,0,
00:02.8,0.001802444,0.001522064,0.003055573,0,
00:02.8,0.001808167,0.001527786,0.003055573,0,
00:02.8,0.001813889,0.001522064,0.003055573,0,
00:02.8,0.001836777,0.00153923,0.003055573,0,
00:02.8,0.001842499,0.00153923,0.003044128,0,
00:02.8,0.001796722,0.001527786,0.00304985,0,
00:02.8,0.001808167,0.00153923,0.003055573,0,
00:02.8,0.001808167,0.001527786,0.003055573,0,
00:02.8,0.001802444,0.001522064,0.00304985,0,
00:02.8,0.001819611,0.001533508,0.00304985,0,
00:02.8,0.001813889,0.001527786,0.003055573,0,
00:02.8,0.001825333,0.001533508,0.003055573,0,
00:02.8,0.001825333,0.001544952,0.00304985,0,
00:02.8,0.001813889,0.001533508,0.00304985,0,
00:02.8,0.001819611,0.001527786,0.00304985,0,
00:02.8,0.001819611,0.001527786,0.003044128,0,
00:02.8,0.001808167,0.001527786,0.00304985,0,
00:02.8,0.001813889,0.001533508,0.003044128,0,
00:02.8,0.001819611,0.001527786,0.00304985,0,
00:02.9,0.001819611,0.001522064,0.003055573,0,
00:02.9,0.001819611,0.001527786,0.003061295,0,
00:02.9,0.001831055,0.00153923,0.003055573,0,
00:02.9,0.001819611,0.001527786,0.00304985,0,
00:02.9,0.001813889,0.001527786,0.003055573,0,
00:02.9,0.001819611,0.001527786,0.00304985,0,
00:02.9,0.001819611,0.001527786,0.00304985,0,
00:02.9,0.001819611,0.001527786,0.003044128,0,
00:02.9,0.001808167,0.001522064,0.00304985,0,
00:02.9,0.001825333,0.001533508,0.003044128,0,
00:02.9,0.001825333,0.001533508,0.003055573,0,
00:02.9,0.001802444,0.001522064,0.003055573,0,
00:02.9,0.001813889,0.001533508,0.003044128,0,
00:02.9,0.001831055,0.00153923,0.003055573,0,
00:02.9,0.001819611,0.001522064,0.00304985,0,
00:02.9,0.001813889,0.001522064,0.00304985,0,
00:02.9,0.001813889,0.001527786,0.00304985,0,
00:02.9,0.001825333,0.001522064,0.003044128,0,
00:02.9,0.001813889,0.001522064,0.003055573,0,
00:02.9,0.001808167,0.001522064,0.003055573,0,
00:02.9,0.001813889,0.001522064,0.00304985,0,
00:02.9,0.001819611,0.001527786,0.003055573,0,
00:02.9,0.001819611,0.001522064,0.003055573,0,
00:02.9,0.001819611,0.001527786,0.00304985,0,
00:02.9,0.001813889,0.001516342,0.00304985,0,
00:03.0,0.001813889,0.001516342,0.00304985,0,
00:03.0,0.001819611,0.001533508,0.003044128,0,
00:03.0,0.001813889,0.001522064,0.00304985,0,
00:03.0,0.001819611,0.001527786,0.003055573,0,
00:03.0,0.001819611,0.001527786,0.003055573,0,
00:03.0,0.001825333,0.001522064,0.003055573,0,
00:03.0,0.001808167,0.001516342,0.003055573,0,
00:03.0,0.001808167,0.001516342,0.003055573,0,
00:03.0,0.001802444,0.00151062,0.00304985,0,
00:03.0,0.001825333,0.001522064,0.003055573,0,
00:03.0,0.001808167,0.001522064,0.00304985,0,
00:03.0,0.001813889,0.001522064,0.003055573,0,
00:00:03,0.001813889,0.001516342,0.00304985,0,
00:03.0,0.001808167,0.00151062,0.00304985,0,
00:03.0,0.001813889,0.00151062,0.00304985,0,
00:03.0,0.001813889,0.001522064,0.003055573,0,
00:03.0,0.001808167,0.001516342,0.003055573,0,
00:03.0,0.001808167,0.00151062,0.003055573,0,
00:03.0,0.001808167,0.001516342,0.003055573,0,
00:03.0,0.001808167,0.001516342,0.00304985,0,
00:03.0,0.001836777,0.001533508,0.00304985,0,
00:03.0,0.001853943,0.00153923,0.003038406,0,
00:03.0,0.001819611,0.001527786,0.003038406,0,
00:03.0,0.001791,0.001504898,0.00304985,0,
00:03.0,0.001796722,0.001493454,0.003061295,0,
00:03.1,0.001802444,0.001499176,0.00304985,0,
00:03.1,0.001808167,0.001516342,0.00304985,0,
00:03.1,0.001808167,0.001516342,0.00304985,0,
00:03.1,0.001808167,0.001504898,0.00304985,0,
00:03.1,0.001813889,0.00151062,0.00304985,0,
00:03.1,0.001808167,0.00151062,0.00304985,0,
00:03.1,0.001808167,0.001516342,0.003044128,0,
00:03.1,0.001825333,0.001516342,0.003044128,0,
00:03.1,0.001808167,0.001516342,0.003044128,0,
00:03.1,0.001813889,0.001516342,0.003044128,0,
00:03.1,0.001802444,0.001516342,0.003055573,0,
00:03.1,0.001802444,0.001504898,0.00304985,0,
00:03.1,0.001813889,0.00151062,0.00304985,0,
00:03.1,0.001813889,0.001504898,0.00304985,0,
00:03.1,0.001808167,0.001516342,0.00304985,0,
00:03.1,0.001808167,0.00151062,0.003044128,0,
00:03.1,0.001825333,0.001504898,0.003038406,0,
00:03.1,0.001808167,0.001504898,0.003044128,0,
00:03.1,0.001802444,0.00151062,0.00304985,0,
00:03.1,0.001813889,0.001516342,0.003038406,0,
00:03.1,0.001813889,0.00151062,0.00304985,0,
00:03.1,0.001802444,0.001504898,0.003055573,0,
00:03.1,0.001802444,0.001504898,0.00304985,0,
00:03.1,0.001802444,0.001504898,0.003044128,0,
00:03.1,0.001808167,0.001504898,0.00304985,0,
00:03.2,0.001813889,0.001516342,0.00304985,0,
00:03.2,0.001836777,0.001522064,0.00304985,0,
00:03.2,0.001831055,0.001516342,0.003038406,0,
00:03.2,0.001779556,0.001499176,0.00304985,0,
00:03.2,0.001796722,0.00151062,0.003055573,0,
00:03.2,0.001791,0.001504898,0.00304985,0,
00:03.2,0.001808167,0.001516342,0.003044128,0,
00:03.2,0.001813889,0.001516342,0.003044128,0,
00:03.2,0.001808167,0.00151062,0.003044128,0,
00:03.2,0.001802444,0.00151062,0.003055573,0,
00:03.2,0.001802444,0.00151062,0.003055573,0,
00:03.2,0.001813889,0.001516342,0.00304985,0,
00:03.2,0.001802444,0.00151062,0.003044128,0,
00:03.2,0.001808167,0.00151062,0.003044128,0,
00:03.2,0.001802444,0.00151062,0.003044128,0,
00:03.2,0.001813889,0.001516342,0.003044128,0,
00:03.2,0.001808167,0.001516342,0.003044128,0,
00:03.2,0.001813889,0.001516342,0.003038406,0,
00:03.2,0.001796722,0.001493454,0.003044128,0,
00:03.2,0.001802444,0.001499176,0.00304985,0,
00:03.2,0.001819611,0.001522064,0.00304985,0,
00:03.2,0.001796722,0.001504898,0.003044128,0,
00:03.2,0.001802444,0.001504898,0.003044128,0,
00:03.2,0.001813889,0.00151062,0.003044128,0,
00:03.2,0.001813889,0.001522064,0.00304985,0,
00:03.3,0.001813889,0.001516342,0.003055573,0,
00:03.3,0.001796722,0.00151062,0.003044128,0,
00:03.3,0.001791,0.00151062,0.003044128,0,
00:03.3,0.001796722,0.00151062,0.00304985,0,
00:03.3,0.001796722,0.00151062,0.00304985,0,
00:03.3,0.001819611,0.001522064,0.00304985,0,
00:03.3,0.001836777,0.001522064,0.00304985,0,
00:03.3,0.001808167,0.001504898,0.003044128,0,
00:03.3,0.001808167,0.001504898,0.003044128,0,
00:03.3,0.001808167,0.00151062,0.003044128,0,
00:03.3,0.001785278,0.001504898,0.003038406,0,
00:03.3,0.001802444,0.00151062,0.00304985,0,
00:03.3,0.001802444,0.001504898,0.003044128,0,
00:03.3,0.001791,0.001499176,0.00304985,0,
00:03.3,0.001802444,0.001504898,0.003044128,0,
00:03.3,0.001802444,0.00151062,0.00304985,0,
00:03.3,0.001813889,0.001516342,0.003055573,0,
00:03.3,0.001802444,0.001504898,0.003044128,0,
00:03.3,0.001785278,0.001499176,0.003044128,0,
00:03.3,0.001796722,0.00151062,0.003044128,0,
00:03.3,0.001796722,0.001504898,0.003044128,0,
00:03.3,0.001796722,0.001499176,0.00304985,0,
00:03.3,0.001796722,0.001504898,0.003044128,0,
00:03.3,0.001796722,0.001504898,0.003044128,0,
00:03.3,0.001813889,0.001516342,0.003044128,0,
00:03.4,0.001819611,0.001516342,0.003032684,0,
00:03.4,0.001791,0.001499176,0.003044128,0,
00:03.4,0.001791,0.001493454,0.003055573,0,
00:03.4,0.001802444,0.001493454,0.003044128,0,
00:03.4,0.001796722,0.001493454,0.003044128,0,
00:03.4,0.001791,0.001499176,0.003044128,0,
00:03.4,0.001791,0.001493454,0.003038406,0,
00:03.4,0.001808167,0.001504898,0.003044128,0,
00:03.4,0.001796722,0.001493454,0.003044128,0,
00:03.4,0.001791,0.001493454,0.003044128,0,
00:03.4,0.001791,0.001493454,0.003044128,0,
00:03.4,0.001796722,0.001504898,0.003055573,0,
00:03.4,0.001796722,0.001499176,0.003044128,0,
00:03.4,0.001802444,0.001499176,0.003044128,0,
00:03.4,0.001813889,0.00151062,0.003038406,0,
00:03.4,0.001779556,0.001493454,0.003044128,0,
00:03.4,0.001785278,0.001493454,0.003044128,0,
00:03.4,0.001791,0.001499176,0.003044128,0,
00:03.4,0.001796722,0.001493454,0.003044128,0,
00:03.4,0.001808167,0.001493454,0.003038406,0,
00:03.4,0.001791,0.001493454,0.00304985,0,
00:03.4,0.001796722,0.001493454,0.00304985,0,
00:03.4,0.001791,0.001487732,0.00304985,0,
00:03.4,0.001791,0.001487732,0.00304985,0,
00:03.4,0.001796722,0.001487732,0.003044128,0,
00:03.5,0.001802444,0.001493454,0.003044128,0,
00:03.5,0.001796722,0.001493454,0.003044128,0,
00:03.5,0.001779556,0.001493454,0.003044128,0,
00:03.5,0.001796722,0.001499176,0.003044128,0,
00:03.5,0.001791,0.001499176,0.003038406,0,
00:03.5,0.001779556,0.001487732,0.003038406,0,
00:03.5,0.001785278,0.001493454,0.00304985,0,
00:03.5,0.001785278,0.001487732,0.00304985,0,
00:03.5,0.001785278,0.001487732,0.003044128,0,
00:03.5,0.001785278,0.001493454,0.003038406,0,
00:03.5,0.001779556,0.00148201,0.003038406,0,
00:03.5,0.001785278,0.001476288,0.003044128,0,
00:03.5,0.001785278,0.001493454,0.003044128,0,
00:03.5,0.001785278,0.001487732,0.003044128,0,
00:03.5,0.001779556,0.00148201,0.003044128,0,
00:03.5,0.001791,0.001487732,0.003038406,0,
00:03.5,0.001791,0.001493454,0.003044128,0,
00:03.5,0.001785278,0.001493454,0.003038406,0,
00:03.5,0.001779556,0.001493454,0.003044128,0,
00:03.5,0.001802444,0.001493454,0.00304985,0,
00:03.5,0.001785278,0.00148201,0.00304985,0,
00:03.5,0.001779556,0.00148201,0.00304985,0,
00:03.5,0.001773834,0.001487732,0.003038406,0,
00:03.5,0.001779556,0.001493454,0.003038406,0,
00:03.5,0.001779556,0.00148201,0.003044128,0,
00:03.6,0.001779556,0.00148201,0.003044128,0,
00:03.6,0.001779556,0.00148201,0.003055573,0,
00:03.6,0.001779556,0.001487732,0.003044128,0,
00:03.6,0.001773834,0.00148201,0.003038406,0,
00:03.6,0.001785278,0.00148201,0.003044128,0,
00:03.6,0.001779556,0.00148201,0.003044128,0,
00:03.6,0.001773834,0.00148201,0.003044128,0,
00:03.6,0.001773834,0.00148201,0.00304985,0,
00:03.6,0.001773834,0.001470566,0.003044128,0,
00:03.6,0.001773834,0.00148201,0.00304985,0,
00:03.6,0.001779556,0.00148201,0.003044128,0,
00:03.6,0.001773834,0.00148201,0.003044128,0,
00:03.6,0.001791,0.001493454,0.00304985,0,
00:03.6,0.001768112,0.001476288,0.00304985,0,
00:03.6,0.001768112,0.001470566,0.003044128,0,
00:03.6,0.001768112,0.001470566,0.003038406,0,
00:03.6,0.001768112,0.00148201,0.003038406,0,
00:03.6,0.001773834,0.001476288,0.003044128,0,
00:03.6,0.001785278,0.00148201,0.003044128,0,
00:03.6,0.001785278,0.001487732,0.003032684,0,
00:03.6,0.00176239,0.00148201,0.003044128,0,
00:03.6,0.001768112,0.001476288,0.00304985,0,
00:03.6,0.001768112,0.00148201,0.003038406,0,
00:03.6,0.00176239,0.001470566,0.003044128,0,
00:03.6,0.001773834,0.001476288,0.003044128,0,
00:03.7,0.001785278,0.001487732,0.003038406,0,
00:03.7,0.001756668,0.001476288,0.003044128,0,
00:03.7,0.00176239,0.001470566,0.00304985,0,
00:03.7,0.001756668,0.001470566,0.00304985,0,
00:03.7,0.001768112,0.001470566,0.003055573,0,
00:03.7,0.00176239,0.001464844,0.003044128,0,
00:03.7,0.001768112,0.001476288,0.00304985,0,
00:03.7,0.00176239,0.001476288,0.003044128,0,
00:03.7,0.001773834,0.001476288,0.003044128,0,
00:03.7,0.001756668,0.001464844,0.003044128,0,
00:03.7,0.001756668,0.001464844,0.003038406,0,
00:03.7,0.001756668,0.001470566,0.00304985,0,
00:03.7,0.001756668,0.001464844,0.00304985,0,
00:03.7,0.001773834,0.001464844,0.003044128,0,
00:03.7,0.001779556,0.001470566,0.003038406,0,
00:03.7,0.001773834,0.001470566,0.003044128,0,
00:03.7,0.001756668,0.001476288,0.00304985,0,
00:03.7,0.001756668,0.001470566,0.00304985,0,
00:03.7,0.00176239,0.001464844,0.00304985,0,
00:03.7,0.001768112,0.001464844,0.003038406,0,
00:03.7,0.001756668,0.001464844,0.00304985,0,
00:03.7,0.00176239,0.001470566,0.003055573,0,
00:03.7,0.001768112,0.00148201,0.003044128,0,
00:03.7,0.00176239,0.001464844,0.003038406,0,
00:03.7,0.001750946,0.0014534,0.003055573,0,
00:03.8,0.001750946,0.001459122,0.003055573,0,
00:03.8,0.001750946,0.001459122,0.00304985,0,
00:03.8,0.00176239,0.001464844,0.00304985,0,
00:03.8,0.001768112,0.001464844,0.00304985,0,
00:03.8,0.001756668,0.001459122,0.00304985,0,
00:03.8,0.001756668,0.001470566,0.00304985,0,
00:03.8,0.001768112,0.001459122,0.003044128,0,
00:03.8,0.001745224,0.001459122,0.00304985,0,
00:03.8,0.001750946,0.001459122,0.00304985,0,
00:03.8,0.00176239,0.001464844,0.00304985,0,
00:03.8,0.00176239,0.001470566,0.00304985,0,
00:03.8,0.001756668,0.001470566,0.003055573,0,
00:03.8,0.001745224,0.001459122,0.003055573,0,
00:03.8,0.001756668,0.001464844,0.00304985,0,
00:03.8,0.001773834,0.001464844,0.003044128,0,
00:03.8,0.001750946,0.001464844,0.003038406,0,
00:03.8,0.00173378,0.001459122,0.003044128,0,
00:03.8,0.001745224,0.0014534,0.003055573,0,
00:03.8,0.001750946,0.0014534,0.003061295,0,
00:03.8,0.001750946,0.001459122,0.003055573,0,
00:03.8,0.001745224,0.001464844,0.003055573,0,
00:03.8,0.001750946,0.001464844,0.00304985,0,
00:03.8,0.001745224,0.001459122,0.003038406,0,
00:03.8,0.001745224,0.0014534,0.00304985,0,
00:03.8,0.001739502,0.001459122,0.003055573,0,
00:03.9,0.001750946,0.001470566,0.003055573,0,
00:03.9,0.001745224,0.001464844,0.003055573,0,
00:03.9,0.001745224,0.001459122,0.00304985,0,
00:03.9,0.001745224,0.0014534,0.003055573,0,
00:03.9,0.00173378,0.0014534,0.003055573,0,
00:03.9,0.001739502,0.0014534,0.003055573,0,
00:03.9,0.001739502,0.001459122,0.00304985,0,
00:03.9,0.001739502,0.001459122,0.00304985,0,
00:03.9,0.001750946,0.001470566,0.00304985,0,
00:03.9,0.00176239,0.00148201,0.003055573,0,
00:03.9,0.001750946,0.0014534,0.00304985,0,
00:03.9,0.001750946,0.0014534,0.00304985,0,
00:03.9,0.00173378,0.0014534,0.003055573,0,
00:03.9,0.001728058,0.0014534,0.003055573,0,
00:03.9,0.001739502,0.001459122,0.003061295,0,
00:03.9,0.00173378,0.001459122,0.003067017,0,
00:03.9,0.001739502,0.001459122,0.003055573,0,
00:03.9,0.001739502,0.001459122,0.003055573,0,
00:03.9,0.001739502,0.0014534,0.003055573,0,
00:03.9,0.001739502,0.001459122,0.003055573,0,
00:03.9,0.001745224,0.001464844,0.00304985,0,
00:03.9,0.001745224,0.001464844,0.003044128,0,
00:03.9,0.00173378,0.001459122,0.00304985,0,
00:03.9,0.001739502,0.001459122,0.003061295,0,
00:03.9,0.00173378,0.0014534,0.00304985,0,
00:04.0,0.001722336,0.001447678,0.003072739,0,
00:04.0,0.001722336,0.001447678,0.003067017,0,
00:04.0,0.001728058,0.0014534,0.003061295,0,
00:04.0,0.001728058,0.001459122,0.003061295,0,
00:04.0,0.00173378,0.001459122,0.003061295,0,
00:04.0,0.001739502,0.001464844,0.003061295,0,
00:04.0,0.00176239,0.001470566,0.003055573,0,
00:04.0,0.001739502,0.001447678,0.003055573,0,
00:04.0,0.001716614,0.001459122,0.003067017,0,
00:04.0,0.00173378,0.001459122,0.003061295,0,
00:04.0,0.001722336,0.0014534,0.003061295,0,
00:04.0,0.001722336,0.0014534,0.003061295,0,
00:00:04,0.001728058,0.0014534,0.003061295,0,
00:04.0,0.001728058,0.001447678,0.003067017,0,
00:04.0,0.001728058,0.001464844,0.003067017,0,
00:04.0,0.00173378,0.001459122,0.003067017,0,
00:04.0,0.00173378,0.001464844,0.003067017,0,
00:04.0,0.001739502,0.001464844,0.003055573,0,
00:04.0,0.001728058,0.0014534,0.003055573,0,
00:04.0,0.001722336,0.001459122,0.003072739,0,
00:04.0,0.001728058,0.001464844,0.003078461,0,
00:04.0,0.001722336,0.0014534,0.003072739,0,
00:04.0,0.001716614,0.001447678,0.003067017,0,
00:04.0,0.001722336,0.0014534,0.003067017,0,
00:04.0,0.001722336,0.0014534,0.003067017,0,
00:04.1,0.001728058,0.001459122,0.003067017,0,
00:04.1,0.00173378,0.001470566,0.003061295,0,
00:04.1,0.001728058,0.001459122,0.003061295,0,
00:04.1,0.001728058,0.001459122,0.003061295,0,
00:04.1,0.001710892,0.0014534,0.003067017,0,
00:04.1,0.001728058,0.001459122,0.003067017,0,
00:04.1,0.001722336,0.0014534,0.003072739,0,
00:04.1,0.001710892,0.0014534,0.003067017,0,
00:04.1,0.001716614,0.0014534,0.003072739,0,
00:04.1,0.00173378,0.0014534,0.003078461,0,
00:04.1,0.001728058,0.001470566,0.003078461,0,
00:04.1,0.001710892,0.001464844,0.003067017,0,
00:04.1,0.001693726,0.0014534,0.003078461,0,
00:04.1,0.001716614,0.0014534,0.003078461,0,
00:04.1,0.001722336,0.001459122,0.003084183,0,
00:04.1,0.001716614,0.001459122,0.003078461,0,
00:04.1,0.001716614,0.0014534,0.003078461,0,
00:04.1,0.001716614,0.001459122,0.003078461,0,
00:04.1,0.001722336,0.001459122,0.003078461,0,
00:04.1,0.001716614,0.001459122,0.003078461,0,
00:04.1,0.001722336,0.001470566,0.003078461,0,
00:04.1,0.001722336,0.001476288,0.003078461,0,
00:04.1,0.001716614,0.001464844,0.003072739,0,
00:04.1,0.001722336,0.0014534,0.003061295,0,
00:04.1,0.001699448,0.0014534,0.003078461,0,
00:04.2,0.001710892,0.001459122,0.003084183,0,
00:04.2,0.00170517,0.001459122,0.003084183,0,
00:04.2,0.001722336,0.001464844,0.003078461,0,
00:04.2,0.001710892,0.001464844,0.003072739,0,
00:04.2,0.001710892,0.001464844,0.003078461,0,
00:04.2,0.001699448,0.001459122,0.003078461,0,
00:04.2,0.00170517,0.001459122,0.003078461,0,
00:04.2,0.001716614,0.001459122,0.003084183,0,
00:04.2,0.001716614,0.001464844,0.003084183,0,
00:04.2,0.001716614,0.001470566,0.003084183,0,
00:04.2,0.001728058,0.001470566,0.003078461,0,
00:04.2,0.001710892,0.001459122,0.003078461,0,
00:04.2,0.001716614,0.001464844,0.003084183,0,
00:04.2,0.001710892,0.001459122,0.003078461,0,
00:04.2,0.001710892,0.001459122,0.003078461,0,
00:04.2,0.001710892,0.001464844,0.003078461,0,
00:04.2,0.001716614,0.001470566,0.003078461,0,
00:04.2,0.001722336,0.001470566,0.003072739,0,
00:04.2,0.001716614,0.001464844,0.003078461,0,
00:04.2,0.00170517,0.001459122,0.003078461,0,
00:04.2,0.001716614,0.001464844,0.003084183,0,
00:04.2,0.001710892,0.001459122,0.003078461,0,
00:04.2,0.001699448,0.0014534,0.003078461,0,
00:04.2,0.001716614,0.001459122,0.003078461,0,
00:04.2,0.001710892,0.001464844,0.003078461,0,
00:04.3,0.00170517,0.001464844,0.003078461,0,
00:04.3,0.001710892,0.001464844,0.003067017,0,
00:04.3,0.001739502,0.001476288,0.003061295,0,
00:04.3,0.00173378,0.001476288,0.003067017,0,
00:04.3,0.001693726,0.001464844,0.003078461,0,
00:04.3,0.001699448,0.001459122,0.003078461,0,
00:04.3,0.001710892,0.001464844,0.003078461,0,
00:04.3,0.001710892,0.001464844,0.003072739,0,
00:04.3,0.00170517,0.001464844,0.003072739,0,
00:04.3,0.00170517,0.001459122,0.003072739,0,
00:04.3,0.001710892,0.001476288,0.003072739,0,
00:04.3,0.00170517,0.001470566,0.003067017,0,
00:04.3,0.001699448,0.001470566,0.003067017,0,
00:04.3,0.001710892,0.001476288,0.003072739,0,
00:04.3,0.001710892,0.001476288,0.003078461,0,
00:04.3,0.001716614,0.001476288,0.003067017,0,
00:04.3,0.001710892,0.001476288,0.003061295,0,
00:04.3,0.001716614,0.001487732,0.003067017,0,
00:04.3,0.001716614,0.00148201,0.003078461,0,
00:04.3,0.001699448,0.001464844,0.003078461,0,
00:04.3,0.001716614,0.001470566,0.003072739,0,
00:04.3,0.00170517,0.001470566,0.003067017,0,
00:04.3,0.001693726,0.001470566,0.003072739,0,
00:04.3,0.001710892,0.001476288,0.003072739,0,
00:04.3,0.001710892,0.001476288,0.003067017,0,
00:04.4,0.001710892,0.00148201,0.003067017,0,
00:04.4,0.001716614,0.001487732,0.003067017,0,
00:04.4,0.001710892,0.00148201,0.003067017,0,
00:04.4,0.001716614,0.001476288,0.003061295,0,
00:04.4,0.00170517,0.00148201,0.003067017,0,
00:04.4,0.001716614,0.001487732,0.003067017,0,
00:04.4,0.001710892,0.001493454,0.003067017,0,
00:04.4,0.00170517,0.001493454,0.003067017,0,
00:04.4,0.001716614,0.001487732,0.003061295,0,
00:04.4,0.001722336,0.001499176,0.003055573,0,
00:04.4,0.001716614,0.001487732,0.003061295,0,
00:04.4,0.001722336,0.001476288,0.003067017,0,
00:04.4,0.00170517,0.00148201,0.003072739,0,
00:04.4,0.001699448,0.00148201,0.003072739,0,
00:04.4,0.00170517,0.001487732,0.003067017,0,
00:04.4,0.00170517,0.001487732,0.003067017,0,
00:04.4,0.001710892,0.001487732,0.003067017,0,
00:04.4,0.001716614,0.001487732,0.003061295,0,
00:04.4,0.001710892,0.001487732,0.003061295,0,
00:04.4,0.001716614,0.001493454,0.003067017,0,
00:04.4,0.001728058,0.001499176,0.003067017,0,
00:04.4,0.001710892,0.001493454,0.003061295,0,
00:04.4,0.00170517,0.001487732,0.003055573,0,
00:04.4,0.001710892,0.001487732,0.003061295,0,
00:04.4,0.001710892,0.001493454,0.003061295,0,
00:04.5,0.001739502,0.00151062,0.003055573,0,
00:04.5,0.001728058,0.00151062,0.003044128,0,
00:04.5,0.001699448,0.00148201,0.003055573,0,
00:04.5,0.001710892,0.001493454,0.003061295,0,
00:04.5,0.00170517,0.001493454,0.003055573,0,
00:04.5,0.001710892,0.001499176,0.003055573,0,
00:04.5,0.001710892,0.001493454,0.003055573,0,
00:04.5,0.001716614,0.001504898,0.003061295,0,
00:04.5,0.001716614,0.001499176,0.00304985,0,
00:04.5,0.001716614,0.001499176,0.003044128,0,
00:04.5,0.001710892,0.00151062,0.003055573,0,
00:04.5,0.001722336,0.001516342,0.003061295,0,
00:04.5,0.00170517,0.001499176,0.003061295,0,
00:04.5,0.00170517,0.001493454,0.003067017,0,
00:04.5,0.001722336,0.001504898,0.003061295,0,
00:04.5,0.001710892,0.001504898,0.003067017,0,
00:04.5,0.001716614,0.00151062,0.003061295,0,
00:04.5,0.001728058,0.00151062,0.003055573,0,
00:04.5,0.001716614,0.00151062,0.003055573,0,
00:04.5,0.00170517,0.00151062,0.003061295,0,
00:04.5,0.00170517,0.001499176,0.003061295,0,
00:04.5,0.001710892,0.00151062,0.003067017,0,
00:04.5,0.001716614,0.00151062,0.003055573,0,
00:04.5,0.001699448,0.001504898,0.003055573,0,
00:04.5,0.001699448,0.00151062,0.003067017,0,
00:04.6,0.00170517,0.001516342,0.003061295,0,
00:04.6,0.001728058,0.001527786,0.003061295,0,
00:04.6,0.001739502,0.001533508,0.003055573,0,
00:04.6,0.001693726,0.001504898,0.00304985,0,
00:04.6,0.001710892,0.00151062,0.003061295,0,
00:04.6,0.001710892,0.001516342,0.003061295,0,
00:04.6,0.00170517,0.00151062,0.003055573,0,
00:04.6,0.001716614,0.001516342,0.003055573,0,
00:04.6,0.001716614,0.001516342,0.00304985,0,
00:04.6,0.00170517,0.001504898,0.003055573,0,
00:04.6,0.001716614,0.001516342,0.003055573,0,
00:04.6,0.001710892,0.001516342,0.003044128,0,
00:04.6,0.001716614,0.001516342,0.003044128,0,
00:04.6,0.001716614,0.001522064,0.00304985,0,
00:04.6,0.001722336,0.001527786,0.00304985,0,
00:04.6,0.001716614,0.001516342,0.00304985,0,
00:04.6,0.00170517,0.001522064,0.00304985,0,
00:04.6,0.001710892,0.001522064,0.003044128,0,
00:04.6,0.00170517,0.001522064,0.00304985,0,
00:04.6,0.001710892,0.001516342,0.00304985,0,
00:04.6,0.001710892,0.001522064,0.003055573,0,
00:04.6,0.001710892,0.001522064,0.00304985,0,
00:04.6,0.001722336,0.001522064,0.003038406,0,
00:04.6,0.001722336,0.001522064,0.003044128,0,
00:04.6,0.001716614,0.001527786,0.00304985,0,
00:04.7,0.001722336,0.001544952,0.003038406,0,
00:04.7,0.001716614,0.001533508,0.003038406,0,
00:04.7,0.001716614,0.001516342,0.003044128,0,
00:04.7,0.00170517,0.001516342,0.003038406,0,
00:04.7,0.001699448,0.001522064,0.003044128,0,
00:04.7,0.001710892,0.001527786,0.00304985,0,
00:04.7,0.001716614,0.001527786,0.003038406,0,
00:04.7,0.001710892,0.001527786,0.003038406,0,
00:04.7,0.001716614,0.001533508,0.003032684,0,
00:04.7,0.001722336,0.001533508,0.003032684,0,
00:04.7,0.001716614,0.00153923,0.003038406,0,
00:04.7,0.001710892,0.001533508,0.003044128,0,
00:04.7,0.001716614,0.001533508,0.003044128,0,
00:04.7,0.001722336,0.00153923,0.003038406,0,
00:04.7,0.001722336,0.001527786,0.003038406,0,
00:04.7,0.001699448,0.001527786,0.003038406,0,
00:04.7,0.00170517,0.001533508,0.003038406,0,
00:04.7,0.001710892,0.001533508,0.003038406,0,
00:04.7,0.001716614,0.001533508,0.003032684,0,
00:04.7,0.001728058,0.00153923,0.003026962,0,
00:04.7,0.001710892,0.001544952,0.003026962,0,
00:04.7,0.00170517,0.001544952,0.003032684,0,
00:04.7,0.001716614,0.001550674,0.003032684,0,
00:04.7,0.001710892,0.001544952,0.003032684,0,
00:04.7,0.001716614,0.00153923,0.003038406,0,
00:04.8,0.001716614,0.001544952,0.003026962,0,
00:04.8,0.001710892,0.00153923,0.003026962,0,
00:04.8,0.00170517,0.001544952,0.003032684,0,
00:04.8,0.001716614,0.00153923,0.003026962,0,
00:04.8,0.001716614,0.00153923,0.003026962,0,
00:04.8,0.001722336,0.001550674,0.003026962,0,
00:04.8,0.001722336,0.001556396,0.003026962,0,
00:04.8,0.001710892,0.001544952,0.003026962,0,
00:04.8,0.001722336,0.001550674,0.00302124,0,
00:04.8,0.001716614,0.001556396,0.003015518,0,
00:04.8,0.001699448,0.001544952,0.003009796,0,
00:04.8,0.001710892,0.001550674,0.003032684,0,
00:04.8,0.001710892,0.001550674,0.00302124,0,
00:04.8,0.001722336,0.001544952,0.00302124,0,
00:04.8,0.001710892,0.001544952,0.00302124,0,
00:04.8,0.001710892,0.001550674,0.00302124,0,
00:04.8,0.001710892,0.001550674,0.00302124,0,
00:04.8,0.001722336,0.001556396,0.003015518,0,
00:04.8,0.001716614,0.001562119,0.003015518,0,
00:04.8,0.001716614,0.001556396,0.003009796,0,
00:04.8,0.00173378,0.001562119,0.003004074,0,
00:04.8,0.001722336,0.001562119,0.003009796,0,
00:04.8,0.001722336,0.001567841,0.003015518,0,
00:04.8,0.001699448,0.001550674,0.003015518,0,
00:04.8,0.00170517,0.001550674,0.003015518,0,
00:04.9,0.001722336,0.001562119,0.003009796,0,
00:04.9,0.001716614,0.001567841,0.003015518,0,
00:04.9,0.001722336,0.001567841,0.003009796,0,
00:04.9,0.001716614,0.001573563,0.003009796,0,
00:04.9,0.001716614,0.001567841,0.003004074,0,
00:04.9,0.00170517,0.001573563,0.003009796,0,
00:04.9,0.001716614,0.001573563,0.003009796,0,
00:04.9,0.00170517,0.001562119,0.003004074,0,
00:04.9,0.001722336,0.001573563,0.003004074,0,
00:04.9,0.001728058,0.001579285,0.003004074,0,
00:04.9,0.001710892,0.001579285,0.003004074,0,
00:04.9,0.001722336,0.001579285,0.003009796,0,
00:04.9,0.001716614,0.001573563,0.003004074,0,
00:04.9,0.00170517,0.001567841,0.002998352,0,
00:04.9,0.001716614,0.001573563,0.002998352,0,
00:04.9,0.001710892,0.001573563,0.003009796,0,
00:04.9,0.001710892,0.001573563,0.003004074,0,
00:04.9,0.001716614,0.001573563,0.003004074,0,
00:04.9,0.001716614,0.001573563,0.002998352,0,
00:04.9,0.001722336,0.001585007,0.003004074,0,
00:04.9,0.00173378,0.001596451,0.002998352,0,
00:04.9,0.00173378,0.001585007,0.002986908,0,
00:04.9,0.001710892,0.001573563,0.002998352,0,
00:04.9,0.00170517,0.001567841,0.002998352,0,
00:04.9,0.001710892,0.001567841,0.003004074,0,
00:05.0,0.001716614,0.001585007,0.003004074,0,
00:05.0,0.001728058,0.001590729,0.002998352,0,
00:05.0,0.001722336,0.001585007,0.00299263,0,
00:05.0,0.001728058,0.001590729,0.002998352,0,
00:05.0,0.001716614,0.001579285,0.003004074,0,
00:05.0,0.001716614,0.001573563,0.003004074,0,
00:05.0,0.001716614,0.001579285,0.00299263,0,
00:05.0,0.001728058,0.001585007,0.00299263,0,
00:05.0,0.001716614,0.001585007,0.00299263,0,
00:05.0,0.001710892,0.001590729,0.002998352,0,
00:05.0,0.001728058,0.001596451,0.00299263,0,
00:05.0,0.00173378,0.001590729,0.002986908,0,
00:00:05,0.001728058,0.001590729,0.002981186,0,
00:05.0,0.001722336,0.001585007,0.002986908,0,
00:05.0,0.001716614,0.001579285,0.00299263,0,
00:05.0,0.001722336,0.001585007,0.00299263,0,
00:05.0,0.001728058,0.001590729,0.002998352,0,
00:05.0,0.001710892,0.001585007,0.00299263,0,
00:05.0,0.001728058,0.001602173,0.00299263,0,
00:05.0,0.001722336,0.001590729,0.002986908,0,
00:05.0,0.001716614,0.001590729,0.00299263,0,
00:05.0,0.001716614,0.001590729,0.002986908,0,
00:05.0,0.001722336,0.001590729,0.002986908,0,
00:05.0,0.001728058,0.001596451,0.002981186,0,
00:05.0,0.001728058,0.001590729,0.002981186,0,
00:05.1,0.00173378,0.001590729,0.002981186,0,
00:05.1,0.001722336,0.001596451,0.002986908,0,
00:05.1,0.001716614,0.001590729,0.002986908,0,
00:05.1,0.001728058,0.001602173,0.002981186,0,
00:05.1,0.001739502,0.001602173,0.002969742,0,
00:05.1,0.001722336,0.001590729,0.002975464,0,
00:05.1,0.001716614,0.001579285,0.002981186,0,
00:05.1,0.001710892,0.001590729,0.002981186,0,
00:05.1,0.001710892,0.001585007,0.002981186,0,
00:05.1,0.001722336,0.001590729,0.002986908,0,
00:05.1,0.001722336,0.001596451,0.002981186,0,
00:05.1,0.001728058,0.001602173,0.002975464,0,
00:05.1,0.00173378,0.001602173,0.00296402,0,
00:05.1,0.001739502,0.001602173,0.00296402,0,
00:05.1,0.001728058,0.001596451,0.002969742,0,
00:05.1,0.00170517,0.001590729,0.002986908,0,
00:05.1,0.001716614,0.001590729,0.002981186,0,
00:05.1,0.001716614,0.001590729,0.002969742,0,
00:05.1,0.001722336,0.001596451,0.002969742,0,
00:05.1,0.001728058,0.001596451,0.002975464,0,
00:05.1,0.001722336,0.001602173,0.002969742,0,
00:05.1,0.001722336,0.001607895,0.002969742,0,
00:05.1,0.001728058,0.001602173,0.002969742,0,
00:05.1,0.001739502,0.001602173,0.00296402,0,
00:05.1,0.001722336,0.001596451,0.002969742,0,
00:05.2,0.001722336,0.001596451,0.00296402,0,
00:05.2,0.001716614,0.001596451,0.002958298,0,
00:05.2,0.001728058,0.001602173,0.002958298,0,
00:05.2,0.00173378,0.001596451,0.00296402,0,
00:05.2,0.001728058,0.001596451,0.00296402,0,
00:05.2,0.001722336,0.001596451,0.002958298,0,
00:05.2,0.001739502,0.001607895,0.00296402,0,
00:05.2,0.00173378,0.001602173,0.002958298,0,
00:05.2,0.001722336,0.001596451,0.002952576,0,
00:05.2,0.001722336,0.001596451,0.002958298,0,
00:05.2,0.001722336,0.001590729,0.00296402,0,
00:05.2,0.001722336,0.001590729,0.002958298,0,
00:05.2,0.00173378,0.001590729,0.002958298,0,
00:05.2,0.001745224,0.001590729,0.002958298,0,
00:05.2,0.001716614,0.001602173,0.00296402,0,
00:05.2,0.00173378,0.001602173,0.002958298,0,
00:05.2,0.001716614,0.001596451,0.002958298,0,
00:05.2,0.001728058,0.001602173,0.002958298,0,
00:05.2,0.001728058,0.001596451,0.00296402,0,
00:05.2,0.001722336,0.001607895,0.002958298,0,
00:05.2,0.001716614,0.001602173,0.002958298,0,
00:05.2,0.001722336,0.001602173,0.002952576,0,
00:05.2,0.00173378,0.001602173,0.002941132,0,
00:05.2,0.001739502,0.001602173,0.002941132,0,
00:05.2,0.001722336,0.001602173,0.002958298,0,
00:05.3,0.001716614,0.001590729,0.002958298,0,
00:05.3,0.001728058,0.001596451,0.002958298,0,
00:05.3,0.001728058,0.001602173,0.002958298,0,
00:05.3,0.00173378,0.001596451,0.002958298,0,
00:05.3,0.001722336,0.001602173,0.002958298,0,
00:05.3,0.001728058,0.001613617,0.002952576,0,
00:05.3,0.001728058,0.001607895,0.002946854,0,
00:05.3,0.001728058,0.001596451,0.002941132,0,
00:05.3,0.001722336,0.001590729,0.002952576,0,
00:05.3,0.00173378,0.001596451,0.002958298,0,
00:05.3,0.001716614,0.001590729,0.002952576,0,
00:05.3,0.001728058,0.001596451,0.002952576,0,
00:05.3,0.001728058,0.001602173,0.002952576,0,
00:05.3,0.001728058,0.001602173,0.002952576,0,
00:05.3,0.001728058,0.001596451,0.002952576,0,
00:05.3,0.001728058,0.001596451,0.002952576,0,
00:05.3,0.001739502,0.001596451,0.002946854,0,
00:05.3,0.001768112,0.001613617,0.00293541,0,
00:05.3,0.001739502,0.001596451,0.00293541,0,
00:05.3,0.00170517,0.001585007,0.002946854,0,
00:05.3,0.001722336,0.001590729,0.002946854,0,
00:05.3,0.001728058,0.001596451,0.002941132,0,
00:05.3,0.001728058,0.001596451,0.002946854,0,
00:05.3,0.001728058,0.001602173,0.002952576,0,
00:05.3,0.001728058,0.001596451,0.002946854,0,
00:05.4,0.001745224,0.001596451,0.002941132,0,
00:05.4,0.00173378,0.001596451,0.002941132,0,
00:05.4,0.001722336,0.001590729,0.00293541,0,
00:05.4,0.001739502,0.001596451,0.002941132,0,
00:05.4,0.00173378,0.001585007,0.002941132,0,
00:05.4,0.001722336,0.001585007,0.002946854,0,
00:05.4,0.00173378,0.001590729,0.002941132,0,
00:05.4,0.00173378,0.001596451,0.002941132,0,
00:05.4,0.00173378,0.001590729,0.002941132,0,
00:05.4,0.001739502,0.001590729,0.002941132,0,
00:05.4,0.001722336,0.001596451,0.002941132,0,
00:05.4,0.00173378,0.001596451,0.002941132,0,
00:05.4,0.001728058,0.001596451,0.002941132,0,
00:05.4,0.001739502,0.001596451,0.002929688,0,
00:05.4,0.001722336,0.001590729,0.002941132,0,
00:05.4,0.001728058,0.001590729,0.002941132,0,
00:05.4,0.001728058,0.001590729,0.002941132,0,
00:05.4,0.001739502,0.001602173,0.00293541,0,
00:05.4,0.00173378,0.001602173,0.002941132,0,
00:05.4,0.001722336,0.001596451,0.002941132,0,
00:05.4,0.001728058,0.001596451,0.002941132,0,
00:05.4,0.001722336,0.001596451,0.00293541,0,
00:05.4,0.00173378,0.001602173,0.002929688,0,
00:05.4,0.00173378,0.001590729,0.002929688,0,
00:05.4,0.001728058,0.001596451,0.00293541,0,
00:05.5,0.001745224,0.001596451,0.00293541,0,
00:05.5,0.001745224,0.001602173,0.002929688,0,
00:05.5,0.001710892,0.001590729,0.002929688,0,
00:05.5,0.001722336,0.001590729,0.002941132,0,
00:05.5,0.001728058,0.001596451,0.002941132,0,
00:05.5,0.001739502,0.001596451,0.002941132,0,
00:05.5,0.001722336,0.001590729,0.00293541,0,
00:05.5,0.001728058,0.001596451,0.002941132,0,
00:05.5,0.001722336,0.001590729,0.00293541,0,
00:05.5,0.001722336,0.001590729,0.00293541,0,
00:05.5,0.001728058,0.001596451,0.002929688,0,
00:05.5,0.001722336,0.001590729,0.00293541,0,
00:05.5,0.001728058,0.001585007,0.00293541,0,
00:05.5,0.001739502,0.001590729,0.002929688,0,
00:05.5,0.001728058,0.001585007,0.00293541,0,
00:05.5,0.001722336,0.001590729,0.002941132,0,
00:05.5,0.001728058,0.001590729,0.00293541,0,
00:05.5,0.001728058,0.001585007,0.00293541,0,
00:05.5,0.00173378,0.001590729,0.00293541,0,
00:05.5,0.00173378,0.001579285,0.00293541,0,
00:05.5,0.00173378,0.001579285,0.002929688,0,
00:05.5,0.001728058,0.001590729,0.00293541,0,
00:05.5,0.001722336,0.001579285,0.00293541,0,
00:05.5,0.001728058,0.001585007,0.002929688,0,
00:05.5,0.001739502,0.001585007,0.002929688,0,
00:05.6,0.001728058,0.001590729,0.002929688,0,
00:05.6,0.00173378,0.001585007,0.00293541,0,
00:05.6,0.001728058,0.001579285,0.00293541,0,
00:05.6,0.001739502,0.001585007,0.002923965,0,
00:05.6,0.001728058,0.001590729,0.002929688,0,
00:05.6,0.001722336,0.001585007,0.002929688,0,
00:05.6,0.001722336,0.001590729,0.002941132,0,
00:05.6,0.001716614,0.001579285,0.002929688,0,
00:05.6,0.001716614,0.001585007,0.00293541,0,
00:05.6,0.001739502,0.001596451,0.00293541,0,
00:05.6,0.001722336,0.001596451,0.002929688,0,
00:05.6,0.001710892,0.001585007,0.002929688,0,
00:05.6,0.001728058,0.001590729,0.002929688,0,
00:05.6,0.001728058,0.001590729,0.00293541,0,
00:05.6,0.001722336,0.001590729,0.00293541,0,
00:05.6,0.001722336,0.001590729,0.002929688,0,
00:05.6,0.001722336,0.001585007,0.00293541,0,
00:05.6,0.001722336,0.001585007,0.002929688,0,
00:05.6,0.001716614,0.001579285,0.002929688,0,
00:05.6,0.001728058,0.001590729,0.00293541,0,
00:05.6,0.00173378,0.001596451,0.002923965,0,
00:05.6,0.001716614,0.001585007,0.002918243,0,
00:05.6,0.001722336,0.001590729,0.002941132,0,
00:05.6,0.001716614,0.001590729,0.00293541,0,
00:05.6,0.001728058,0.001590729,0.00293541,0,
00:05.7,0.001722336,0.001585007,0.002929688,0,
00:05.7,0.001722336,0.001585007,0.00293541,0,
00:05.7,0.001728058,0.001590729,0.002929688,0,
00:05.7,0.00173378,0.001596451,0.002929688,0,
00:05.7,0.001745224,0.001596451,0.002923965,0,
00:05.7,0.001728058,0.001590729,0.002918243,0,
00:05.7,0.001722336,0.001590729,0.00293541,0,
00:05.7,0.001710892,0.001579285,0.002923965,0,
00:05.7,0.001722336,0.001579285,0.002929688,0,
00:05.7,0.001716614,0.001573563,0.00293541,0,
00:05.7,0.001722336,0.001579285,0.002929688,0,
00:05.7,0.00173378,0.001579285,0.002929688,0,
00:05.7,0.001722336,0.001579285,0.002929688,0,
00:05.7,0.001710892,0.001585007,0.002929688,0,
00:05.7,0.001722336,0.001585007,0.002929688,0,
00:05.7,0.001716614,0.001579285,0.002923965,0,
00:05.7,0.001716614,0.001585007,0.002923965,0,
00:05.7,0.001722336,0.001585007,0.002929688,0,
00:05.7,0.001716614,0.001579285,0.002929688,0,
00:05.7,0.001728058,0.001585007,0.00293541,0,
00:05.7,0.001722336,0.001579285,0.002929688,0,
00:05.7,0.001710892,0.001579285,0.002929688,0,
00:05.7,0.001722336,0.001585007,0.002923965,0,
00:05.7,0.001710892,0.001573563,0.002923965,0,
00:05.7,0.001716614,0.001585007,0.002923965,0,
00:05.8,0.001728058,0.001585007,0.002923965,0,
00:05.8,0.00173378,0.001596451,0.002918243,0,
00:05.8,0.001716614,0.001585007,0.002929688,0,
00:05.8,0.001722336,0.001573563,0.00293541,0,
00:05.8,0.001710892,0.001567841,0.002929688,0,
00:05.8,0.001716614,0.001567841,0.002929688,0,
00:05.8,0.001710892,0.001573563,0.002929688,0,
00:05.8,0.001722336,0.001579285,0.002929688,0,
00:05.8,0.001710892,0.001579285,0.002923965,0,
00:05.8,0.001716614,0.001573563,0.00293541,0,
00:05.8,0.001716614,0.001573563,0.00293541,0,
00:05.8,0.001722336,0.001579285,0.00293541,0,
00:05.8,0.001722336,0.001579285,0.002929688,0,
00:05.8,0.001716614,0.001573563,0.00293541,0,
00:05.8,0.001716614,0.001573563,0.00293541,0,
00:05.8,0.001710892,0.001573563,0.002929688,0,
00:05.8,0.001716614,0.001579285,0.00293541,0,
00:05.8,0.001722336,0.001579285,0.002929688,0,
00:05.8,0.001728058,0.001579285,0.002923965,0,
00:05.8,0.001722336,0.001579285,0.002918243,0,
00:05.8,0.001722336,0.001567841,0.00293541,0,
00:05.8,0.001716614,0.001579285,0.00293541,0,
00:05.8,0.001722336,0.001573563,0.00293541,0,
00:05.8,0.001710892,0.001573563,0.002941132,0,
00:05.8,0.001716614,0.001579285,0.00293541,0,
00:05.9,0.001716614,0.001579285,0.00293541,0,
00:05.9,0.001728058,0.001585007,0.00293541,0,
00:05.9,0.00173378,0.001585007,0.002929688,0,
00:05.9,0.001716614,0.001567841,0.002929688,0,
00:05.9,0.00170517,0.001562119,0.002941132,0,
00:05.9,0.00170517,0.001562119,0.002946854,0,
00:05.9,0.001716614,0.001573563,0.002941132,0,
00:05.9,0.001722336,0.001573563,0.002941132,0,
00:05.9,0.001716614,0.001567841,0.002941132,0,
00:05.9,0.001722336,0.001573563,0.002941132,0,
00:05.9,0.001716614,0.001573563,0.00293541,0,
00:05.9,0.001716614,0.001567841,0.00293541,0,
00:05.9,0.001710892,0.001567841,0.002941132,0,
00:05.9,0.001722336,0.001567841,0.002941132,0,
00:05.9,0.001716614,0.001573563,0.00293541,0,
00:05.9,0.001710892,0.001579285,0.002929688,0,
00:05.9,0.001716614,0.001573563,0.002946854,0,
00:05.9,0.001716614,0.001567841,0.002946854,0,
00:05.9,0.001716614,0.001562119,0.002941132,0,
00:05.9,0.001710892,0.001562119,0.00293541,0,
00:05.9,0.001710892,0.001562119,0.002946854,0,
00:05.9,0.001710892,0.001567841,0.002941132,0,
00:05.9,0.001716614,0.001573563,0.002941132,0,
00:05.9,0.001739502,0.001579285,0.00293541,0,
00:05.9,0.001739502,0.001573563,0.00293541,0,
00:06.0,0.00170517,0.001556396,0.00293541,0,
00:06.0,0.001688004,0.001556396,0.002952576,0,
00:06.0,0.00170517,0.001556396,0.002958298,0,
00:06.0,0.00170517,0.001562119,0.002946854,0,
00:06.0,0.001716614,0.001567841,0.002952576,0,
00:06.0,0.001716614,0.001562119,0.002952576,0,
00:06.0,0.001710892,0.001562119,0.002946854,0,
00:06.0,0.001716614,0.001562119,0.002946854,0,
00:06.0,0.001710892,0.001556396,0.002941132,0,
00:06.0,0.00173378,0.001585007,0.002946854,0,
00:06.0,0.001716614,0.001567841,0.00293541,0,
00:06.0,0.001710892,0.001556396,0.002946854,0,
00:00:06,0.001710892,0.001550674,0.002952576,0,
00:06.0,0.00170517,0.001550674,0.002958298,0,
00:06.0,0.00170517,0.001550674,0.002952576,0,
00:06.0,0.001710892,0.001556396,0.002952576,0,
00:06.0,0.001710892,0.001556396,0.002952576,0,
00:06.0,0.001710892,0.001562119,0.002952576,0,
00:06.0,0.001716614,0.001556396,0.002946854,0,
00:06.0,0.001716614,0.001562119,0.002946854,0,
00:06.0,0.001722336,0.001567841,0.002941132,0,
00:06.0,0.001722336,0.001556396,0.002952576,0,
00:06.0,0.001722336,0.001556396,0.002946854,0,
00:06.0,0.001693726,0.001550674,0.002946854,0,
00:06.0,0.001693726,0.001544952,0.002952576,0,
00:06.1,0.00170517,0.001550674,0.002946854,0,
00:06.1,0.001716614,0.001550674,0.002952576,0,
00:06.1,0.00170517,0.001544952,0.002958298,0,
00:06.1,0.001716614,0.001556396,0.002958298,0,
00:06.1,0.001710892,0.001556396,0.002958298,0,
00:06.1,0.001710892,0.001550674,0.002958298,0,
00:06.1,0.001722336,0.001556396,0.002952576,0,
00:06.1,0.001722336,0.001562119,0.002946854,0,
00:06.1,0.001722336,0.001562119,0.002946854,0,
00:06.1,0.001710892,0.001556396,0.002946854,0,
00:06.1,0.00170517,0.001544952,0.002958298,0,
00:06.1,0.001710892,0.00153923,0.002958298,0,
00:06.1,0.001710892,0.001550674,0.002958298,0,
00:06.1,0.001716614,0.001544952,0.00296402,0,
00:06.1,0.001716614,0.001544952,0.00296402,0,
00:06.1,0.001716614,0.001556396,0.00296402,0,
00:06.1,0.001716614,0.001550674,0.002958298,0,
00:06.1,0.001722336,0.001556396,0.002952576,0,
00:06.1,0.001750946,0.001567841,0.002946854,0,
00:06.1,0.001710892,0.001544952,0.002946854,0,
00:06.1,0.00170517,0.001550674,0.002958298,0,
00:06.1,0.00170517,0.001544952,0.002958298,0,
00:06.1,0.001716614,0.00153923,0.002952576,0,
00:06.1,0.001710892,0.00153923,0.002958298,0,
00:06.1,0.001710892,0.001544952,0.002958298,0,
00:06.2,0.00170517,0.001544952,0.00296402,0,
00:06.2,0.00170517,0.001550674,0.00296402,0,
00:06.2,0.001710892,0.001544952,0.002958298,0,
00:06.2,0.001710892,0.001544952,0.002958298,0,
00:06.2,0.001722336,0.001556396,0.002952576,0,
00:06.2,0.001728058,0.001550674,0.002946854,0,
00:06.2,0.001710892,0.001550674,0.002958298,0,
00:06.2,0.001699448,0.001533508,0.00296402,0,
00:06.2,0.00170517,0.00153923,0.00296402,0,
00:06.2,0.001710892,0.001544952,0.002958298,0,
00:06.2,0.00170517,0.00153923,0.002958298,0,
00:06.2,0.001716614,0.001550674,0.002958298,0,
00:06.2,0.001728058,0.001556396,0.002952576,0,
00:06.2,0.001716614,0.00153923,0.002946854,0,
00:06.2,0.001710892,0.00153923,0.002958298,0,
00:06.2,0.001699448,0.00153923,0.002969742,0,
00:06.2,0.001710892,0.001550674,0.00296402,0,
00:06.2,0.00170517,0.00153923,0.002958298,0,
00:06.2,0.00170517,0.00153923,0.00296402,0,
00:06.2,0.001710892,0.001544952,0.00296402,0,
00:06.2,0.001722336,0.001544952,0.002958298,0,
00:06.2,0.00170517,0.001544952,0.002969742,0,
00:06.2,0.001728058,0.001550674,0.00296402,0,
00:06.2,0.001716614,0.001533508,0.00296402,0,
00:06.2,0.001699448,0.001533508,0.002969742,0,
00:06.3,0.001699448,0.001527786,0.00296402,0,
00:06.3,0.00170517,0.001533508,0.00296402,0,
00:06.3,0.00170517,0.00153923,0.00296402,0,
00:06.3,0.001699448,0.001533508,0.002969742,0,
00:06.3,0.00170517,0.001533508,0.002969742,0,
00:06.3,0.001716614,0.001544952,0.002969742,0,
00:06.3,0.001728058,0.001550674,0.002969742,0,
00:06.3,0.00173378,0.001544952,0.002958298,0,
00:06.3,0.001710892,0.001527786,0.00296402,0,
00:06.3,0.001688004,0.001527786,0.002969742,0,
00:06.3,0.001699448,0.001533508,0.002981186,0,
00:06.3,0.00170517,0.00153923,0.002975464,0,
00:06.3,0.001722336,0.001550674,0.002969742,0,
00:06.3,0.001722336,0.00153923,0.00296402,0,
00:06.3,0.00170517,0.00153923,0.002969742,0,
00:06.3,0.001716614,0.00153923,0.002969742,0,
00:06.3,0.001710892,0.001527786,0.002958298,0,
00:06.3,0.001699448,0.001527786,0.002958298,0,
00:06.3,0.00170517,0.001527786,0.002975464,0,
00:06.3,0.001710892,0.00153923,0.002969742,0,
00:06.3,0.001710892,0.00153923,0.00296402,0,
00:06.3,0.001710892,0.00153923,0.002969742,0,
00:06.3,0.001716614,0.001527786,0.00296402,0,
00:06.3,0.00170517,0.001527786,0.00296402,0,
00:06.3,0.001699448,0.001527786,0.002969742,0,
00:06.4,0.001710892,0.00153923,0.00296402,0,
00:06.4,0.001699448,0.001533508,0.002969742,0,
00:06.4,0.001710892,0.001527786,0.002969742,0,
00:06.4,0.001716614,0.001533508,0.002969742,0,
00:06.4,0.00170517,0.001533508,0.002975464,0,
00:06.4,0.001710892,0.001533508,0.002975464,0,
00:06.4,0.00170517,0.001527786,0.002969742,0,
00:06.4,0.001710892,0.001533508,0.002969742,0,
00:06.4,0.001710892,0.001527786,0.00296402,0,
00:06.4,0.00170517,0.001522064,0.002969742,0,
00:06.4,0.001710892,0.001533508,0.00296402,0,
00:06.4,0.001710892,0.001533508,0.00296402,0,
00:06.4,0.001722336,0.001527786,0.002958298,0,
00:06.4,0.00170517,0.001522064,0.002958298,0,
00:06.4,0.001693726,0.001527786,0.00296402,0,
00:06.4,0.001710892,0.001533508,0.00296402,0,
00:06.4,0.001716614,0.001527786,0.00296402,0,
00:06.4,0.001710892,0.001527786,0.00296402,0,
00:06.4,0.001693726,0.001516342,0.002969742,0,
00:06.4,0.001693726,0.001522064,0.00296402,0,
00:06.4,0.001693726,0.001516342,0.00296402,0,
00:06.4,0.00170517,0.001522064,0.002969742,0,
00:06.4,0.00170517,0.001544952,0.002969742,0,
00:06.4,0.00170517,0.001527786,0.002969742,0,
00:06.4,0.001699448,0.001516342,0.002975464,0,
00:06.5,0.00170517,0.001522064,0.002969742,0,
00:06.5,0.00170517,0.001522064,0.00296402,0,
00:06.5,0.001699448,0.001516342,0.00296402,0,
00:06.5,0.001699448,0.001516342,0.00296402,0,
00:06.5,0.001699448,0.001522064,0.002969742,0,
00:06.5,0.001699448,0.001522064,0.002975464,0,
00:06.5,0.001699448,0.001516342,0.00296402,0,
00:06.5,0.00170517,0.001516342,0.00296402,0,
00:06.5,0.001716614,0.001522064,0.002958298,0,
00:06.5,0.001699448,0.001522064,0.00296402,0,
00:06.5,0.001699448,0.001527786,0.002975464,0,
00:06.5,0.001699448,0.001516342,0.00296402,0,
00:06.5,0.001693726,0.00151062,0.00296402,0,
00:06.5,0.001699448,0.00151062,0.002969742,0,
00:06.5,0.00170517,0.001522064,0.00296402,0,
00:06.5,0.001710892,0.001522064,0.00296402,0,
00:06.5,0.00170517,0.001527786,0.002958298,0,
00:06.5,0.00170517,0.001522064,0.002969742,0,
00:06.5,0.001699448,0.001516342,0.002975464,0,
00:06.5,0.001693726,0.001516342,0.002969742,0,
00:06.5,0.001693726,0.001516342,0.002975464,0,
00:06.5,0.001699448,0.001516342,0.002969742,0,
00:06.5,0.001716614,0.001516342,0.00296402,0,
00:06.5,0.00170517,0.001516342,0.002969742,0,
00:06.5,0.001688004,0.001516342,0.002969742,0,
00:06.6,0.001699448,0.001516342,0.002969742,0,
00:06.6,0.001699448,0.001516342,0.002975464,0,
00:06.6,0.001699448,0.001516342,0.002969742,0,
00:06.6,0.00170517,0.001522064,0.002969742,0,
00:06.6,0.00170517,0.001527786,0.002975464,0,
00:06.6,0.001699448,0.001527786,0.002969742,0,
00:06.6,0.00170517,0.001516342,0.00296402,0,
00:06.6,0.00170517,0.001516342,0.002975464,0,
00:06.6,0.001716614,0.001522064,0.002975464,0,
00:06.6,0.001688004,0.00151062,0.002975464,0,
00:06.6,0.00170517,0.00151062,0.002975464,0,
00:06.6,0.00170517,0.00151062,0.002969742,0,
00:06.6,0.00170517,0.00151062,0.002969742,0,
00:06.6,0.001699448,0.001504898,0.002975464,0,
00:06.6,0.00170517,0.00151062,0.002975464,0,
00:06.6,0.001693726,0.001516342,0.002975464,0,
00:06.6,0.001716614,0.001522064,0.002958298,0,
00:06.6,0.00170517,0.00151062,0.00296402,0,
00:06.6,0.001693726,0.00151062,0.002975464,0,
00:06.6,0.001699448,0.00151062,0.002981186,0,
00:06.6,0.001699448,0.001516342,0.002975464,0,
00:06.6,0.001699448,0.001516342,0.002975464,0,
00:06.6,0.00170517,0.001516342,0.002969742,0,
00:06.6,0.001699448,0.00151062,0.002969742,0,
00:06.6,0.001699448,0.00151062,0.002969742,0,
00:06.7,0.001699448,0.001504898,0.00296402,0,
00:06.7,0.001699448,0.001499176,0.002975464,0,
00:06.7,0.00170517,0.001504898,0.002975464,0,
00:06.7,0.001716614,0.001516342,0.002975464,0,
00:06.7,0.001710892,0.001516342,0.002975464,0,
00:06.7,0.001716614,0.00151062,0.002981186,0,
00:06.7,0.00170517,0.001504898,0.00296402,0,
00:06.7,0.001682281,0.001499176,0.002981186,0,
00:06.7,0.001693726,0.001504898,0.002986908,0,
00:06.7,0.001693726,0.001499176,0.002986908,0,
00:06.7,0.001693726,0.001504898,0.002981186,0,
00:06.7,0.00170517,0.00151062,0.002981186,0,
00:06.7,0.001710892,0.001504898,0.002975464,0,
00:06.7,0.001716614,0.00151062,0.002981186,0,
00:06.7,0.001693726,0.001504898,0.002986908,0,
00:06.7,0.001682281,0.001504898,0.002981186,0,
00:06.7,0.001699448,0.001504898,0.002981186,0,
00:06.7,0.00170517,0.001504898,0.002981186,0,
00:06.7,0.00170517,0.001504898,0.002981186,0,
00:06.7,0.00170517,0.00151062,0.002986908,0,
00:06.7,0.001710892,0.001516342,0.002981186,0,
00:06.7,0.001710892,0.00151062,0.002975464,0,
00:06.7,0.001688004,0.001493454,0.002975464,0,
00:06.7,0.001688004,0.001493454,0.002986908,0,
00:06.7,0.001693726,0.001493454,0.002981186,0,
00:06.8,0.001699448,0.001493454,0.002981186,0,
00:06.8,0.00170517,0.001504898,0.002981186,0,
00:06.8,0.001693726,0.001504898,0.002981186,0,
00:06.8,0.001699448,0.001504898,0.002986908,0,
00:06.8,0.00170517,0.00151062,0.002986908,0,
00:06.8,0.001699448,0.001504898,0.002986908,0,
00:06.8,0.001699448,0.001499176,0.002981186,0,
00:06.8,0.001699448,0.001499176,0.002986908,0,
00:06.8,0.00170517,0.001499176,0.002981186,0,
00:06.8,0.001699448,0.001493454,0.002975464,0,
00:06.8,0.001693726,0.001504898,0.002981186,0,
00:06.8,0.001688004,0.001499176,0.002981186,0,
00:06.8,0.001693726,0.001499176,0.002986908,0,
00:06.8,0.001693726,0.001493454,0.002981186,0,
00:06.8,0.001710892,0.001499176,0.002981186,0,
00:06.8,0.00170517,0.001499176,0.002981186,0,
00:06.8,0.001682281,0.001493454,0.002986908,0,
00:06.8,0.001682281,0.001487732,0.002981186,0,
00:06.8,0.001699448,0.001487732,0.002981186,0,
00:06.8,0.001699448,0.001499176,0.002975464,0,
00:06.8,0.001693726,0.001487732,0.002981186,0,
00:06.8,0.00170517,0.001493454,0.002986908,0,
00:06.8,0.001693726,0.001499176,0.002975464,0,
00:06.8,0.001693726,0.001487732,0.002975464,0,
00:06.8,0.001699448,0.001487732,0.002981186,0,
00:06.9,0.001693726,0.001487732,0.002986908,0,
00:06.9,0.001688004,0.001487732,0.002981186,0,
00:06.9,0.001699448,0.001487732,0.002975464,0,
00:06.9,0.001699448,0.001487732,0.002981186,0,
00:06.9,0.001693726,0.001487732,0.002975464,0,
00:06.9,0.001688004,0.001487732,0.002975464,0,
00:06.9,0.001693726,0.00148201,0.002981186,0,
00:06.9,0.001693726,0.00148201,0.002975464,0,
00:06.9,0.001688004,0.001487732,0.002986908,0,
00:06.9,0.001693726,0.001487732,0.002981186,0,
00:06.9,0.001693726,0.001487732,0.002981186,0,
00:06.9,0.001688004,0.00148201,0.002975464,0,
00:06.9,0.001699448,0.00148201,0.002975464,0,
00:06.9,0.001693726,0.001476288,0.002981186,0,
00:06.9,0.001693726,0.001476288,0.002981186,0,
00:06.9,0.001693726,0.00148201,0.002975464,0,
00:06.9,0.001699448,0.001487732,0.002975464,0,
00:06.9,0.001688004,0.00148201,0.002975464,0,
00:06.9,0.001688004,0.001476288,0.002981186,0,
00:06.9,0.001693726,0.00148201,0.002975464,0,
00:06.9,0.001688004,0.001476288,0.002981186,0,
00:06.9,0.001688004,0.00148201,0.002969742,0,
00:06.9,0.001693726,0.001476288,0.002975464,0,
00:06.9,0.001693726,0.001476288,0.002969742,0,
00:06.9,0.001693726,0.001470566,0.002975464,0,
00:07.0,0.00170517,0.001476288,0.002975464,0,
00:07.0,0.001682281,0.001476288,0.002975464,0,
00:07.0,0.001682281,0.001476288,0.002981186,0,
00:07.0,0.001693726,0.001470566,0.002981186,0,
00:07.0,0.001682281,0.001470566,0.002975464,0,
00:07.0,0.001688004,0.001476288,0.002975464,0,
00:07.0,0.001699448,0.001476288,0.002975464,0,
00:07.0,0.001699448,0.001470566,0.002969742,0,
00:07.0,0.001676559,0.001464844,0.002981186,0,
00:07.0,0.001682281,0.001464844,0.002986908,0,
00:07.0,0.001682281,0.001464844,0.002981186,0,
00:07.0,0.001688004,0.001470566,0.002981186,0,
00:00:07,0.001682281,0.001470566,0.002981186,0,
00:07.0,0.001699448,0.001487732,0.002981186,0,
00:07.0,0.001688004,0.001470566,0.002975464,0,
00:07.0,0.001670837,0.001447678,0.002975464,0,
00:07.0,0.001676559,0.001459122,0.002975464,0,
00:07.0,0.001682281,0.001464844,0.002981186,0,
00:07.0,0.001682281,0.001464844,0.002975464,0,
00:07.0,0.001682281,0.001459122,0.002981186,0,
00:07.0,0.001693726,0.001470566,0.002975464,0,
00:07.0,0.001693726,0.001470566,0.002969742,0,
00:07.0,0.001693726,0.001476288,0.002975464,0,
00:07.0,0.001688004,0.001459122,0.002975464,0,
00:07.0,0.001682281,0.001459122,0.002981186,0,
00:07.1,0.001682281,0.001459122,0.002981186,0,
00:07.1,0.001688004,0.001464844,0.002975464,0,
00:07.1,0.001682281,0.001459122,0.002975464,0,
00:07.1,0.001676559,0.001459122,0.002975464,0,
00:07.1,0.001693726,0.001464844,0.002975464,0,
00:07.1,0.001699448,0.001459122,0.002969742,0,
00:07.1,0.001693726,0.001464844,0.002969742,0,
00:07.1,0.001682281,0.001464844,0.002975464,0,
00:07.1,0.001670837,0.0014534,0.002986908,0,
00:07.1,0.001676559,0.001447678,0.002981186,0,
00:07.1,0.001682281,0.0014534,0.002975464,0,
00:07.1,0.001682281,0.001459122,0.002975464,0,
00:07.1,0.001688004,0.001464844,0.002975464,0,
00:07.1,0.001688004,0.001459122,0.002969742,0,
00:07.1,0.001676559,0.001447678,0.002969742,0,
00:07.1,0.001676559,0.0014534,0.002969742,0,
00:07.1,0.001676559,0.001447678,0.002975464,0,
00:07.1,0.001676559,0.001441956,0.002975464,0,
00:07.1,0.001693726,0.0014534,0.002969742,0,
00:07.1,0.001688004,0.001447678,0.00296402,0,
00:07.1,0.001670837,0.001447678,0.00296402,0,
00:07.1,0.001676559,0.001447678,0.002975464,0,
00:07.1,0.001682281,0.0014534,0.002981186,0,
00:07.1,0.001676559,0.0014534,0.002981186,0,
00:07.1,0.001670837,0.001447678,0.002975464,0,
00:07.2,0.001676559,0.001447678,0.002975464,0,
00:07.2,0.001682281,0.001447678,0.002969742,0,
00:07.2,0.001693726,0.001447678,0.00296402,0,
00:07.2,0.001693726,0.001447678,0.002969742,0,
00:07.2,0.001647949,0.001441956,0.002975464,0,
00:07.2,0.001670837,0.001447678,0.002969742,0,
00:07.2,0.001670837,0.001441956,0.00296402,0,
00:07.2,0.001665115,0.001447678,0.002969742,0,
00:07.2,0.001682281,0.001447678,0.002969742,0,
00:07.2,0.001676559,0.001447678,0.002958298,0,
00:07.2,0.001676559,0.001441956,0.00296402,0,
00:07.2,0.001665115,0.001441956,0.002969742,0,
00:07.2,0.001688004,0.001447678,0.002958298,0,
00:07.2,0.001688004,0.001459122,0.002969742,0,
00:07.2,0.001670837,0.001441956,0.00296402,0,
00:07.2,0.001670837,0.001441956,0.00296402,0,
00:07.2,0.001670837,0.001441956,0.00296402,0,
00:07.2,0.001665115,0.001436234,0.002975464,0,
00:07.2,0.001670837,0.001441956,0.002969742,0,
00:07.2,0.001665115,0.001436234,0.002975464,0,
00:07.2,0.001676559,0.001436234,0.002975464,0,
00:07.2,0.001682281,0.001436234,0.002969742,0,
00:07.2,0.001676559,0.001441956,0.002969742,0,
00:07.2,0.001670837,0.001441956,0.00296402,0,
00:07.2,0.001659393,0.001436234,0.002969742,0,
00:07.3,0.001665115,0.001441956,0.00296402,0,
00:07.3,0.001670837,0.001441956,0.00296402,0,
00:07.3,0.001670837,0.001436234,0.002969742,0,
00:07.3,0.001676559,0.001441956,0.002969742,0,
00:07.3,0.001676559,0.001441956,0.002969742,0,
00:07.3,0.001676559,0.001447678,0.00296402,0,
00:07.3,0.001670837,0.001441956,0.002969742,0,
00:07.3,0.001665115,0.001441956,0.00296402,0,
00:07.3,0.001665115,0.001436234,0.00296402,0,
00:07.3,0.001665115,0.001430511,0.002969742,0,
00:07.3,0.001665115,0.001436234,0.00296402,0,
00:07.3,0.001659393,0.001430511,0.002969742,0,
00:07.3,0.001659393,0.001430511,0.002975464,0,
00:07.3,0.001670837,0.001441956,0.002975464,0,
00:07.3,0.001665115,0.001436234,0.002975464,0,
00:07.3,0.001665115,0.001436234,0.002975464,0,
00:07.3,0.001665115,0.001441956,0.002969742,0,
00:07.3,0.001670837,0.001430511,0.002969742,0,
00:07.3,0.001676559,0.001436234,0.002969742,0,
00:07.3,0.001670837,0.001436234,0.00296402,0,
00:07.3,0.001676559,0.001441956,0.002975464,0,
00:07.3,0.001670837,0.001447678,0.002969742,0,
00:07.3,0.001653671,0.001441956,0.002969742,0,
00:07.3,0.001659393,0.001436234,0.002969742,0,
00:07.3,0.001676559,0.001436234,0.002975464,0,
00:07.4,0.00170517,0.001441956,0.002969742,0,
00:07.4,0.001716614,0.001447678,0.002969742,0,
00:07.4,0.001716614,0.001430511,0.00296402,0,
00:07.4,0.00173378,0.001424789,0.002969742,0,
00:07.4,0.00176239,0.001430511,0.00296402,0,
00:07.4,0.001791,0.001436234,0.002969742,0,
00:07.4,0.001791,0.001436234,0.002969742,0,
00:07.4,0.001796722,0.001436234,0.00296402,0,
00:07.4,0.001802444,0.001436234,0.00296402,0,
00:07.4,0.001802444,0.001436234,0.002969742,0,
00:07.4,0.001802444,0.001436234,0.00296402,0,
00:07.4,0.001808167,0.001436234,0.00296402,0,
00:07.4,0.001796722,0.001436234,0.002969742,0,
00:07.4,0.001796722,0.001430511,0.002969742,0,
00:07.4,0.001796722,0.001430511,0.00296402,0,
00:07.4,0.001796722,0.001430511,0.00296402,0,
00:07.4,0.001808167,0.001436234,0.00296402,0,
00:07.4,0.001813889,0.001436234,0.00296402,0,
00:07.4,0.001796722,0.001436234,0.002969742,0,
00:07.4,0.001785278,0.001424789,0.002969742,0,
00:07.4,0.001796722,0.001430511,0.002969742,0,
00:07.4,0.001802444,0.001436234,0.00296402,0,
00:07.4,0.001802444,0.001430511,0.002969742,0,
00:07.4,0.001796722,0.001424789,0.00296402,0,
00:07.4,0.001796722,0.001424789,0.00296402,0,
00:07.5,0.001802444,0.001430511,0.002969742,0,
00:07.5,0.001802444,0.001436234,0.00296402,0,
00:07.5,0.001791,0.001424789,0.002952576,0,
00:07.5,0.001802444,0.001424789,0.002969742,0,
00:07.5,0.001785278,0.001424789,0.002975464,0,
00:07.5,0.001791,0.001430511,0.002975464,0,
00:07.5,0.001796722,0.001430511,0.00296402,0,
00:07.5,0.001785278,0.001424789,0.002958298,0,
00:07.5,0.001785278,0.001419067,0.002969742,0,
00:07.5,0.001791,0.001424789,0.002969742,0,
00:07.5,0.001791,0.001430511,0.002969742,0,
00:07.5,0.001785278,0.001419067,0.002969742,0,
00:07.5,0.001796722,0.001424789,0.00296402,0,
00:07.5,0.001785278,0.001419067,0.002969742,0,
00:07.5,0.001791,0.001424789,0.002969742,0,
00:07.5,0.001813889,0.001430511,0.00296402,0,
00:07.5,0.001779556,0.001419067,0.002969742,0,
00:07.5,0.001779556,0.001424789,0.002969742,0,
00:07.5,0.001779556,0.001419067,0.002969742,0,
00:07.5,0.001791,0.001424789,0.002975464,0,
00:07.5,0.001785278,0.001424789,0.002969742,0,
00:07.5,0.001785278,0.001419067,0.00296402,0,
00:07.5,0.001785278,0.001419067,0.00296402,0,
00:07.5,0.001785278,0.001419067,0.002969742,0,
00:07.5,0.001791,0.001424789,0.002969742,0,
00:07.6,0.001785278,0.001419067,0.002975464,0,
00:07.6,0.001779556,0.001407623,0.002969742,0,
00:07.6,0.001791,0.001419067,0.002969742,0,
00:07.6,0.001785278,0.001413345,0.002975464,0,
00:07.6,0.001779556,0.001413345,0.002975464,0,
00:07.6,0.001779556,0.001419067,0.002975464,0,
00:07.6,0.001785278,0.001419067,0.002975464,0,
00:07.6,0.001785278,0.001419067,0.002969742,0,
00:07.6,0.001773834,0.001407623,0.002969742,0,
00:07.6,0.001779556,0.001413345,0.002975464,0,
00:07.6,0.001796722,0.001419067,0.002969742,0,
00:07.6,0.001779556,0.001419067,0.002975464,0,
00:07.6,0.001796722,0.001419067,0.002975464,0,
00:07.6,0.001802444,0.001424789,0.002969742,0,
00:07.6,0.001779556,0.001419067,0.002975464,0,
00:07.6,0.001773834,0.001407623,0.002969742,0,
00:07.6,0.001779556,0.001419067,0.002975464,0,
00:07.6,0.001779556,0.001413345,0.002975464,0,
00:07.6,0.001779556,0.001413345,0.002975464,0,
00:07.6,0.001785278,0.001413345,0.002975464,0,
00:07.6,0.001791,0.001413345,0.002969742,0,
00:07.6,0.001796722,0.001419067,0.00296402,0,
00:07.6,0.001779556,0.001407623,0.002969742,0,
00:07.6,0.001779556,0.001401901,0.002975464,0,
00:07.6,0.001791,0.001407623,0.002969742,0,
00:07.7,0.001779556,0.001407623,0.002975464,0,
00:07.7,0.001779556,0.001413345,0.002981186,0,
00:07.7,0.001785278,0.001413345,0.002975464,0,
00:07.7,0.001791,0.001407623,0.002969742,0,
00:07.7,0.001796722,0.001424789,0.002969742,0,
00:07.7,0.001785278,0.001413345,0.002975464,0,
00:07.7,0.001785278,0.001407623,0.002975464,0,
00:07.7,0.001779556,0.001407623,0.002975464,0,
00:07.7,0.001773834,0.001401901,0.002969742,0,
00:07.7,0.001791,0.001413345,0.002969742,0,
00:07.7,0.001779556,0.001396179,0.00296402,0,
00:07.7,0.001773834,0.001396179,0.002969742,0,
00:07.7,0.001796722,0.001401901,0.002975464,0,
00:07.7,0.001808167,0.001407623,0.002969742,0,
00:07.7,0.001768112,0.001401901,0.002975464,0,
00:07.7,0.001779556,0.001401901,0.002975464,0,
00:07.7,0.001779556,0.001401901,0.002969742,0,
00:07.7,0.001785278,0.001401901,0.002975464,0,
00:07.7,0.001796722,0.001413345,0.002975464,0,
00:07.7,0.001796722,0.001407623,0.002975464,0,
00:07.7,0.001785278,0.001401901,0.002975464,0,
00:07.7,0.001779556,0.001401901,0.002969742,0,
00:07.7,0.001779556,0.001396179,0.002975464,0,
00:07.7,0.001791,0.001396179,0.002981186,0,
00:07.7,0.001791,0.001413345,0.002969742,0,
00:07.8,0.001785278,0.001407623,0.002975464,0,
00:07.8,0.001779556,0.001396179,0.002975464,0,
00:07.8,0.001785278,0.001396179,0.002981186,0,
00:07.8,0.001779556,0.001401901,0.002975464,0,
00:07.8,0.001785278,0.001396179,0.002975464,0,
00:07.8,0.001779556,0.001396179,0.002975464,0,
00:07.8,0.001779556,0.001396179,0.002975464,0,
00:07.8,0.001779556,0.001390457,0.002969742,0,
00:07.8,0.001791,0.001401901,0.002969742,0,
00:07.8,0.001802444,0.001401901,0.002969742,0,
00:07.8,0.001785278,0.001401901,0.002969742,0,
00:07.8,0.001773834,0.001390457,0.002981186,0,
00:07.8,0.001779556,0.001390457,0.002975464,0,
00:07.8,0.001785278,0.001396179,0.002975464,0,
00:07.8,0.001779556,0.001390457,0.002975464,0,
00:07.8,0.001785278,0.001396179,0.002975464,0,
00:07.8,0.001779556,0.001390457,0.002975464,0,
00:07.8,0.001791,0.001396179,0.002981186,0,
00:07.8,0.001791,0.001407623,0.002981186,0,
00:07.8,0.001779556,0.001401901,0.002975464,0,
00:07.8,0.001773834,0.001390457,0.002975464,0,
00:07.8,0.001779556,0.001384735,0.002975464,0,
00:07.8,0.001785278,0.001396179,0.002981186,0,
00:07.8,0.001779556,0.001390457,0.002986908,0,
00:07.8,0.001779556,0.001390457,0.002981186,0,
00:07.9,0.001779556,0.001390457,0.002975464,0,
00:07.9,0.001779556,0.001390457,0.002981186,0,
00:07.9,0.001779556,0.001384735,0.002981186,0,
00:07.9,0.001785278,0.001384735,0.002981186,0,
00:07.9,0.001791,0.001396179,0.002981186,0,
00:07.9,0.001802444,0.001396179,0.002981186,0,
00:07.9,0.001768112,0.001396179,0.002981186,0,
00:07.9,0.001779556,0.001390457,0.002986908,0,
00:07.9,0.001779556,0.001384735,0.002975464,0,
00:07.9,0.001779556,0.001390457,0.002975464,0,
00:07.9,0.001779556,0.001384735,0.002986908,0,
00:07.9,0.001785278,0.001396179,0.002986908,0,
00:07.9,0.001785278,0.001390457,0.002981186,0,
00:07.9,0.001791,0.001396179,0.002981186,0,
00:07.9,0.001779556,0.001390457,0.002981186,0,
00:07.9,0.001779556,0.001390457,0.002986908,0,
00:07.9,0.001779556,0.001384735,0.002981186,0,
00:07.9,0.001779556,0.001384735,0.002981186,0,
00:07.9,0.001773834,0.001384735,0.002986908,0,
00:07.9,0.001779556,0.001390457,0.002986908,0,
00:07.9,0.001785278,0.001396179,0.002986908,0,
00:07.9,0.001791,0.001396179,0.002981186,0,
00:07.9,0.001791,0.001384735,0.002975464,0,
00:07.9,0.001785278,0.001390457,0.002981186,0,
00:07.9,0.001785278,0.001390457,0.002981186,0,
00:08.0,0.001773834,0.001379013,0.002986908,0,
00:08.0,0.001779556,0.001379013,0.002986908,0,
00:08.0,0.001779556,0.001379013,0.002981186,0,
00:08.0,0.001791,0.001390457,0.002981186,0,
00:08.0,0.001796722,0.001396179,0.002986908,0,
00:08.0,0.001773834,0.001384735,0.002986908,0,
00:08.0,0.001785278,0.001379013,0.002986908,0,
00:08.0,0.001785278,0.001379013,0.002986908,0,
00:08.0,0.001768112,0.001373291,0.002986908,0,
00:08.0,0.001768112,0.001379013,0.002986908,0,
00:08.0,0.001796722,0.001384735,0.002986908,0,
00:08.0,0.001813889,0.001384735,0.002981186,0,
00:00:08,0.001768112,0.001379013,0.002986908,0,
00:08.0,0.001773834,0.001379013,0.002986908,0,
00:08.0,0.001773834,0.001379013,0.002986908,0,
00:08.0,0.001779556,0.001373291,0.002986908,0,
00:08.0,0.001785278,0.001373291,0.002981186,0,
00:08.0,0.001802444,0.001384735,0.002981186,0,
00:08.0,0.001802444,0.001390457,0.002981186,0,
00:08.0,0.001779556,0.001384735,0.002986908,0,
00:08.0,0.00176239,0.001367569,0.002975464,0,
00:08.0,0.001773834,0.001367569,0.002986908,0,
00:08.0,0.001785278,0.001379013,0.00299263,0,
00:08.0,0.001779556,0.001367569,0.002986908,0,
00:08.0,0.001785278,0.001379013,0.002986908,0,
00:08.1,0.001785278,0.001384735,0.002981186,0,
00:08.1,0.001773834,0.001367569,0.002975464,0,
00:08.1,0.001785278,0.001367569,0.002981186,0,
00:08.1,0.001773834,0.001367569,0.002986908,0,
00:08.1,0.001779556,0.001367569,0.002986908,0,
00:08.1,0.001785278,0.001373291,0.002981186,0,
00:08.1,0.001785278,0.001373291,0.002981186,0,
00:08.1,0.001785278,0.001373291,0.002975464,0,
00:08.1,0.001779556,0.001373291,0.002975464,0,
00:08.1,0.001779556,0.001373291,0.002981186,0,
00:08.1,0.001796722,0.001373291,0.002986908,0,
00:08.1,0.001779556,0.001367569,0.002986908,0,
00:08.1,0.001779556,0.001373291,0.002986908,0,
00:08.1,0.001791,0.001379013,0.002981186,0,
00:08.1,0.001785278,0.001373291,0.002981186,0,
00:08.1,0.001779556,0.001361847,0.002986908,0,
00:08.1,0.001779556,0.001367569,0.002981186,0,
00:08.1,0.001768112,0.001361847,0.002981186,0,
00:08.1,0.001779556,0.001361847,0.002981186,0,
00:08.1,0.001785278,0.001373291,0.00299263,0,
00:08.1,0.001791,0.001373291,0.00299263,0,
00:08.1,0.001802444,0.001373291,0.002986908,0,
00:08.1,0.001768112,0.001361847,0.002986908,0,
00:08.1,0.001768112,0.001361847,0.002986908,0,
00:08.1,0.001779556,0.001361847,0.00299263,0,
00:08.2,0.001779556,0.001361847,0.002986908,0,
00:08.2,0.001768112,0.001361847,0.002986908,0,
00:08.2,0.001773834,0.001361847,0.002986908,0,
00:08.2,0.001773834,0.001361847,0.002981186,0,
00:08.2,0.001773834,0.001361847,0.002986908,0,
00:08.2,0.001785278,0.001361847,0.002986908,0,
00:08.2,0.001785278,0.001367569,0.002986908,0,
00:08.2,0.001779556,0.001373291,0.002986908,0,
00:08.2,0.001785278,0.001367569,0.002986908,0,
00:08.2,0.001773834,0.001356125,0.00299263,0,
00:08.2,0.001779556,0.001361847,0.00299263,0,
00:08.2,0.001785278,0.001361847,0.002981186,0,
00:08.2,0.001785278,0.001361847,0.002981186,0,
00:08.2,0.001773834,0.001367569,0.002986908,0,
00:08.2,0.001773834,0.001361847,0.002986908,0,
00:08.2,0.001773834,0.001361847,0.00299263,0,
00:08.2,0.001779556,0.001361847,0.002986908,0,
00:08.2,0.001773834,0.001356125,0.00299263,0,
00:08.2,0.001773834,0.001356125,0.002998352,0,
00:08.2,0.001779556,0.001367569,0.00299263,0,
00:08.2,0.001773834,0.001361847,0.00299263,0,
00:08.2,0.00176239,0.001350403,0.002986908,0,
00:08.2,0.00176239,0.001350403,0.00299263,0,
00:08.2,0.001773834,0.001350403,0.002998352,0,
00:08.2,0.001779556,0.001361847,0.002998352,0,
00:08.3,0.001779556,0.001361847,0.00299263,0,
00:08.3,0.001779556,0.001356125,0.00299263,0,
00:08.3,0.001779556,0.001356125,0.00299263,0,
00:08.3,0.001779556,0.001356125,0.00299263,0,
00:08.3,0.001773834,0.001361847,0.00299263,0,
00:08.3,0.001785278,0.001350403,0.002986908,0,
00:08.3,0.001756668,0.001344681,0.002986908,0,
00:08.3,0.001773834,0.001356125,0.002998352,0,
00:08.3,0.001785278,0.001361847,0.00299263,0,
00:08.3,0.001773834,0.001361847,0.00299263,0,
00:08.3,0.001779556,0.001361847,0.002998352,0,
00:08.3,0.001768112,0.001350403,0.002998352,0,
00:08.3,0.001768112,0.001350403,0.002998352,0,
00:08.3,0.001779556,0.001350403,0.002998352,0,
00:08.3,0.00176239,0.001350403,0.002998352,0,
00:08.3,0.001756668,0.001350403,0.00299263,0,
00:08.3,0.001773834,0.001350403,0.00299263,0,
00:08.3,0.001773834,0.001350403,0.00299263,0,
00:08.3,0.001768112,0.001350403,0.00299263,0,
00:08.3,0.001768112,0.001350403,0.002986908,0,
00:08.3,0.00176239,0.001350403,0.002986908,0,
00:08.3,0.001768112,0.001356125,0.00299263,0,
00:08.3,0.001768112,0.001356125,0.002998352,0,
00:08.3,0.001768112,0.001350403,0.002998352,0,
00:08.3,0.001773834,0.001350403,0.00299263,0,
00:08.4,0.001768112,0.001350403,0.002986908,0,
00:08.4,0.001785278,0.001356125,0.002986908,0,
00:08.4,0.001779556,0.001344681,0.00299263,0,
00:08.4,0.001756668,0.001350403,0.002998352,0,
00:08.4,0.001768112,0.001350403,0.00299263,0,
00:08.4,0.001768112,0.001344681,0.00299263,0,
00:08.4,0.001768112,0.001344681,0.00299263,0,
00:08.4,0.001773834,0.001344681,0.00299263,0,
00:08.4,0.001785278,0.001350403,0.00299263,0,
00:08.4,0.001756668,0.001338959,0.002998352,0,
00:08.4,0.00176239,0.001338959,0.00299263,0,
00:08.4,0.001768112,0.001338959,0.002986908,0,
00:08.4,0.001779556,0.001350403,0.002981186,0,
00:08.4,0.00176239,0.001344681,0.002986908,0,
00:08.4,0.001773834,0.001350403,0.002998352,0,
00:08.4,0.001773834,0.001344681,0.00299263,0,
00:08.4,0.00176239,0.001333237,0.00299263,0,
00:08.4,0.001768112,0.001338959,0.002998352,0,
00:08.4,0.001773834,0.001350403,0.002998352,0,
00:08.4,0.001785278,0.001350403,0.00299263,0,
00:08.4,0.001773834,0.001344681,0.00299263,0,
00:08.4,0.001773834,0.001338959,0.002986908,0,
00:08.4,0.00176239,0.001338959,0.00299263,0,
00:08.4,0.00176239,0.001338959,0.00299263,0,
00:08.4,0.00176239,0.001344681,0.00299263,0,
00:08.5,0.001773834,0.001350403,0.00299263,0,
00:08.5,0.001773834,0.001338959,0.00299263,0,
00:08.5,0.00176239,0.001344681,0.002998352,0,
00:08.5,0.00176239,0.001338959,0.003004074,0,
00:08.5,0.00176239,0.001338959,0.002998352,0,
00:08.5,0.00176239,0.001338959,0.00299263,0,
00:08.5,0.001773834,0.001344681,0.00299263,0,
00:08.5,0.001768112,0.001344681,0.00299263,0,
00:08.5,0.001768112,0.001338959,0.002986908,0,
00:08.5,0.00176239,0.001344681,0.002986908,0,
00:08.5,0.001768112,0.001356125,0.00299263,0,
00:08.5,0.001768112,0.001350403,0.00299263,0,
00:08.5,0.001768112,0.001338959,0.002986908,0,
00:08.5,0.00176239,0.001344681,0.00299263,0,
00:08.5,0.001768112,0.001344681,0.00299263,0,
00:08.5,0.001750946,0.001338959,0.00299263,0,
00:08.5,0.001768112,0.001338959,0.002998352,0,
00:08.5,0.001768112,0.001338959,0.002986908,0,
00:08.5,0.001768112,0.001344681,0.002998352,0,
00:08.5,0.001773834,0.001344681,0.00299263,0,
00:08.5,0.001768112,0.001338959,0.00299263,0,
00:08.5,0.00176239,0.001338959,0.00299263,0,
00:08.5,0.00176239,0.001344681,0.002986908,0,
00:08.5,0.00176239,0.001344681,0.002986908,0,
00:08.5,0.00176239,0.001344681,0.002998352,0,
00:08.6,0.001773834,0.001344681,0.00299263,0,
00:08.6,0.001779556,0.001338959,0.002986908,0,
00:08.6,0.001756668,0.001338959,0.00299263,0,
00:08.6,0.00176239,0.001338959,0.002998352,0,
00:08.6,0.00176239,0.001338959,0.002986908,0,
00:08.6,0.001773834,0.001344681,0.002981186,0,
00:08.6,0.001768112,0.001344681,0.00299263,0,
00:08.6,0.001779556,0.001338959,0.002998352,0,
00:08.6,0.001756668,0.001338959,0.002986908,0,
00:08.6,0.001750946,0.001333237,0.00299263,0,
00:08.6,0.001745224,0.001321793,0.002998352,0,
00:08.6,0.001756668,0.001333237,0.00299263,0,
00:08.6,0.00176239,0.001338959,0.00299263,0,
00:08.6,0.001779556,0.001350403,0.002986908,0,
00:08.6,0.00176239,0.001344681,0.002986908,0,
00:08.6,0.001750946,0.001333237,0.002998352,0,
00:08.6,0.00176239,0.001327515,0.002998352,0,
00:08.6,0.001745224,0.001327515,0.002998352,0,
00:08.6,0.001750946,0.001327515,0.002998352,0,
00:08.6,0.001756668,0.001333237,0.002998352,0,
00:08.6,0.001756668,0.001338959,0.00299263,0,
00:08.6,0.00176239,0.001333237,0.002986908,0,
00:08.6,0.001768112,0.001344681,0.002981186,0,
00:08.6,0.001773834,0.001344681,0.002998352,0,
00:08.6,0.001756668,0.001333237,0.00299263,0,
00:08.7,0.001750946,0.001321793,0.00299263,0,
00:08.7,0.001756668,0.001327515,0.002998352,0,
00:08.7,0.00176239,0.001327515,0.00299263,0,
00:08.7,0.001750946,0.001321793,0.00299263,0,
00:08.7,0.001750946,0.001321793,0.00299263,0,
00:08.7,0.001750946,0.001327515,0.002998352,0,
00:08.7,0.001756668,0.001321793,0.00299263,0,
00:08.7,0.001750946,0.001321793,0.00299263,0,
00:08.7,0.001750946,0.001327515,0.002998352,0,
00:08.7,0.001756668,0.001327515,0.002986908,0,
00:08.7,0.00176239,0.001333237,0.002986908,0,
00:08.7,0.001750946,0.001327515,0.002998352,0,
00:08.7,0.001745224,0.001316071,0.002998352,0,
00:08.7,0.001750946,0.001321793,0.002998352,0,
00:08.7,0.001756668,0.001327515,0.003004074,0,
00:08.7,0.00176239,0.001333237,0.002998352,0,
00:08.7,0.001756668,0.001321793,0.00299263,0,
00:08.7,0.001750946,0.001321793,0.002998352,0,
00:08.7,0.001750946,0.001321793,0.002998352,0,
00:08.7,0.001750946,0.001321793,0.003004074,0,
00:08.7,0.001756668,0.001327515,0.002998352,0,
00:08.7,0.001773834,0.001338959,0.00299263,0,
00:08.7,0.00176239,0.001327515,0.00299263,0,
00:08.7,0.001745224,0.001316071,0.003004074,0,
00:08.7,0.001745224,0.001316071,0.002998352,0,
00:08.8,0.001750946,0.001321793,0.003004074,0,
00:08.8,0.001756668,0.001321793,0.002998352,0,
00:08.8,0.001750946,0.001321793,0.002998352,0,
00:08.8,0.00176239,0.001321793,0.002998352,0,
00:08.8,0.001773834,0.001327515,0.00299263,0,
00:08.8,0.001750946,0.001327515,0.003004074,0,
00:08.8,0.001745224,0.001316071,0.002998352,0,
00:08.8,0.001745224,0.001316071,0.002998352,0,
00:08.8,0.001745224,0.001321793,0.003004074,0,
00:08.8,0.001745224,0.001316071,0.002998352,0,
00:08.8,0.001750946,0.001316071,0.003004074,0,
00:08.8,0.001756668,0.001321793,0.003009796,0,
00:08.8,0.001750946,0.001321793,0.003009796,0,
00:08.8,0.001750946,0.001321793,0.003004074,0,
00:08.8,0.001745224,0.001316071,0.002998352,0,
00:08.8,0.001750946,0.001321793,0.003004074,0,
00:08.8,0.001750946,0.001321793,0.002998352,0,
00:08.8,0.001750946,0.001316071,0.003009796,0,
00:08.8,0.001750946,0.001316071,0.003009796,0,
00:08.8,0.001750946,0.001316071,0.003009796,0,
00:08.8,0.00176239,0.001316071,0.003009796,0,
00:08.8,0.001745224,0.001316071,0.002998352,0,
00:08.8,0.001745224,0.001310349,0.002998352,0,
00:08.8,0.001739502,0.001316071,0.003009796,0,
00:08.8,0.001745224,0.001321793,0.003009796,0,
00:08.9,0.001745224,0.001316071,0.003004074,0,
00:08.9,0.001750946,0.001310349,0.003004074,0,
00:08.9,0.001739502,0.001310349,0.003009796,0,
00:08.9,0.001745224,0.001310349,0.003009796,0,
00:08.9,0.001739502,0.001310349,0.003004074,0,
00:08.9,0.001745224,0.001316071,0.002998352,0,
00:08.9,0.001750946,0.001316071,0.003009796,0,
00:08.9,0.00176239,0.001310349,0.002998352,0,
00:08.9,0.001745224,0.001310349,0.003009796,0,
00:08.9,0.001739502,0.001316071,0.003015518,0,
00:08.9,0.001745224,0.001321793,0.003004074,0,
00:08.9,0.001745224,0.001316071,0.003004074,0,
00:08.9,0.001750946,0.001316071,0.003015518,0,
00:08.9,0.001745224,0.001298904,0.003009796,0,
00:08.9,0.001739502,0.001304626,0.003009796,0,
00:08.9,0.001745224,0.001316071,0.002998352,0,
00:08.9,0.00176239,0.001321793,0.002998352,0,
00:08.9,0.001739502,0.001304626,0.003009796,0,
00:08.9,0.001722336,0.001293182,0.003009796,0,
00:08.9,0.001739502,0.001316071,0.003009796,0,
00:08.9,0.001756668,0.001321793,0.003009796,0,
00:08.9,0.001750946,0.001304626,0.003009796,0,
00:08.9,0.001728058,0.001293182,0.003009796,0,
00:08.9,0.00173378,0.001304626,0.003015518,0,
00:08.9,0.001739502,0.001310349,0.003015518,0,
00:09.0,0.00173378,0.001304626,0.003004074,0,
00:09.0,0.001745224,0.001310349,0.003004074,0,
00:09.0,0.001745224,0.001310349,0.003009796,0,
00:09.0,0.00173378,0.001298904,0.003009796,0,
00:09.0,0.00173378,0.001304626,0.003009796,0,
00:09.0,0.00173378,0.001304626,0.003009796,0,
00:09.0,0.001739502,0.001304626,0.003009796,0,
00:09.0,0.001739502,0.001304626,0.003009796,0,
00:09.0,0.001739502,0.001304626,0.003009796,0,
00:09.0,0.001739502,0.001298904,0.003009796,0,
00:09.0,0.00173378,0.001310349,0.003004074,0,
00:09.0,0.00173378,0.001310349,0.003009796,0,
00:00:09,0.001739502,0.001304626,0.003015518,0,
00:09.0,0.001728058,0.001310349,0.003015518,0,
00:09.0,0.001728058,0.001298904,0.003015518,0,
00:09.0,0.00173378,0.001298904,0.00302124,0,
00:09.0,0.00173378,0.001298904,0.003015518,0,
00:09.0,0.001716614,0.001298904,0.003015518,0,
00:09.0,0.001728058,0.001304626,0.003015518,0,
00:09.0,0.001739502,0.001310349,0.003009796,0,
00:09.0,0.001750946,0.001310349,0.002998352,0,
00:09.0,0.001722336,0.001298904,0.003015518,0,
00:09.0,0.001722336,0.001298904,0.00302124,0,
00:09.0,0.001728058,0.001304626,0.003015518,0,
00:09.0,0.001722336,0.001293182,0.003009796,0,
00:09.1,0.001722336,0.001293182,0.003009796,0,
00:09.1,0.001728058,0.001293182,0.003009796,0,
00:09.1,0.001728058,0.001293182,0.003015518,0,
00:09.1,0.001728058,0.001304626,0.003015518,0,
00:09.1,0.001728058,0.001304626,0.003009796,0,
00:09.1,0.001728058,0.001298904,0.003004074,0,
00:09.1,0.001728058,0.001293182,0.003009796,0,
00:09.1,0.001722336,0.001293182,0.003009796,0,
00:09.1,0.001722336,0.001310349,0.00302124,0,
00:09.1,0.001716614,0.001293182,0.003015518,0,
00:09.1,0.001716614,0.001293182,0.003015518,0,
00:09.1,0.001722336,0.001293182,0.003009796,0,
00:09.1,0.001716614,0.001293182,0.003009796,0,
00:09.1,0.001728058,0.001304626,0.003009796,0,
00:09.1,0.001728058,0.001304626,0.003009796,0,
00:09.1,0.00170517,0.00128746,0.003004074,0,
00:09.1,0.001722336,0.001293182,0.003004074,0,
00:09.1,0.001716614,0.001293182,0.003009796,0,
00:09.1,0.001716614,0.001298904,0.003015518,0,
00:09.1,0.001722336,0.001298904,0.003009796,0,
00:09.1,0.001710892,0.001293182,0.003015518,0,
00:09.1,0.001710892,0.00128746,0.003009796,0,
00:09.1,0.001710892,0.00128746,0.003009796,0,
00:09.1,0.001710892,0.001293182,0.003009796,0,
00:09.1,0.001716614,0.001298904,0.003004074,0,
00:09.2,0.001710892,0.001293182,0.003009796,0,
00:09.2,0.001716614,0.001298904,0.003009796,0,
00:09.2,0.001728058,0.001304626,0.002998352,0,
00:09.2,0.001728058,0.001293182,0.003004074,0,
00:09.2,0.001710892,0.001293182,0.003004074,0,
00:09.2,0.001699448,0.00128746,0.003009796,0,
00:09.2,0.001699448,0.001281738,0.003004074,0,
00:09.2,0.00170517,0.00128746,0.003009796,0,
00:09.2,0.001710892,0.00128746,0.003009796,0,
00:09.2,0.001710892,0.001293182,0.003009796,0,
00:09.2,0.001716614,0.001298904,0.003004074,0,
00:09.2,0.001716614,0.001298904,0.002998352,0,
00:09.2,0.001716614,0.001281738,0.00299263,0,
00:09.2,0.001699448,0.00128746,0.003004074,0,
00:09.2,0.001699448,0.001281738,0.003004074,0,
00:09.2,0.001710892,0.001293182,0.002998352,0,
00:09.2,0.00170517,0.001293182,0.003004074,0,
00:09.2,0.00170517,0.001281738,0.003004074,0,
00:09.2,0.001710892,0.00128746,0.003004074,0,
00:09.2,0.001710892,0.001281738,0.002986908,0,
00:09.2,0.001699448,0.00128746,0.002998352,0,
00:09.2,0.001693726,0.001281738,0.003009796,0,
00:09.2,0.001699448,0.00128746,0.003009796,0,
00:09.2,0.001693726,0.00128746,0.003009796,0,
00:09.2,0.00170517,0.00128746,0.003004074,0,
00:09.3,0.00170517,0.00128746,0.002998352,0,
00:09.3,0.001699448,0.001281738,0.002998352,0,
00:09.3,0.001699448,0.001281738,0.002998352,0,
00:09.3,0.00170517,0.00128746,0.003004074,0,
00:09.3,0.001699448,0.00128746,0.003004074,0,
00:09.3,0.001699448,0.00128746,0.003009796,0,
00:09.3,0.001699448,0.001293182,0.003004074,0,
00:09.3,0.001728058,0.001310349,0.002998352,0,
00:09.3,0.001722336,0.001281738,0.00299263,0,
00:09.3,0.001682281,0.001270294,0.003009796,0,
00:09.3,0.001670837,0.001281738,0.003009796,0,
00:09.3,0.001699448,0.00128746,0.003004074,0,
00:09.3,0.001710892,0.00128746,0.002998352,0,
00:09.3,0.001682281,0.001281738,0.003009796,0,
00:09.3,0.001682281,0.001276016,0.003004074,0,
00:09.3,0.001699448,0.00128746,0.003004074,0,
00:09.3,0.001693726,0.00128746,0.002998352,0,
00:09.3,0.001699448,0.00128746,0.002998352,0,
00:09.3,0.001699448,0.001276016,0.002998352,0,
00:09.3,0.001693726,0.001276016,0.00299263,0,
00:09.3,0.001688004,0.001281738,0.002981186,0,
00:09.3,0.001688004,0.001276016,0.002998352,0,
00:09.3,0.001693726,0.001281738,0.002998352,0,
00:09.3,0.001699448,0.001293182,0.002998352,0,
00:09.3,0.001682281,0.001281738,0.002998352,0,
00:09.4,0.001688004,0.001276016,0.002998352,0,
00:09.4,0.001688004,0.001276016,0.002998352,0,
00:09.4,0.001693726,0.001276016,0.00299263,0,
00:09.4,0.001699448,0.00128746,0.003004074,0,
00:09.4,0.001693726,0.001276016,0.002998352,0,
00:09.4,0.001693726,0.001281738,0.002998352,0,
00:09.4,0.001693726,0.001281738,0.00299263,0,
00:09.4,0.001670837,0.001276016,0.00299263,0,
00:09.4,0.001676559,0.001276016,0.003004074,0,
00:09.4,0.001682281,0.001276016,0.002998352,0,
00:09.4,0.001682281,0.00128746,0.002998352,0,
00:09.4,0.001682281,0.001281738,0.002998352,0,
00:09.4,0.001688004,0.00128746,0.002998352,0,
00:09.4,0.001682281,0.00128746,0.002998352,0,
00:09.4,0.001693726,0.001281738,0.00299263,0,
00:09.4,0.001665115,0.001270294,0.002998352,0,
00:09.4,0.001676559,0.001281738,0.002998352,0,
00:09.4,0.001682281,0.001276016,0.00299263,0,
00:09.4,0.001676559,0.001281738,0.002998352,0,
00:09.4,0.001676559,0.00128746,0.002998352,0,
00:09.4,0.001682281,0.00128746,0.002986908,0,
00:09.4,0.001682281,0.00128746,0.002986908,0,
00:09.4,0.001699448,0.001281738,0.00299263,0,
00:09.4,0.001670837,0.001276016,0.003004074,0,
00:09.4,0.001682281,0.001281738,0.003004074,0,
00:09.5,0.001665115,0.001281738,0.00299263,0,
00:09.5,0.001659393,0.001276016,0.002998352,0,
00:09.5,0.001670837,0.001276016,0.002998352,0,
00:09.5,0.001670837,0.001276016,0.003004074,0,
00:09.5,0.001676559,0.001281738,0.002998352,0,
00:09.5,0.001676559,0.001281738,0.002998352,0,
00:09.5,0.001676559,0.001281738,0.002998352,0,
00:09.5,0.001665115,0.001276016,0.00299263,0,
00:09.5,0.001676559,0.001281738,0.002986908,0,
00:09.5,0.001676559,0.00128746,0.002986908,0,
00:09.5,0.001670837,0.001281738,0.002998352,0,
00:09.5,0.001682281,0.00128746,0.003004074,0,
00:09.5,0.001665115,0.001276016,0.002998352,0,
00:09.5,0.001653671,0.001276016,0.00299263,0,
00:09.5,0.001665115,0.001276016,0.00299263,0,
00:09.5,0.001676559,0.001293182,0.002998352,0,
00:09.5,0.001676559,0.00128746,0.00299263,0,
00:09.5,0.001670837,0.001276016,0.002986908,0,
00:09.5,0.001670837,0.00128746,0.002998352,0,
00:09.5,0.001682281,0.001293182,0.002998352,0,
00:09.5,0.001665115,0.001281738,0.00299263,0,
00:09.5,0.001688004,0.001281738,0.002998352,0,
00:09.5,0.001653671,0.001276016,0.002998352,0,
00:09.5,0.001653671,0.001276016,0.002998352,0,
00:09.5,0.001670837,0.00128746,0.00299263,0,
00:09.6,0.001665115,0.001281738,0.002986908,0,
00:09.6,0.001670837,0.00128746,0.00299263,0,
00:09.6,0.001682281,0.001293182,0.00299263,0,
00:09.6,0.001670837,0.001281738,0.002998352,0,
00:09.6,0.001659393,0.001281738,0.002998352,0,
00:09.6,0.001665115,0.00128746,0.002986908,0,
00:09.6,0.001659393,0.001281738,0.002986908,0,
00:09.6,0.001659393,0.00128746,0.002998352,0,
00:09.6,0.001670837,0.001298904,0.002998352,0,
00:09.6,0.001670837,0.00128746,0.002998352,0,
00:09.6,0.001670837,0.00128746,0.002998352,0,
00:09.6,0.001670837,0.001293182,0.002998352,0,
00:09.6,0.001665115,0.00128746,0.002998352,0,
00:09.6,0.001665115,0.001281738,0.002998352,0,
00:09.6,0.001665115,0.00128746,0.003004074,0,
00:09.6,0.001670837,0.001293182,0.00299263,0,
00:09.6,0.001670837,0.00128746,0.00299263,0,
00:09.6,0.001682281,0.00128746,0.002998352,0,
00:09.6,0.001688004,0.001293182,0.002981186,0,
00:09.6,0.001647949,0.001293182,0.002998352,0,
00:09.6,0.001647949,0.001281738,0.002998352,0,
00:09.6,0.001659393,0.001281738,0.002998352,0,
00:09.6,0.001665115,0.00128746,0.002998352,0,
00:09.6,0.001665115,0.00128746,0.003004074,0,
00:09.6,0.001670837,0.001304626,0.002998352,0,
00:09.7,0.001670837,0.001298904,0.00299263,0,
00:09.7,0.001653671,0.001281738,0.00299263,0,
00:09.7,0.001670837,0.00128746,0.003004074,0,
00:09.7,0.001688004,0.001298904,0.002986908,0,
00:09.7,0.001670837,0.001293182,0.00299263,0,
00:09.7,0.001670837,0.001293182,0.002998352,0,
00:09.7,0.001659393,0.001293182,0.00299263,0,
00:09.7,0.001653671,0.001281738,0.002998352,0,
00:09.7,0.001659393,0.001281738,0.00299263,0,
00:09.7,0.001676559,0.001298904,0.002986908,0,
00:09.7,0.001665115,0.001293182,0.002986908,0,
00:09.7,0.001665115,0.001293182,0.00299263,0,
00:09.7,0.001665115,0.001293182,0.00299263,0,
00:09.7,0.001665115,0.001293182,0.002986908,0,
00:09.7,0.001665115,0.001298904,0.002981186,0,
00:09.7,0.001665115,0.001298904,0.002981186,0,
00:09.7,0.001665115,0.001298904,0.00299263,0,
00:09.7,0.001682281,0.001304626,0.00299263,0,
00:09.7,0.001670837,0.001293182,0.00299263,0,
00:09.7,0.001647949,0.001298904,0.00299263,0,
00:09.7,0.001665115,0.001304626,0.002986908,0,
00:09.7,0.001670837,0.001304626,0.002975464,0,
00:09.7,0.001659393,0.001304626,0.002981186,0,
00:09.7,0.001653671,0.001293182,0.002981186,0,
00:09.7,0.001659393,0.001298904,0.002986908,0,
00:09.8,0.001665115,0.001298904,0.002986908,0,
00:09.8,0.001665115,0.001304626,0.002981186,0,
00:09.8,0.001670837,0.001310349,0.002986908,0,
00:09.8,0.001659393,0.001293182,0.002981186,0,
00:09.8,0.001659393,0.001293182,0.002981186,0,
00:09.8,0.001665115,0.001304626,0.002975464,0,
00:09.8,0.001676559,0.001310349,0.002969742,0,
00:09.8,0.001659393,0.001298904,0.002975464,0,
00:09.8,0.001676559,0.001310349,0.002981186,0,
00:09.8,0.001676559,0.001316071,0.002975464,0,
00:09.8,0.001665115,0.001298904,0.002969742,0,
00:09.8,0.001665115,0.001293182,0.002969742,0,
00:09.8,0.001653671,0.001298904,0.002975464,0,
00:09.8,0.001659393,0.001304626,0.002975464,0,
00:09.8,0.001670837,0.001310349,0.002981186,0,
00:09.8,0.001676559,0.001310349,0.002969742,0,
00:09.8,0.001665115,0.001310349,0.002958298,0,
00:09.8,0.001670837,0.001310349,0.00296402,0,
00:09.8,0.001659393,0.001310349,0.00296402,0,
00:09.8,0.001659393,0.001310349,0.002975464,0,
00:09.8,0.001659393,0.001304626,0.002969742,0,
00:09.8,0.001665115,0.001298904,0.002969742,0,
00:09.8,0.001659393,0.001298904,0.002969742,0,
00:09.8,0.001665115,0.001304626,0.002969742,0,
00:09.8,0.001665115,0.001310349,0.00296402,0,
00:09.9,0.001676559,0.001316071,0.002958298,0,
00:09.9,0.001676559,0.001321793,0.002952576,0,
00:09.9,0.001659393,0.001310349,0.002952576,0,
00:09.9,0.001653671,0.001304626,0.00296402,0,
00:09.9,0.001670837,0.001310349,0.002958298,0,
00:09.9,0.001665115,0.001310349,0.002952576,0,
00:09.9,0.001665115,0.001310349,0.002958298,0,
00:09.9,0.001670837,0.001310349,0.002958298,0,
00:09.9,0.001676559,0.001316071,0.002958298,0,
00:09.9,0.001682281,0.001310349,0.002952576,0,
00:09.9,0.001682281,0.001316071,0.002958298,0,
00:09.9,0.001693726,0.001321793,0.002946854,0,
00:09.9,0.001682281,0.001327515,0.002958298,0,
00:09.9,0.001653671,0.001310349,0.002952576,0,
00:09.9,0.001659393,0.001304626,0.002941132,0,
00:09.9,0.001665115,0.001316071,0.002958298,0,
00:09.9,0.001670837,0.001321793,0.002952576,0,
00:09.9,0.001665115,0.001316071,0.002958298,0,
00:09.9,0.001670837,0.001316071,0.002952576,0,
00:09.9,0.001682281,0.001327515,0.002946854,0,
00:09.9,0.001682281,0.001321793,0.002941132,0,
00:09.9,0.001670837,0.001316071,0.002941132,0,
00:09.9,0.001676559,0.001321793,0.002941132,0,
00:09.9,0.001676559,0.001327515,0.002946854,0,
00:09.9,0.001670837,0.001321793,0.002941132,0,
00:10.0,0.001670837,0.001321793,0.002946854,0,
00:10.0,0.001676559,0.001321793,0.002946854,0,
00:10.0,0.001682281,0.001321793,0.002941132,0,
00:10.0,0.001676559,0.001321793,0.00293541,0,
00:10.0,0.001682281,0.001333237,0.002941132,0,
00:10.0,0.00170517,0.001338959,0.00293541,0,
00:10.0,0.001670837,0.001333237,0.002941132,0,
00:10.0,0.001670837,0.001327515,0.00293541,0,
00:10.0,0.001676559,0.001321793,0.002941132,0,
00:10.0,0.001682281,0.001333237,0.002941132,0,
00:10.0,0.001670837,0.001321793,0.002929688,0,
00:10.0,0.001688004,0.001327515,0.002929688,0,
00:00:10,0.001682281,0.001327515,0.002929688,0,
00:10.0,0.001688004,0.001338959,0.00293541,0,
00:10.0,0.001699448,0.001344681,0.002923965,0,
00:10.0,0.001682281,0.001333237,0.002923965,0,
00:10.0,0.001676559,0.001333237,0.00293541,0,
00:10.0,0.001670837,0.001333237,0.00293541,0,
00:10.0,0.001676559,0.001333237,0.00293541,0,
00:10.0,0.001682281,0.001338959,0.002929688,0,
00:10.0,0.001688004,0.001338959,0.002923965,0,
00:10.0,0.001682281,0.001338959,0.002918243,0,
00:10.0,0.001682281,0.001344681,0.002923965,0,
00:10.0,0.001682281,0.001344681,0.002923965,0,
00:10.0,0.001682281,0.001344681,0.002923965,0,
00:10.1,0.001693726,0.001350403,0.002912521,0,
00:10.1,0.00170517,0.001338959,0.002923965,0,
00:10.1,0.001682281,0.001333237,0.002929688,0,
00:10.1,0.001670837,0.001333237,0.002929688,0,
00:10.1,0.001670837,0.001333237,0.002918243,0,
00:10.1,0.001688004,0.001350403,0.002918243,0,
00:10.1,0.001688004,0.001344681,0.002912521,0,
00:10.1,0.001688004,0.001344681,0.002918243,0,
00:10.1,0.001688004,0.001350403,0.002918243,0,
00:10.1,0.00170517,0.001361847,0.002906799,0,
00:10.1,0.001688004,0.001350403,0.002895355,0,
00:10.1,0.001682281,0.001356125,0.002923965,0,
00:10.1,0.001682281,0.001338959,0.002923965,0,
00:10.1,0.001688004,0.001338959,0.002923965,0,
00:10.1,0.001682281,0.001350403,0.002918243,0,
00:10.1,0.001682281,0.001344681,0.002912521,0,
00:10.1,0.001688004,0.001344681,0.002912521,0,
00:10.1,0.001693726,0.001350403,0.002912521,0,
00:10.1,0.001693726,0.001356125,0.002912521,0,
00:10.1,0.001688004,0.001350403,0.002912521,0,
00:10.1,0.001693726,0.001356125,0.002906799,0,
00:10.1,0.001716614,0.001361847,0.002901077,0,
00:10.1,0.001699448,0.001344681,0.002901077,0,
00:10.1,0.001676559,0.001350403,0.002906799,0,
00:10.1,0.001688004,0.001356125,0.002906799,0,
00:10.2,0.001688004,0.001356125,0.002901077,0,
00:10.2,0.001688004,0.001350403,0.002906799,0,
00:10.2,0.001688004,0.001356125,0.002901077,0,
00:10.2,0.001693726,0.001361847,0.002901077,0,
00:10.2,0.001688004,0.001356125,0.002901077,0,
00:10.2,0.001699448,0.001356125,0.002895355,0,
00:10.2,0.001699448,0.001356125,0.002889633,0,
00:10.2,0.001693726,0.001356125,0.002895355,0,
00:10.2,0.001693726,0.001356125,0.002895355,0,
00:10.2,0.001688004,0.001361847,0.002895355,0,
00:10.2,0.001693726,0.001361847,0.002889633,0,
00:10.2,0.001693726,0.001361847,0.002889633,0,
00:10.2,0.001693726,0.001356125,0.002889633,0,
00:10.2,0.001688004,0.001356125,0.002889633,0,
00:10.2,0.001693726,0.001367569,0.002883911,0,
00:10.2,0.001699448,0.001361847,0.002883911,0,
00:10.2,0.00170517,0.001367569,0.002872467,0,
00:10.2,0.001716614,0.001373291,0.002878189,0,
00:10.2,0.00170517,0.001367569,0.002883911,0,
00:10.2,0.001693726,0.001367569,0.002878189,0,
00:10.2,0.001693726,0.001361847,0.002878189,0,
00:10.2,0.001693726,0.001361847,0.002883911,0,
00:10.2,0.001699448,0.001361847,0.002878189,0,
00:10.2,0.001699448,0.001367569,0.002872467,0,
00:10.2,0.00170517,0.001379013,0.002872467,0,
00:10.3,0.001716614,0.001379013,0.002872467,0,
00:10.3,0.001728058,0.001373291,0.002872467,0,
00:10.3,0.001688004,0.001367569,0.002866745,0,
00:10.3,0.001682281,0.001361847,0.002866745,0,
00:10.3,0.001699448,0.001373291,0.002872467,0,
00:10.3,0.00170517,0.001379013,0.002866745,0,
00:10.3,0.001699448,0.001379013,0.002866745,0,
00:10.3,0.00170517,0.001373291,0.002866745,0,
00:10.3,0.00170517,0.001367569,0.002872467,0,
00:10.3,0.001699448,0.001367569,0.002866745,0,
00:10.3,0.00170517,0.001373291,0.002866745,0,
00:10.3,0.001716614,0.001384735,0.002866745,0,
