Elapsed_Time,EMG1,EMG2,EMG3,BioRadio Event,Unnamed: 5
00:00:00,0.002454758,0.001579285,0.00346756,0,
00:00.0,0.002483368,0.001636505,0.003456116,0,
00:00.0,0.002471924,0.001625061,0.00343895,0,
00:00.0,0.002420425,0.00151062,0.003484726,0,
00:00.0,0.002437592,0.001522064,0.003473282,0,
00:00.0,0.002397537,0.001447678,0.003461838,0,
00:00.0,0.002420425,0.001504898,0.003461838,0,
00:00.0,0.002437592,0.001533508,0.003456116,0,
00:00.0,0.002443314,0.001522064,0.003450394,0,
00:00.0,0.00246048,0.001544952,0.003473282,0,
00:00.0,0.002500534,0.001636505,0.003484726,0,
00:00.0,0.002471924,0.001665115,0.003461838,0,
00:00.0,0.002414703,0.001499176,0.003473282,0,
00:00.1,0.002397537,0.001441956,0.003490448,0,
00:00.1,0.002443314,0.001504898,0.003473282,0,
00:00.1,0.002443314,0.001493454,0.003456116,0,
00:00.1,0.002443314,0.001550674,0.00346756,0,
00:00.1,0.002454758,0.001550674,0.00346756,0,
00:00.1,0.002443314,0.001573563,0.003484726,0,
00:00.1,0.002466202,0.001596451,0.003473282,0,
00:00.1,0.002443314,0.001533508,0.00346756,0,
00:00.1,0.002529144,0.00170517,0.00346756,0,
00:00.1,0.002437592,0.00151062,0.003444672,0,
00:00.1,0.002340317,0.001361847,0.00349617,0,
00:00.1,0.002408981,0.00151062,0.003484726,0,
00:00.1,0.002437592,0.001556396,0.00346756,0,
00:00.1,0.002494812,0.001596451,0.00346756,0,
00:00.1,0.002506256,0.001682281,0.003456116,0,
00:00.1,0.002386093,0.001436234,0.003479004,0,
00:00.1,0.002403259,0.001459122,0.003501892,0,
00:00.1,0.002426147,0.001504898,0.003484726,0,
00:00.1,0.00246048,0.001567841,0.003473282,0,
00:00.1,0.002466202,0.001585007,0.003450394,0,
00:00.1,0.00243187,0.001533508,0.003456116,0,
00:00.1,0.002471924,0.001585007,0.003484726,0,
00:00.1,0.00246048,0.001579285,0.003461838,0,
00:00.1,0.002426147,0.001516342,0.003484726,0,
00:00.1,0.002437592,0.001544952,0.003479004,0,
00:00.2,0.002443314,0.001527786,0.003479004,0,
00:00.2,0.00243187,0.001436234,0.00346756,0,
00:00.2,0.002483368,0.001613617,0.00346756,0,
00:00.2,0.002534866,0.001750946,0.003456116,0,
00:00.2,0.002443314,0.001550674,0.003484726,0,
00:00.2,0.002357483,0.001424789,0.003479004,0,
00:00.2,0.002408981,0.001493454,0.00349617,0,
00:00.2,0.002449036,0.001550674,0.003490448,0,
00:00.2,0.00248909,0.001619339,0.003461838,0,
00:00.2,0.00246048,0.001602173,0.003461838,0,
00:00.2,0.002420425,0.001476288,0.003484726,0,
00:00.2,0.00246048,0.001579285,0.003473282,0,
00:00.2,0.002437592,0.00153923,0.003473282,0,
00:00.2,0.002437592,0.001544952,0.00346756,0,
00:00.2,0.00246048,0.001573563,0.003484726,0,
00:00.2,0.002466202,0.001562119,0.003479004,0,
00:00.2,0.002483368,0.001567841,0.003473282,0,
00:00.2,0.002420425,0.001533508,0.003473282,0,
00:00.2,0.002426147,0.00151062,0.003473282,0,
00:00.2,0.002437592,0.001504898,0.003461838,0,
00:00.2,0.00246048,0.001585007,0.00346756,0,
00:00.2,0.002494812,0.001653671,0.00346756,0,
00:00.2,0.002483368,0.001676559,0.003444672,0,
00:00.2,0.002414703,0.00148201,0.003507614,0,
00:00.2,0.002403259,0.001470566,0.003490448,0,
00:00.3,0.002471924,0.001585007,0.00346756,0,
00:00.3,0.002454758,0.001544952,0.003461838,0,
00:00.3,0.002420425,0.001516342,0.003479004,0,
00:00.3,0.002449036,0.001550674,0.003490448,0,
00:00.3,0.002466202,0.001607895,0.003473282,0,
00:00.3,0.002454758,0.001562119,0.003444672,0,
00:00.3,0.002466202,0.001596451,0.003479004,0,
00:00.3,0.002454758,0.001585007,0.003473282,0,
00:00.3,0.002437592,0.001487732,0.003490448,0,
00:00.3,0.00243187,0.001516342,0.003490448,0,
00:00.3,0.00243187,0.001556396,0.003479004,0,
00:00.3,0.002523422,0.001710892,0.003473282,0,
00:00.3,0.002471924,0.001585007,0.003433228,0,
00:00.3,0.002380371,0.001390457,0.003479004,0,
00:00.3,0.002420425,0.001493454,0.003501892,0,
00:00.3,0.00246048,0.001607895,0.003484726,0,
00:00.3,0.002483368,0.001596451,0.003479004,0,
00:00.3,0.002466202,0.001573563,0.00346756,0,
00:00.3,0.002449036,0.001613617,0.003456116,0,
00:00.3,0.00243187,0.001522064,0.003484726,0,
00:00.3,0.00246048,0.001573563,0.003484726,0,
00:00.3,0.002477646,0.001607895,0.003461838,0,
00:00.3,0.002466202,0.001562119,0.003461838,0,
00:00.3,0.002477646,0.001613617,0.003479004,0,
00:00.3,0.002420425,0.001562119,0.003456116,0,
00:00.4,0.002426147,0.00151062,0.003501892,0,
00:00.4,0.002454758,0.001556396,0.003490448,0,
00:00.4,0.00246048,0.001562119,0.003484726,0,
00:00.4,0.002437592,0.001556396,0.003473282,0,
00:00.4,0.002449036,0.001562119,0.00346756,0,
00:00.4,0.00246048,0.001562119,0.003479004,0,
00:00.4,0.002477646,0.001602173,0.003461838,0,
00:00.4,0.00246048,0.001607895,0.003461838,0,
00:00.4,0.002426147,0.001527786,0.003473282,0,
00:00.4,0.002471924,0.001567841,0.003484726,0,
00:00.4,0.002494812,0.001636505,0.003456116,0,
00:00.4,0.002408981,0.001527786,0.003461838,0,
00:00.4,0.002420425,0.001533508,0.00346756,0,
00:00.4,0.002454758,0.001579285,0.003473282,0,
00:00.4,0.00246048,0.001579285,0.00346756,0,
00:00.4,0.00254631,0.001688004,0.003461838,0,
00:00.4,0.002523422,0.001665115,0.00343895,0,
00:00.4,0.002334595,0.001396179,0.003479004,0,
00:00.4,0.002397537,0.00151062,0.003507614,0,
00:00.4,0.002437592,0.00153923,0.003484726,0,
00:00.4,0.002466202,0.001619339,0.00346756,0,
00:00.4,0.002466202,0.001590729,0.003461838,0,
00:00.4,0.002466202,0.001585007,0.003473282,0,
00:00.4,0.002483368,0.001625061,0.00343895,0,
00:00.4,0.002426147,0.001544952,0.003433228,0,
00:00.5,0.002437592,0.001550674,0.003461838,0,
00:00.5,0.002449036,0.001556396,0.00346756,0,
00:00.5,0.002454758,0.001567841,0.003450394,0,
00:00.5,0.002466202,0.001602173,0.003450394,0,
00:00.5,0.002449036,0.001579285,0.003450394,0,
00:00.5,0.00246048,0.001596451,0.003456116,0,
00:00.5,0.00243187,0.001522064,0.003444672,0,
00:00.5,0.00246048,0.00153923,0.003450394,0,
00:00.5,0.002426147,0.001556396,0.003450394,0,
00:00.5,0.002454758,0.001573563,0.003461838,0,
00:00.5,0.002534866,0.001699448,0.00343895,0,
00:00.5,0.002477646,0.001607895,0.003427505,0,
00:00.5,0.002397537,0.001487732,0.00346756,0,
00:00.5,0.002408981,0.00148201,0.003473282,0,
00:00.5,0.00246048,0.001573563,0.003456116,0,
00:00.5,0.00246048,0.001567841,0.003444672,0,
00:00.5,0.002443314,0.001590729,0.00343895,0,
00:00.5,0.002449036,0.001585007,0.003450394,0,
00:00.5,0.002454758,0.001567841,0.003450394,0,
00:00.5,0.00246048,0.001602173,0.00343895,0,
00:00.5,0.002466202,0.001596451,0.00343895,0,
00:00.5,0.002466202,0.001590729,0.003444672,0,
00:00.5,0.00243187,0.001522064,0.003450394,0,
00:00.5,0.002443314,0.001556396,0.003444672,0,
00:00.5,0.00246048,0.001579285,0.00343895,0,
00:00.6,0.002506256,0.001630783,0.003433228,0,
00:00.6,0.002534866,0.001728058,0.003410339,0,
00:00.6,0.002414703,0.001522064,0.003444672,0,
00:00.6,0.002380371,0.001436234,0.003479004,0,
00:00.6,0.002414703,0.001516342,0.003461838,0,
00:00.6,0.002454758,0.001573563,0.003456116,0,
00:00.6,0.00246048,0.001579285,0.003444672,0,
00:00.6,0.002477646,0.001567841,0.003450394,0,
00:00.6,0.0025177,0.001670837,0.003427505,0,
00:00.6,0.002483368,0.001693726,0.003427505,0,
00:00.6,0.002437592,0.001567841,0.003433228,0,
00:00.6,0.002426147,0.001516342,0.003444672,0,
00:00.6,0.002426147,0.001459122,0.003456116,0,
00:00.6,0.002443314,0.001556396,0.003444672,0,
00:00.6,0.002449036,0.001567841,0.00343895,0,
00:00.6,0.00248909,0.001630783,0.00343895,0,
00:00.6,0.00248909,0.001602173,0.003421783,0,
00:00.6,0.002483368,0.001688004,0.003427505,0,
00:00.6,0.002420425,0.001516342,0.00343895,0,
00:00.6,0.002437592,0.001544952,0.003456116,0,
00:00.6,0.002449036,0.001556396,0.003433228,0,
00:00.6,0.002449036,0.001556396,0.00343895,0,
00:00.6,0.002471924,0.001573563,0.00343895,0,
00:00.6,0.002466202,0.001573563,0.003427505,0,
00:00.6,0.002523422,0.001699448,0.00343895,0,
00:00.7,0.002494812,0.001642227,0.003416061,0,
00:00.7,0.002386093,0.001493454,0.003456116,0,
00:00.7,0.002437592,0.001533508,0.003444672,0,
00:00.7,0.002454758,0.001567841,0.003427505,0,
00:00.7,0.002454758,0.001573563,0.003444672,0,
00:00.7,0.002449036,0.001562119,0.00343895,0,
00:00.7,0.002477646,0.001585007,0.003433228,0,
00:00.7,0.002500534,0.001647949,0.003427505,0,
00:00.7,0.002477646,0.001653671,0.003433228,0,
00:00.7,0.002420425,0.001493454,0.00343895,0,
00:00.7,0.002426147,0.001516342,0.003427505,0,
00:00.7,0.002449036,0.001556396,0.003433228,0,
00:00.7,0.002454758,0.001579285,0.003427505,0,
00:00.7,0.002471924,0.001573563,0.003421783,0,
00:00.7,0.00248909,0.001567841,0.003421783,0,
00:00.7,0.00248909,0.001653671,0.003421783,0,
00:00.7,0.002494812,0.001676559,0.003433228,0,
00:00.7,0.00248909,0.001630783,0.00343895,0,
00:00.7,0.002408981,0.001476288,0.00343895,0,
00:00.7,0.002420425,0.001516342,0.003433228,0,
00:00.7,0.002449036,0.001544952,0.003410339,0,
00:00.7,0.002477646,0.001567841,0.003433228,0,
00:00.7,0.002500534,0.001647949,0.003433228,0,
00:00.7,0.002454758,0.001607895,0.003410339,0,
00:00.7,0.00243187,0.00153923,0.003433228,0,
00:00.8,0.00246048,0.001556396,0.003427505,0,
00:00.8,0.002511978,0.001670837,0.003410339,0,
00:00.8,0.002449036,0.001544952,0.003427505,0,
00:00.8,0.00243187,0.001533508,0.003421783,0,
00:00.8,0.002449036,0.001533508,0.003416061,0,
00:00.8,0.002471924,0.00151062,0.003416061,0,
00:00.8,0.002471924,0.001647949,0.003421783,0,
00:00.8,0.002454758,0.001607895,0.003427505,0,
00:00.8,0.002494812,0.001625061,0.003416061,0,
00:00.8,0.002500534,0.001642227,0.003381729,0,
00:00.8,0.002408981,0.0014534,0.003421783,0,
00:00.8,0.002454758,0.00153923,0.003433228,0,
00:00.8,0.002471924,0.001613617,0.003410339,0,
00:00.8,0.002471924,0.001625061,0.003416061,0,
00:00.8,0.00248909,0.001642227,0.003410339,0,
00:00.8,0.002494812,0.001642227,0.003427505,0,
00:00.8,0.002466202,0.001596451,0.003410339,0,
00:00.8,0.002420425,0.001430511,0.003427505,0,
00:00.8,0.002443314,0.001573563,0.003421783,0,
00:00.8,0.002494812,0.001670837,0.003416061,0,
00:00.8,0.002483368,0.001613617,0.003416061,0,
00:00.8,0.002454758,0.001533508,0.003416061,0,
00:00.8,0.002471924,0.001567841,0.003416061,0,
00:00.8,0.002471924,0.001585007,0.003416061,0,
00:00.8,0.002454758,0.001567841,0.003410339,0,
00:00.9,0.002466202,0.001579285,0.003404617,0,
00:00.9,0.002477646,0.001602173,0.003404617,0,
00:00.9,0.002494812,0.001625061,0.003410339,0,
00:00.9,0.00248909,0.001625061,0.003381729,0,
00:00.9,0.00246048,0.001533508,0.003393173,0,
00:00.9,0.002471924,0.001544952,0.003410339,0,
00:00.9,0.002420425,0.001527786,0.003421783,0,
00:00.9,0.00246048,0.001596451,0.003427505,0,
00:00.9,0.00246048,0.001573563,0.003416061,0,
00:00.9,0.002471924,0.001556396,0.003404617,0,
00:00.9,0.00254631,0.00176239,0.003410339,0,
00:00.9,0.002466202,0.001590729,0.003393173,0,
00:00.9,0.002397537,0.001470566,0.003404617,0,
00:00.9,0.002454758,0.001567841,0.003404617,0,
00:00.9,0.002466202,0.001585007,0.003410339,0,
00:00.9,0.00246048,0.001544952,0.003416061,0,
00:00.9,0.002466202,0.001567841,0.003410339,0,
00:00.9,0.00248909,0.001607895,0.003410339,0,
00:00.9,0.002494812,0.001670837,0.003393173,0,
00:00.9,0.002443314,0.001533508,0.003416061,0,
00:00.9,0.00246048,0.001579285,0.003416061,0,
00:00.9,0.002471924,0.001625061,0.003398895,0,
00:00.9,0.002471924,0.001533508,0.003410339,0,
00:00.9,0.00243187,0.001470566,0.003410339,0,
00:00.9,0.00246048,0.001585007,0.003393173,0,
00:01.0,0.002483368,0.001653671,0.003387451,0,
00:01.0,0.002454758,0.001590729,0.003393173,0,
00:01.0,0.002449036,0.001562119,0.003427505,0,
00:01.0,0.00246048,0.001556396,0.003410339,0,
00:01.0,0.002500534,0.001636505,0.003398895,0,
00:01.0,0.002500534,0.001682281,0.003381729,0,
00:01.0,0.002414703,0.001464844,0.003410339,0,
00:01.0,0.002403259,0.001487732,0.003416061,0,
00:01.0,0.00243187,0.001550674,0.003398895,0,
00:01.0,0.002466202,0.001579285,0.003398895,0,
00:01.0,0.002477646,0.001590729,0.003393173,0,
00:01.0,0.002471924,0.001590729,0.003404617,0,
00:00:01,0.00246048,0.001527786,0.003404617,0,
00:01.0,0.002483368,0.001647949,0.003393173,0,
00:01.0,0.00246048,0.001585007,0.003381729,0,
00:01.0,0.002466202,0.001585007,0.003387451,0,
00:01.0,0.00246048,0.001567841,0.003393173,0,
00:01.0,0.002443314,0.001533508,0.003381729,0,
00:01.0,0.002471924,0.001567841,0.003398895,0,
00:01.0,0.002506256,0.001670837,0.003370285,0,
00:01.0,0.002454758,0.001550674,0.003376007,0,
00:01.0,0.002408981,0.001459122,0.003410339,0,
00:01.0,0.002454758,0.001562119,0.003404617,0,
00:01.0,0.002466202,0.001567841,0.003381729,0,
00:01.0,0.00248909,0.001619339,0.003376007,0,
00:01.1,0.002494812,0.001636505,0.003381729,0,
00:01.1,0.002454758,0.001550674,0.003381729,0,
00:01.1,0.002437592,0.001527786,0.003381729,0,
00:01.1,0.002471924,0.001590729,0.003387451,0,
00:01.1,0.002437592,0.001550674,0.003387451,0,
00:01.1,0.002437592,0.001516342,0.003387451,0,
00:01.1,0.002454758,0.001527786,0.003387451,0,
00:01.1,0.002477646,0.001573563,0.003376007,0,
00:01.1,0.002466202,0.001619339,0.003370285,0,
00:01.1,0.002477646,0.001630783,0.003381729,0,
00:01.1,0.002494812,0.001613617,0.003376007,0,
00:01.1,0.002454758,0.001585007,0.003364563,0,
00:01.1,0.002414703,0.001493454,0.003381729,0,
00:01.1,0.00246048,0.001579285,0.003387451,0,
00:01.1,0.002443314,0.00153923,0.003370285,0,
00:01.1,0.002454758,0.001550674,0.003381729,0,
00:01.1,0.002466202,0.001579285,0.003376007,0,
00:01.1,0.002454758,0.001579285,0.003370285,0,
00:01.1,0.00248909,0.001636505,0.003376007,0,
00:01.1,0.002506256,0.001647949,0.003364563,0,
00:01.1,0.002471924,0.001596451,0.003358841,0,
00:01.1,0.002437592,0.001493454,0.003387451,0,
00:01.1,0.002454758,0.001544952,0.003393173,0,
00:01.1,0.002477646,0.001590729,0.003370285,0,
00:01.1,0.002443314,0.00151062,0.003376007,0,
00:01.2,0.002494812,0.001585007,0.003381729,0,
00:01.2,0.002466202,0.001590729,0.003353119,0,
00:01.2,0.002437592,0.00153923,0.003358841,0,
00:01.2,0.00246048,0.001579285,0.003370285,0,
00:01.2,0.002471924,0.001573563,0.003370285,0,
00:01.2,0.00248909,0.001619339,0.003358841,0,
00:01.2,0.002466202,0.001590729,0.003370285,0,
00:01.2,0.002437592,0.001527786,0.003364563,0,
00:01.2,0.002454758,0.00151062,0.003353119,0,
00:01.2,0.00248909,0.001619339,0.003370285,0,
00:01.2,0.002471924,0.001607895,0.003364563,0,
00:01.2,0.002437592,0.00153923,0.003353119,0,
00:01.2,0.002466202,0.001607895,0.003364563,0,
00:01.2,0.002506256,0.001642227,0.003370285,0,
00:01.2,0.00246048,0.001550674,0.003353119,0,
00:01.2,0.002449036,0.001544952,0.003381729,0,
00:01.2,0.002471924,0.001556396,0.003381729,0,
00:01.2,0.002471924,0.001579285,0.003364563,0,
00:01.2,0.002466202,0.001579285,0.003370285,0,
00:01.2,0.002471924,0.001562119,0.003364563,0,
00:01.2,0.002454758,0.001567841,0.003353119,0,
00:01.2,0.002494812,0.001625061,0.003358841,0,
00:01.2,0.00246048,0.001556396,0.003330231,0,
00:01.2,0.00246048,0.001613617,0.003353119,0,
00:01.2,0.002443314,0.001533508,0.003370285,0,
00:01.3,0.002443314,0.00151062,0.003364563,0,
00:01.3,0.00246048,0.001573563,0.003353119,0,
00:01.3,0.00246048,0.001550674,0.003353119,0,
00:01.3,0.00246048,0.001567841,0.003347397,0,
00:01.3,0.002477646,0.001573563,0.003353119,0,
00:01.3,0.002449036,0.001550674,0.003341675,0,
00:01.3,0.002466202,0.001590729,0.003353119,0,
00:01.3,0.002506256,0.001647949,0.003353119,0,
00:01.3,0.002477646,0.001596451,0.003335953,0,
00:01.3,0.002443314,0.001533508,0.003347397,0,
00:01.3,0.002437592,0.001533508,0.003353119,0,
00:01.3,0.002449036,0.001527786,0.003358841,0,
00:01.3,0.002466202,0.001556396,0.003347397,0,
00:01.3,0.00246048,0.001567841,0.003347397,0,
00:01.3,0.002477646,0.001596451,0.003347397,0,
00:01.3,0.002483368,0.001625061,0.003353119,0,
00:01.3,0.00246048,0.001579285,0.003341675,0,
00:01.3,0.002443314,0.001533508,0.003353119,0,
00:01.3,0.002443314,0.00153923,0.003341675,0,
00:01.3,0.00246048,0.001556396,0.003347397,0,
00:01.3,0.002483368,0.001602173,0.003330231,0,
00:01.3,0.002466202,0.001567841,0.003341675,0,
00:01.3,0.002443314,0.00151062,0.003358841,0,
00:01.3,0.002437592,0.001516342,0.003353119,0,
00:01.3,0.002449036,0.001556396,0.003341675,0,
00:01.4,0.002471924,0.001567841,0.003330231,0,
00:01.4,0.002477646,0.001585007,0.003341675,0,
00:01.4,0.002506256,0.001653671,0.003341675,0,
00:01.4,0.002471924,0.001590729,0.003335953,0,
00:01.4,0.002426147,0.001504898,0.003341675,0,
00:01.4,0.002437592,0.001493454,0.003341675,0,
00:01.4,0.002454758,0.001556396,0.003330231,0,
00:01.4,0.002454758,0.001562119,0.003347397,0,
00:01.4,0.002471924,0.001573563,0.003347397,0,
00:01.4,0.002506256,0.001630783,0.003347397,0,
00:01.4,0.00248909,0.001642227,0.003318787,0,
00:01.4,0.002437592,0.001527786,0.003330231,0,
00:01.4,0.002426147,0.001499176,0.003341675,0,
00:01.4,0.00243187,0.00151062,0.003347397,0,
00:01.4,0.002454758,0.001544952,0.003341675,0,
00:01.4,0.002471924,0.001573563,0.003341675,0,
00:01.4,0.002466202,0.001567841,0.003330231,0,
00:01.4,0.002511978,0.001647949,0.003324509,0,
00:01.4,0.00246048,0.001550674,0.003335953,0,
00:01.4,0.002426147,0.001504898,0.003353119,0,
00:01.4,0.002437592,0.001504898,0.003358841,0,
00:01.4,0.00246048,0.001550674,0.003341675,0,
00:01.4,0.002454758,0.001550674,0.003335953,0,
00:01.4,0.00246048,0.001573563,0.003341675,0,
00:01.4,0.00246048,0.001567841,0.003341675,0,
00:01.5,0.002483368,0.001556396,0.003341675,0,
00:01.5,0.00246048,0.001544952,0.003324509,0,
00:01.5,0.002449036,0.001556396,0.003324509,0,
00:01.5,0.002477646,0.001607895,0.003324509,0,
00:01.5,0.002449036,0.001556396,0.003330231,0,
00:01.5,0.002443314,0.001522064,0.003341675,0,
00:01.5,0.00243187,0.001527786,0.003347397,0,
00:01.5,0.002466202,0.001556396,0.003324509,0,
00:01.5,0.002454758,0.001544952,0.003330231,0,
00:01.5,0.002477646,0.001613617,0.003347397,0,
00:01.5,0.002483368,0.001596451,0.003335953,0,
00:01.5,0.002471924,0.001596451,0.003324509,0,
00:01.5,0.002426147,0.001487732,0.003313065,0,
00:01.5,0.002437592,0.001493454,0.003335953,0,
00:01.5,0.002443314,0.001522064,0.003341675,0,
00:01.5,0.00246048,0.001556396,0.003347397,0,
00:01.5,0.002466202,0.001567841,0.003330231,0,
00:01.5,0.002477646,0.001573563,0.003330231,0,
00:01.5,0.0025177,0.001636505,0.003330231,0,
00:01.5,0.00246048,0.001585007,0.003313065,0,
00:01.5,0.002414703,0.001504898,0.003324509,0,
00:01.5,0.002426147,0.001493454,0.003335953,0,
00:01.5,0.002454758,0.001550674,0.003335953,0,
00:01.5,0.002454758,0.00153923,0.003330231,0,
00:01.5,0.002449036,0.001464844,0.003330231,0,
00:01.6,0.002477646,0.001567841,0.003324509,0,
00:01.6,0.002494812,0.001665115,0.00330162,0,
00:01.6,0.002449036,0.001585007,0.003330231,0,
00:01.6,0.002454758,0.001550674,0.003347397,0,
00:01.6,0.002443314,0.001504898,0.003335953,0,
00:01.6,0.002437592,0.001504898,0.003324509,0,
00:01.6,0.002443314,0.00153923,0.003324509,0,
00:01.6,0.002466202,0.001556396,0.003330231,0,
00:01.6,0.00246048,0.001562119,0.003324509,0,
00:01.6,0.002443314,0.001516342,0.003313065,0,
00:01.6,0.002477646,0.001544952,0.003318787,0,
00:01.6,0.002471924,0.001562119,0.003330231,0,
00:01.6,0.00243187,0.001522064,0.003318787,0,
00:01.6,0.002449036,0.00153923,0.003318787,0,
00:01.6,0.002466202,0.001567841,0.003330231,0,
00:01.6,0.002466202,0.001562119,0.003313065,0,
00:01.6,0.002483368,0.001590729,0.003318787,0,
00:01.6,0.002500534,0.001625061,0.003324509,0,
00:01.6,0.002449036,0.001527786,0.003324509,0,
00:01.6,0.002403259,0.0014534,0.003324509,0,
00:01.6,0.002437592,0.001476288,0.003330231,0,
00:01.6,0.002443314,0.001476288,0.003330231,0,
00:01.6,0.00246048,0.001544952,0.003324509,0,
00:01.6,0.002466202,0.001590729,0.003318787,0,
00:01.6,0.002523422,0.001693726,0.003313065,0,
00:01.7,0.002500534,0.001642227,0.003313065,0,
00:01.7,0.002397537,0.001430511,0.003330231,0,
00:01.7,0.002420425,0.00148201,0.003335953,0,
00:01.7,0.002443314,0.001516342,0.003318787,0,
00:01.7,0.002454758,0.001522064,0.003313065,0,
00:01.7,0.002466202,0.00151062,0.003313065,0,
00:01.7,0.00246048,0.001544952,0.003324509,0,
00:01.7,0.002471924,0.001579285,0.003324509,0,
00:01.7,0.002477646,0.001590729,0.003313065,0,
00:01.7,0.002466202,0.001613617,0.003290176,0,
00:01.7,0.002437592,0.001504898,0.003318787,0,
00:01.7,0.002443314,0.00151062,0.003341675,0,
00:01.7,0.002449036,0.001499176,0.003330231,0,
00:01.7,0.002466202,0.00151062,0.003313065,0,
00:01.7,0.002466202,0.001573563,0.00330162,0,
00:01.7,0.002443314,0.001550674,0.003330231,0,
00:01.7,0.00246048,0.001550674,0.003313065,0,
00:01.7,0.002483368,0.001585007,0.003318787,0,
00:01.7,0.002437592,0.001527786,0.003318787,0,
00:01.7,0.00243187,0.00148201,0.003318787,0,
00:01.7,0.002443314,0.001516342,0.003318787,0,
00:01.7,0.002466202,0.001573563,0.003313065,0,
00:01.7,0.002466202,0.001556396,0.003313065,0,
00:01.7,0.002443314,0.001533508,0.003313065,0,
00:01.7,0.002471924,0.001579285,0.003313065,0,
00:01.8,0.002449036,0.001522064,0.003330231,0,
00:01.8,0.00246048,0.001562119,0.003324509,0,
00:01.8,0.00243187,0.001522064,0.003307343,0,
00:01.8,0.002426147,0.001470566,0.003324509,0,
00:01.8,0.002443314,0.001522064,0.003313065,0,
00:01.8,0.002449036,0.001544952,0.003307343,0,
00:01.8,0.002454758,0.001544952,0.003313065,0,
00:01.8,0.00246048,0.00153923,0.003318787,0,
00:01.8,0.002454758,0.001544952,0.00330162,0,
00:01.8,0.00243187,0.001504898,0.00330162,0,
00:01.8,0.002454758,0.001533508,0.003335953,0,
00:01.8,0.002454758,0.001544952,0.003324509,0,
00:01.8,0.002443314,0.001527786,0.003318787,0,
00:01.8,0.002437592,0.001522064,0.003318787,0,
00:01.8,0.002449036,0.001567841,0.003313065,0,
00:01.8,0.002471924,0.001590729,0.003307343,0,
00:01.8,0.002471924,0.001562119,0.003324509,0,
00:01.8,0.00243187,0.00148201,0.003324509,0,
00:01.8,0.002437592,0.001522064,0.003324509,0,
00:01.8,0.002449036,0.001533508,0.003307343,0,
00:01.8,0.00243187,0.00148201,0.003324509,0,
00:01.8,0.00243187,0.001522064,0.003330231,0,
00:01.8,0.00246048,0.001573563,0.003318787,0,
00:01.8,0.00246048,0.001573563,0.003318787,0,
00:01.8,0.002449036,0.001556396,0.003318787,0,
00:01.9,0.002454758,0.001556396,0.003330231,0,
00:01.9,0.002449036,0.001522064,0.003324509,0,
00:01.9,0.002420425,0.001459122,0.003318787,0,
00:01.9,0.002426147,0.001516342,0.003330231,0,
00:01.9,0.002449036,0.001544952,0.003318787,0,
00:01.9,0.002466202,0.001573563,0.003313065,0,
00:01.9,0.002443314,0.00151062,0.003318787,0,
00:01.9,0.002437592,0.00151062,0.003335953,0,
00:01.9,0.002443314,0.001544952,0.003318787,0,
00:01.9,0.00243187,0.001533508,0.003318787,0,
00:01.9,0.002449036,0.00153923,0.003335953,0,
00:01.9,0.00246048,0.001567841,0.003330231,0,
00:01.9,0.002466202,0.001567841,0.003318787,0,
00:01.9,0.00243187,0.001493454,0.003324509,0,
00:01.9,0.002443314,0.001504898,0.003330231,0,
00:01.9,0.002449036,0.001573563,0.003330231,0,
00:01.9,0.002443314,0.00153923,0.003330231,0,
00:01.9,0.002426147,0.001516342,0.003318787,0,
00:01.9,0.002454758,0.001573563,0.003324509,0,
00:01.9,0.002454758,0.001567841,0.003318787,0,
00:01.9,0.002449036,0.001522064,0.003347397,0,
00:01.9,0.002449036,0.00153923,0.003335953,0,
00:01.9,0.002477646,0.001607895,0.003324509,0,
00:01.9,0.00246048,0.001556396,0.003318787,0,
00:01.9,0.002414703,0.001459122,0.003347397,0,
00:02.0,0.002420425,0.001470566,0.003335953,0,
00:02.0,0.002437592,0.00153923,0.003330231,0,
00:02.0,0.002454758,0.00153923,0.003341675,0,
00:02.0,0.00246048,0.001556396,0.003330231,0,
00:02.0,0.002449036,0.001562119,0.003313065,0,
00:02.0,0.002426147,0.001499176,0.003324509,0,
00:02.0,0.002437592,0.001504898,0.003347397,0,
00:02.0,0.00246048,0.001533508,0.003335953,0,
00:02.0,0.002511978,0.001693726,0.003307343,0,
00:02.0,0.002397537,0.001447678,0.003335953,0,
00:02.0,0.002397537,0.001464844,0.003364563,0,
00:02.0,0.002443314,0.00153923,0.003358841,0,
00:00:02,0.00246048,0.001567841,0.003335953,0,
00:02.0,0.002449036,0.001533508,0.003330231,0,
00:02.0,0.002454758,0.001522064,0.003324509,0,
00:02.0,0.00243187,0.001527786,0.003341675,0,
00:02.0,0.002426147,0.00153923,0.003353119,0,
00:02.0,0.002437592,0.001550674,0.003341675,0,
00:02.0,0.002449036,0.001504898,0.003347397,0,
00:02.0,0.00246048,0.001556396,0.003330231,0,
00:02.0,0.002449036,0.00153923,0.003335953,0,
00:02.0,0.002454758,0.001544952,0.003347397,0,
00:02.0,0.002437592,0.001527786,0.003341675,0,
00:02.0,0.002426147,0.001516342,0.003341675,0,
00:02.0,0.002454758,0.001544952,0.003330231,0,
00:02.1,0.002466202,0.001533508,0.003335953,0,
00:02.1,0.002443314,0.001527786,0.003335953,0,
00:02.1,0.002420425,0.001522064,0.003347397,0,
00:02.1,0.00243187,0.001527786,0.003358841,0,
00:02.1,0.00243187,0.001504898,0.003353119,0,
00:02.1,0.002466202,0.001533508,0.003347397,0,
00:02.1,0.00246048,0.001573563,0.003341675,0,
00:02.1,0.00243187,0.001544952,0.003347397,0,
00:02.1,0.002414703,0.00151062,0.003341675,0,
00:02.1,0.002403259,0.001470566,0.003347397,0,
00:02.1,0.002437592,0.001516342,0.003347397,0,
00:02.1,0.002449036,0.001533508,0.003347397,0,
00:02.1,0.00246048,0.001579285,0.003341675,0,
00:02.1,0.002477646,0.001590729,0.003318787,0,
00:02.1,0.002414703,0.001476288,0.003358841,0,
00:02.1,0.002426147,0.001493454,0.003370285,0,
00:02.1,0.002426147,0.001533508,0.003353119,0,
00:02.1,0.00243187,0.001522064,0.003347397,0,
00:02.1,0.002443314,0.001499176,0.003370285,0,
00:02.1,0.002449036,0.001487732,0.003358841,0,
00:02.1,0.002449036,0.001556396,0.003353119,0,
00:02.1,0.002437592,0.001550674,0.003347397,0,
00:02.1,0.002420425,0.001504898,0.003353119,0,
00:02.1,0.002426147,0.001533508,0.003364563,0,
00:02.1,0.00246048,0.001527786,0.003353119,0,
00:02.2,0.002449036,0.001522064,0.003347397,0,
00:02.2,0.002414703,0.00148201,0.003376007,0,
00:02.2,0.002408981,0.001476288,0.003370285,0,
00:02.2,0.002426147,0.001504898,0.003358841,0,
00:02.2,0.002443314,0.001516342,0.003364563,0,
00:02.2,0.002466202,0.001567841,0.003364563,0,
00:02.2,0.002477646,0.001590729,0.003353119,0,
00:02.2,0.002426147,0.001522064,0.003347397,0,
00:02.2,0.002403259,0.001441956,0.003370285,0,
00:02.2,0.002420425,0.001476288,0.003370285,0,
00:02.2,0.002449036,0.001527786,0.003370285,0,
00:02.2,0.002449036,0.00153923,0.003364563,0,
00:02.2,0.00243187,0.001493454,0.003358841,0,
00:02.2,0.002420425,0.001459122,0.003370285,0,
00:02.2,0.002437592,0.00151062,0.003358841,0,
00:02.2,0.002449036,0.001562119,0.003370285,0,
00:02.2,0.002483368,0.001607895,0.003376007,0,
00:02.2,0.002443314,0.001527786,0.003353119,0,
00:02.2,0.002391815,0.001430511,0.003376007,0,
00:02.2,0.002414703,0.001436234,0.003376007,0,
00:02.2,0.002408981,0.001459122,0.003376007,0,
00:02.2,0.002437592,0.001567841,0.003387451,0,
00:02.2,0.002437592,0.00153923,0.003370285,0,
00:02.2,0.00246048,0.00153923,0.003364563,0,
00:02.2,0.002477646,0.001596451,0.003358841,0,
00:02.3,0.002443314,0.00153923,0.003370285,0,
00:02.3,0.002403259,0.001470566,0.003381729,0,
00:02.3,0.002414703,0.0014534,0.003381729,0,
00:02.3,0.002414703,0.001470566,0.003381729,0,
00:02.3,0.002437592,0.00151062,0.003376007,0,
00:02.3,0.00243187,0.00151062,0.003370285,0,
00:02.3,0.002454758,0.001544952,0.003376007,0,
00:02.3,0.002477646,0.001567841,0.003358841,0,
00:02.3,0.002408981,0.00148201,0.003364563,0,
00:02.3,0.002443314,0.001556396,0.003370285,0,
00:02.3,0.002437592,0.001527786,0.003387451,0,
00:02.3,0.002414703,0.001447678,0.003381729,0,
00:02.3,0.002403259,0.001424789,0.003398895,0,
00:02.3,0.002420425,0.001464844,0.003387451,0,
00:02.3,0.002437592,0.001550674,0.003376007,0,
00:02.3,0.002437592,0.001516342,0.003387451,0,
00:02.3,0.002437592,0.00151062,0.003387451,0,
00:02.3,0.002443314,0.00153923,0.003387451,0,
00:02.3,0.002471924,0.001562119,0.003381729,0,
00:02.3,0.00248909,0.001562119,0.003358841,0,
00:02.3,0.00243187,0.001533508,0.003324509,0,
00:02.3,0.002414703,0.001544952,0.003387451,0,
00:02.3,0.002420425,0.001470566,0.003416061,0,
00:02.3,0.002391815,0.001407623,0.003404617,0,
00:02.3,0.002420425,0.001487732,0.003398895,0,
00:02.4,0.002426147,0.00148201,0.003393173,0,
00:02.4,0.002426147,0.001516342,0.003381729,0,
00:02.4,0.002426147,0.001527786,0.003387451,0,
00:02.4,0.00243187,0.00151062,0.003381729,0,
00:02.4,0.00243187,0.00151062,0.003381729,0,
00:02.4,0.00243187,0.00151062,0.003381729,0,
00:02.4,0.00243187,0.001504898,0.003381729,0,
00:02.4,0.00243187,0.001516342,0.003381729,0,
00:02.4,0.002426147,0.001487732,0.003376007,0,
00:02.4,0.00243187,0.001504898,0.003376007,0,
00:02.4,0.002466202,0.001544952,0.003376007,0,
00:02.4,0.0025177,0.001625061,0.003353119,0,
00:02.4,0.002477646,0.001619339,0.003358841,0,
00:02.4,0.002391815,0.001522064,0.003341675,0,
00:02.4,0.002391815,0.001384735,0.003381729,0,
00:02.4,0.00243187,0.00148201,0.003421783,0,
00:02.4,0.002386093,0.0014534,0.003421783,0,
00:02.4,0.002391815,0.001470566,0.003404617,0,
00:02.4,0.002397537,0.001476288,0.003387451,0,
00:02.4,0.002420425,0.001504898,0.003398895,0,
00:02.4,0.002426147,0.001493454,0.003387451,0,
00:02.4,0.002420425,0.001499176,0.003387451,0,
00:02.4,0.002420425,0.001493454,0.003381729,0,
00:02.4,0.00243187,0.001504898,0.003376007,0,
00:02.4,0.002426147,0.00151062,0.003376007,0,
00:02.5,0.002426147,0.001499176,0.003381729,0,
00:02.5,0.00243187,0.00151062,0.003376007,0,
00:02.5,0.002466202,0.001573563,0.003370285,0,
00:02.5,0.002483368,0.001602173,0.003335953,0,
00:02.5,0.002414703,0.001464844,0.003404617,0,
00:02.5,0.002386093,0.001436234,0.003410339,0,
00:02.5,0.002386093,0.001424789,0.003387451,0,
00:02.5,0.002397537,0.001436234,0.003387451,0,
00:02.5,0.002414703,0.001493454,0.003387451,0,
00:02.5,0.002420425,0.001522064,0.003387451,0,
00:02.5,0.002426147,0.001522064,0.003381729,0,
00:02.5,0.002466202,0.001562119,0.003381729,0,
00:02.5,0.00243187,0.001556396,0.003353119,0,
00:02.5,0.002408981,0.001493454,0.003393173,0,
00:02.5,0.002397537,0.001447678,0.003381729,0,
00:02.5,0.002403259,0.0014534,0.003398895,0,
00:02.5,0.00243187,0.0014534,0.003398895,0,
00:02.5,0.002420425,0.001516342,0.003381729,0,
00:02.5,0.002420425,0.001516342,0.003387451,0,
00:02.5,0.002420425,0.001493454,0.003381729,0,
00:02.5,0.002408981,0.001419067,0.003370285,0,
00:02.5,0.002408981,0.001470566,0.003381729,0,
00:02.5,0.002414703,0.001499176,0.003404617,0,
00:02.5,0.002408981,0.001487732,0.003387451,0,
00:02.5,0.002437592,0.001567841,0.003370285,0,
00:02.6,0.002420425,0.001522064,0.003364563,0,
00:02.6,0.002426147,0.001476288,0.003398895,0,
00:02.6,0.002403259,0.001476288,0.003398895,0,
00:02.6,0.002426147,0.001516342,0.003398895,0,
00:02.6,0.002437592,0.001504898,0.003387451,0,
00:02.6,0.002426147,0.001504898,0.003381729,0,
00:02.6,0.002408981,0.001487732,0.003376007,0,
00:02.6,0.002397537,0.0014534,0.003376007,0,
00:02.6,0.002437592,0.00153923,0.003387451,0,
00:02.6,0.002414703,0.00151062,0.003398895,0,
00:02.6,0.002483368,0.001573563,0.003387451,0,
00:02.6,0.002386093,0.001384735,0.003387451,0,
00:02.6,0.002357483,0.001379013,0.003427505,0,
00:02.6,0.002403259,0.00148201,0.003410339,0,
00:02.6,0.002454758,0.001562119,0.003393173,0,
00:02.6,0.00246048,0.00151062,0.003393173,0,
00:02.6,0.002374649,0.001401901,0.003393173,0,
00:02.6,0.002368927,0.0014534,0.003404617,0,
00:02.6,0.002397537,0.001493454,0.003398895,0,
00:02.6,0.002414703,0.001499176,0.003404617,0,
00:02.6,0.002414703,0.001464844,0.003398895,0,
00:02.6,0.002420425,0.001516342,0.003398895,0,
00:02.6,0.002449036,0.001550674,0.003398895,0,
00:02.6,0.002408981,0.001487732,0.003387451,0,
00:02.6,0.00243187,0.001522064,0.003404617,0,
00:02.7,0.002426147,0.00148201,0.003381729,0,
00:02.7,0.002386093,0.001447678,0.003404617,0,
00:02.7,0.002391815,0.0014534,0.003398895,0,
00:02.7,0.002414703,0.001493454,0.003398895,0,
00:02.7,0.002449036,0.00153923,0.003398895,0,
00:02.7,0.002420425,0.001470566,0.003376007,0,
00:02.7,0.00246048,0.001522064,0.003376007,0,
00:02.7,0.002357483,0.001390457,0.003410339,0,
00:02.7,0.002368927,0.001424789,0.003433228,0,
00:02.7,0.002414703,0.001504898,0.003398895,0,
00:02.7,0.002426147,0.001499176,0.003393173,0,
00:02.7,0.002454758,0.001499176,0.003404617,0,
00:02.7,0.002408981,0.0014534,0.003393173,0,
00:02.7,0.002391815,0.0014534,0.003398895,0,
00:02.7,0.002397537,0.001464844,0.003393173,0,
00:02.7,0.002414703,0.001476288,0.003398895,0,
00:02.7,0.00243187,0.001544952,0.003381729,0,
00:02.7,0.002449036,0.001556396,0.003376007,0,
00:02.7,0.00243187,0.001499176,0.003387451,0,
00:02.7,0.002391815,0.001413345,0.003398895,0,
00:02.7,0.002397537,0.001419067,0.003398895,0,
00:02.7,0.002420425,0.001476288,0.003398895,0,
00:02.7,0.00243187,0.001522064,0.003398895,0,
00:02.7,0.002408981,0.001459122,0.003398895,0,
00:02.7,0.002403259,0.001447678,0.003393173,0,
00:02.8,0.002443314,0.001544952,0.003387451,0,
00:02.8,0.00243187,0.001533508,0.003376007,0,
00:02.8,0.002403259,0.001447678,0.003381729,0,
00:02.8,0.002397537,0.001464844,0.003398895,0,
00:02.8,0.002397537,0.001401901,0.003404617,0,
00:02.8,0.002414703,0.001447678,0.003398895,0,
00:02.8,0.002443314,0.001516342,0.003387451,0,
00:02.8,0.002408981,0.001441956,0.003387451,0,
00:02.8,0.002397537,0.001459122,0.003398895,0,
00:02.8,0.002391815,0.001487732,0.003393173,0,
00:02.8,0.002408981,0.00148201,0.003381729,0,
00:02.8,0.002437592,0.00153923,0.003398895,0,
00:02.8,0.002437592,0.001516342,0.003393173,0,
00:02.8,0.00243187,0.00148201,0.003393173,0,
00:02.8,0.002420425,0.001459122,0.003364563,0,
00:02.8,0.002397537,0.001447678,0.003416061,0,
00:02.8,0.002391815,0.001464844,0.003410339,0,
00:02.8,0.002437592,0.001516342,0.003410339,0,
00:02.8,0.002443314,0.0014534,0.003404617,0,
00:02.8,0.002386093,0.001424789,0.003381729,0,
00:02.8,0.002386093,0.001430511,0.003376007,0,
00:02.8,0.002403259,0.0014534,0.003393173,0,
00:02.8,0.002426147,0.001493454,0.003387451,0,
00:02.8,0.002454758,0.001533508,0.003393173,0,
00:02.8,0.002466202,0.001550674,0.003387451,0,
00:02.9,0.002408981,0.001464844,0.003376007,0,
00:02.9,0.002374649,0.001350403,0.003398895,0,
00:02.9,0.002414703,0.001424789,0.003410339,0,
00:02.9,0.002477646,0.001619339,0.003387451,0,
00:02.9,0.002443314,0.001562119,0.003381729,0,
00:02.9,0.002368927,0.001384735,0.003404617,0,
00:02.9,0.002391815,0.001401901,0.003404617,0,
00:02.9,0.002426147,0.001504898,0.003387451,0,
00:02.9,0.002466202,0.00153923,0.003387451,0,
00:02.9,0.00248909,0.001585007,0.003387451,0,
00:02.9,0.002408981,0.001470566,0.003398895,0,
00:02.9,0.002346039,0.001373291,0.003421783,0,
00:02.9,0.002408981,0.001447678,0.003421783,0,
00:02.9,0.002443314,0.00151062,0.003393173,0,
00:02.9,0.002437592,0.00153923,0.003387451,0,
00:02.9,0.002420425,0.0014534,0.003410339,0,
00:02.9,0.002408981,0.001436234,0.003416061,0,
00:02.9,0.002397537,0.001407623,0.003404617,0,
00:02.9,0.00243187,0.001476288,0.003398895,0,
00:02.9,0.002466202,0.001556396,0.003393173,0,
00:02.9,0.002408981,0.001470566,0.003376007,0,
00:02.9,0.002374649,0.001407623,0.003410339,0,
00:02.9,0.002408981,0.001464844,0.003416061,0,
00:02.9,0.002443314,0.001499176,0.003393173,0,
00:02.9,0.002454758,0.001499176,0.003381729,0,
00:03.0,0.002408981,0.001464844,0.003393173,0,
00:03.0,0.002403259,0.001464844,0.003410339,0,
00:03.0,0.002443314,0.00151062,0.003393173,0,
00:03.0,0.002477646,0.00151062,0.003387451,0,
00:03.0,0.002420425,0.001499176,0.003376007,0,
00:03.0,0.002414703,0.00148201,0.003376007,0,
00:03.0,0.002391815,0.001401901,0.003393173,0,
00:03.0,0.002397537,0.001441956,0.003416061,0,
00:03.0,0.002494812,0.001567841,0.003421783,0,
00:03.0,0.002523422,0.001636505,0.003381729,0,
00:03.0,0.002311707,0.00125885,0.003387451,0,
00:03.0,0.002374649,0.001407623,0.003427505,0,
00:00:03,0.002408981,0.001459122,0.003404617,0,
00:03.0,0.002449036,0.001499176,0.003393173,0,
00:03.0,0.002466202,0.001533508,0.003387451,0,
00:03.0,0.00243187,0.001459122,0.003376007,0,
00:03.0,0.002426147,0.001419067,0.003381729,0,
00:03.0,0.002380371,0.001413345,0.003393173,0,
00:03.0,0.002414703,0.00148201,0.003393173,0,
00:03.0,0.00243187,0.001470566,0.003370285,0,
00:03.0,0.002426147,0.00148201,0.003358841,0,
00:03.0,0.00243187,0.001476288,0.003381729,0,
00:03.0,0.002414703,0.001430511,0.003381729,0,
00:03.0,0.00243187,0.001424789,0.003387451,0,
00:03.0,0.00248909,0.001573563,0.003381729,0,
00:03.1,0.002397537,0.001441956,0.003347397,0,
00:03.1,0.002426147,0.001441956,0.003404617,0,
00:03.1,0.002466202,0.00151062,0.003387451,0,
00:03.1,0.002483368,0.001573563,0.003353119,0,
00:03.1,0.002397537,0.001441956,0.003364563,0,
00:03.1,0.002357483,0.001338959,0.003387451,0,
00:03.1,0.002414703,0.001436234,0.003387451,0,
00:03.1,0.002471924,0.00153923,0.003376007,0,
00:03.1,0.002426147,0.001470566,0.003370285,0,
00:03.1,0.002437592,0.00151062,0.003381729,0,
00:03.1,0.002408981,0.001379013,0.003387451,0,
00:03.1,0.002443314,0.001476288,0.003370285,0,
00:03.1,0.002443314,0.001499176,0.003370285,0,
00:03.1,0.002426147,0.0014534,0.003364563,0,
00:03.1,0.002397537,0.001379013,0.003376007,0,
00:03.1,0.002414703,0.001447678,0.003387451,0,
00:03.1,0.002454758,0.001499176,0.003376007,0,
00:03.1,0.002449036,0.001493454,0.003370285,0,
00:03.1,0.002443314,0.00151062,0.003353119,0,
00:03.1,0.002408981,0.001424789,0.003370285,0,
00:03.1,0.002420425,0.001447678,0.003376007,0,
00:03.1,0.002426147,0.001430511,0.003370285,0,
00:03.1,0.002483368,0.001550674,0.003376007,0,
00:03.1,0.002443314,0.001487732,0.003347397,0,
00:03.1,0.002386093,0.001390457,0.003358841,0,
00:03.2,0.002403259,0.001396179,0.003370285,0,
00:03.2,0.002443314,0.001522064,0.003353119,0,
00:03.2,0.00248909,0.001556396,0.003353119,0,
00:03.2,0.002374649,0.001293182,0.003370285,0,
00:03.2,0.002380371,0.001379013,0.003387451,0,
00:03.2,0.002437592,0.00151062,0.003364563,0,
00:03.2,0.002471924,0.001522064,0.003364563,0,
00:03.2,0.002437592,0.001464844,0.003364563,0,
00:03.2,0.002437592,0.001459122,0.003341675,0,
00:03.2,0.002391815,0.001390457,0.003381729,0,
00:03.2,0.002414703,0.001436234,0.003381729,0,
00:03.2,0.002437592,0.001464844,0.003353119,0,
00:03.2,0.002466202,0.001516342,0.003341675,0,
00:03.2,0.002454758,0.001476288,0.003341675,0,
00:03.2,0.002408981,0.001401901,0.003370285,0,
00:03.2,0.002408981,0.001401901,0.003358841,0,
00:03.2,0.00243187,0.001441956,0.003364563,0,
00:03.2,0.002443314,0.001499176,0.003347397,0,
00:03.2,0.00246048,0.00148201,0.003358841,0,
00:03.2,0.002454758,0.001476288,0.003353119,0,
00:03.2,0.00246048,0.00148201,0.003347397,0,
00:03.2,0.002426147,0.001407623,0.003347397,0,
00:03.2,0.002414703,0.001379013,0.003364563,0,
00:03.2,0.002449036,0.001544952,0.003353119,0,
00:03.2,0.002414703,0.001407623,0.003335953,0,
00:03.3,0.00243187,0.001419067,0.003347397,0,
00:03.3,0.002466202,0.001487732,0.003347397,0,
00:03.3,0.002483368,0.001556396,0.003295898,0,
00:03.3,0.002403259,0.001379013,0.003353119,0,
00:03.3,0.002408981,0.001373291,0.003381729,0,
00:03.3,0.002437592,0.001419067,0.003358841,0,
00:03.3,0.002443314,0.001401901,0.003347397,0,
00:03.3,0.002443314,0.001476288,0.003335953,0,
00:03.3,0.00243187,0.001470566,0.003330231,0,
00:03.3,0.002443314,0.001476288,0.003335953,0,
00:03.3,0.002454758,0.001470566,0.003330231,0,
00:03.3,0.002466202,0.00151062,0.003330231,0,
00:03.3,0.002443314,0.001459122,0.003347397,0,
00:03.3,0.002437592,0.001436234,0.003330231,0,
00:03.3,0.002443314,0.001419067,0.003341675,0,
00:03.3,0.002449036,0.001401901,0.003335953,0,
00:03.3,0.002443314,0.001419067,0.003335953,0,
00:03.3,0.002506256,0.001573563,0.003353119,0,
00:03.3,0.002471924,0.001516342,0.003324509,0,
00:03.3,0.002426147,0.001447678,0.003335953,0,
00:03.3,0.002403259,0.001390457,0.003364563,0,
00:03.3,0.002414703,0.001367569,0.003347397,0,
00:03.3,0.002426147,0.001401901,0.003335953,0,
00:03.3,0.002449036,0.001430511,0.003353119,0,
00:03.3,0.002466202,0.0014534,0.003335953,0,
00:03.4,0.002511978,0.001607895,0.003318787,0,
00:03.4,0.002426147,0.001430511,0.003335953,0,
00:03.4,0.002414703,0.001396179,0.003353119,0,
00:03.4,0.002443314,0.001464844,0.003341675,0,
00:03.4,0.002466202,0.001499176,0.003324509,0,
00:03.4,0.002466202,0.001447678,0.003335953,0,
00:03.4,0.002454758,0.001441956,0.003341675,0,
00:03.4,0.002449036,0.001447678,0.003324509,0,
00:03.4,0.002471924,0.001544952,0.003318787,0,
00:03.4,0.002449036,0.001430511,0.003341675,0,
00:03.4,0.002426147,0.001384735,0.003341675,0,
00:03.4,0.002449036,0.001441956,0.003341675,0,
00:03.4,0.002437592,0.001430511,0.003324509,0,
00:03.4,0.002443314,0.001464844,0.003335953,0,
00:03.4,0.002471924,0.00148201,0.003318787,0,
00:03.4,0.002494812,0.00153923,0.003330231,0,
00:03.4,0.00246048,0.001470566,0.003335953,0,
00:03.4,0.002403259,0.001367569,0.003335953,0,
00:03.4,0.002420425,0.001384735,0.003335953,0,
00:03.4,0.002449036,0.001413345,0.003335953,0,
00:03.4,0.002466202,0.001459122,0.003324509,0,
00:03.4,0.00246048,0.0014534,0.003318787,0,
00:03.4,0.00248909,0.001499176,0.003318787,0,
00:03.4,0.002454758,0.001464844,0.003330231,0,
00:03.4,0.00243187,0.001436234,0.003341675,0,
00:03.5,0.002454758,0.001464844,0.003330231,0,
00:03.5,0.002471924,0.001476288,0.003335953,0,
00:03.5,0.002477646,0.00148201,0.003330231,0,
00:03.5,0.002529144,0.001573563,0.00330162,0,
00:03.5,0.00246048,0.001464844,0.00330162,0,
00:03.5,0.002403259,0.001373291,0.003330231,0,
00:03.5,0.00243187,0.001413345,0.003358841,0,
00:03.5,0.002454758,0.0014534,0.003341675,0,
00:03.5,0.002471924,0.001447678,0.003324509,0,
00:03.5,0.002494812,0.001504898,0.003307343,0,
00:03.5,0.002420425,0.001401901,0.003330231,0,
00:03.5,0.002449036,0.001436234,0.003335953,0,
00:03.5,0.002477646,0.001487732,0.003324509,0,
00:03.5,0.00248909,0.001487732,0.003313065,0,
00:03.5,0.002437592,0.001419067,0.003318787,0,
00:03.5,0.002466202,0.001459122,0.003330231,0,
00:03.5,0.002449036,0.001436234,0.003313065,0,
00:03.5,0.002466202,0.001464844,0.003335953,0,
00:03.5,0.00246048,0.001470566,0.003330231,0,
00:03.5,0.00246048,0.00148201,0.003313065,0,
00:03.5,0.002494812,0.001499176,0.003313065,0,
00:03.5,0.002506256,0.001504898,0.003318787,0,
00:03.5,0.002449036,0.001441956,0.003324509,0,
00:03.5,0.002420425,0.001390457,0.003330231,0,
00:03.5,0.002443314,0.001413345,0.003330231,0,
00:03.6,0.00248909,0.00148201,0.003313065,0,
00:03.6,0.00246048,0.001413345,0.003307343,0,
00:03.6,0.002443314,0.001390457,0.003335953,0,
00:03.6,0.002471924,0.001516342,0.003324509,0,
00:03.6,0.002477646,0.001522064,0.003307343,0,
00:03.6,0.002466202,0.001470566,0.00330162,0,
00:03.6,0.002449036,0.001407623,0.003335953,0,
00:03.6,0.00246048,0.001464844,0.003324509,0,
00:03.6,0.002471924,0.001459122,0.003313065,0,
00:03.6,0.002449036,0.001367569,0.003295898,0,
00:03.6,0.002466202,0.00148201,0.003307343,0,
00:03.6,0.002454758,0.001470566,0.003290176,0,
00:03.6,0.002471924,0.00148201,0.003324509,0,
00:03.6,0.00248909,0.001447678,0.003324509,0,
00:03.6,0.002471924,0.001441956,0.003318787,0,
00:03.6,0.002506256,0.001516342,0.003313065,0,
00:03.6,0.002466202,0.001459122,0.00330162,0,
00:03.6,0.002437592,0.001401901,0.003313065,0,
00:03.6,0.002449036,0.001407623,0.003313065,0,
00:03.6,0.002466202,0.001436234,0.003318787,0,
00:03.6,0.002471924,0.001436234,0.003313065,0,
00:03.6,0.002494812,0.001499176,0.003313065,0,
00:03.6,0.002466202,0.001470566,0.00330162,0,
00:03.6,0.002477646,0.001476288,0.003295898,0,
00:03.6,0.002449036,0.001390457,0.003307343,0,
00:03.7,0.002449036,0.001379013,0.003313065,0,
00:03.7,0.002471924,0.001459122,0.003313065,0,
00:03.7,0.002494812,0.001487732,0.003313065,0,
00:03.7,0.002483368,0.001464844,0.003295898,0,
00:03.7,0.00248909,0.001430511,0.003313065,0,
00:03.7,0.002471924,0.001441956,0.00330162,0,
00:03.7,0.002511978,0.00153923,0.00330162,0,
00:03.7,0.002471924,0.0014534,0.003307343,0,
00:03.7,0.002449036,0.001424789,0.003318787,0,
00:03.7,0.002449036,0.001401901,0.00330162,0,
00:03.7,0.00246048,0.001436234,0.003307343,0,
00:03.7,0.002471924,0.001447678,0.003307343,0,
00:03.7,0.002500534,0.001476288,0.003295898,0,
00:03.7,0.002494812,0.001499176,0.00330162,0,
00:03.7,0.002540588,0.001556396,0.003313065,0,
00:03.7,0.00248909,0.001487732,0.003290176,0,
00:03.7,0.002408981,0.001316071,0.003313065,0,
00:03.7,0.002437592,0.001379013,0.003318787,0,
00:03.7,0.002471924,0.0014534,0.003313065,0,
00:03.7,0.002471924,0.001430511,0.00330162,0,
00:03.7,0.002466202,0.001413345,0.003307343,0,
00:03.7,0.00248909,0.001459122,0.00330162,0,
00:03.7,0.00254631,0.001567841,0.003295898,0,
00:03.7,0.002540588,0.001573563,0.003284454,0,
00:03.7,0.002437592,0.001367569,0.003313065,0,
00:03.8,0.002494812,0.001464844,0.003313065,0,
00:03.8,0.002500534,0.001476288,0.00330162,0,
00:03.8,0.00246048,0.001356125,0.003313065,0,
00:03.8,0.00243187,0.001361847,0.003318787,0,
00:03.8,0.00246048,0.001419067,0.003330231,0,
00:03.8,0.002511978,0.001499176,0.003318787,0,
00:03.8,0.002506256,0.001516342,0.003307343,0,
00:03.8,0.002454758,0.001436234,0.003307343,0,
00:03.8,0.002483368,0.001430511,0.003318787,0,
00:03.8,0.002471924,0.001396179,0.003307343,0,
00:03.8,0.002506256,0.0014534,0.003318787,0,
00:03.8,0.002483368,0.0014534,0.003307343,0,
00:03.8,0.002449036,0.001390457,0.003284454,0,
00:03.8,0.002494812,0.0014534,0.003313065,0,
00:03.8,0.002523422,0.001522064,0.003330231,0,
00:03.8,0.0025177,0.001436234,0.003324509,0,
00:03.8,0.002477646,0.001407623,0.003307343,0,
00:03.8,0.002443314,0.001436234,0.003295898,0,
00:03.8,0.002523422,0.00153923,0.003290176,0,
00:03.8,0.002466202,0.001424789,0.00327301,0,
00:03.8,0.002420425,0.001327515,0.003335953,0,
00:03.8,0.00248909,0.001459122,0.003318787,0,
00:03.8,0.002523422,0.001522064,0.00330162,0,
00:03.8,0.0025177,0.001516342,0.003313065,0,
00:03.8,0.0025177,0.001470566,0.003295898,0,
00:03.9,0.002426147,0.001373291,0.003290176,0,
00:03.9,0.002443314,0.001373291,0.00330162,0,
00:03.9,0.002471924,0.001413345,0.003318787,0,
00:03.9,0.002483368,0.001436234,0.003313065,0,
00:03.9,0.00248909,0.001464844,0.003290176,0,
00:03.9,0.002483368,0.001401901,0.003295898,0,
00:03.9,0.00248909,0.001436234,0.00330162,0,
00:03.9,0.002477646,0.0014534,0.003307343,0,
00:03.9,0.002477646,0.001430511,0.003307343,0,
00:03.9,0.002494812,0.001413345,0.003290176,0,
00:03.9,0.002494812,0.001436234,0.003290176,0,
00:03.9,0.002552032,0.001647949,0.003284454,0,
00:03.9,0.002454758,0.001413345,0.00327301,0,
00:03.9,0.00246048,0.001338959,0.003313065,0,
00:03.9,0.002466202,0.001373291,0.003313065,0,
00:03.9,0.00246048,0.001401901,0.003284454,0,
00:03.9,0.00248909,0.001470566,0.003290176,0,
00:03.9,0.002483368,0.001459122,0.003267288,0,
00:03.9,0.002471924,0.001401901,0.003290176,0,
00:03.9,0.002534866,0.001447678,0.003295898,0,
00:03.9,0.002523422,0.001419067,0.00327301,0,
00:03.9,0.002408981,0.001356125,0.003295898,0,
00:03.9,0.00243187,0.00125885,0.003290176,0,
00:03.9,0.002477646,0.001441956,0.003278732,0,
00:03.9,0.002511978,0.001533508,0.003290176,0,
00:04.0,0.002540588,0.001567841,0.00327301,0,
00:04.0,0.002534866,0.001562119,0.00327301,0,
00:04.0,0.002477646,0.001401901,0.0032444,0,
00:04.0,0.002443314,0.001310349,0.003284454,0,
00:04.0,0.002466202,0.001356125,0.003290176,0,
00:04.0,0.002534866,0.001487732,0.003284454,0,
00:04.0,0.002494812,0.0014534,0.0032444,0,
00:04.0,0.00246048,0.001396179,0.00327301,0,
00:04.0,0.002466202,0.001390457,0.003267288,0,
00:04.0,0.002540588,0.001493454,0.003255844,0,
00:04.0,0.002552032,0.00153923,0.003238678,0,
00:04.0,0.002454758,0.001379013,0.003227234,0,
00:00:04,0.002408981,0.001304626,0.003261566,0,
00:04.0,0.002477646,0.001379013,0.003255844,0,
00:04.0,0.002466202,0.001390457,0.0032444,0,
00:04.0,0.002529144,0.001499176,0.003250122,0,
00:04.0,0.00254631,0.001579285,0.00321579,0,
00:04.0,0.00243187,0.001270294,0.003255844,0,
00:04.0,0.00246048,0.001338959,0.003250122,0,
00:04.0,0.002511978,0.001447678,0.003250122,0,
00:04.0,0.00254631,0.001573563,0.00321579,0,
00:04.0,0.002443314,0.001356125,0.003232956,0,
00:04.0,0.002466202,0.001373291,0.003255844,0,
00:04.0,0.002511978,0.001493454,0.003221512,0,
00:04.0,0.002471924,0.001373291,0.003227234,0,
00:04.1,0.002477646,0.001316071,0.003232956,0,
00:04.1,0.002494812,0.001407623,0.003227234,0,
00:04.1,0.002477646,0.001459122,0.003221512,0,
00:04.1,0.00248909,0.001436234,0.003227234,0,
00:04.1,0.002500534,0.001436234,0.003221512,0,
00:04.1,0.002506256,0.001447678,0.003210068,0,
00:04.1,0.002540588,0.001464844,0.003227234,0,
00:04.1,0.002523422,0.001424789,0.003198624,0,
00:04.1,0.002477646,0.001413345,0.003198624,0,
00:04.1,0.002477646,0.001407623,0.003198624,0,
00:04.1,0.002437592,0.00128746,0.003232956,0,
00:04.1,0.002477646,0.001379013,0.003232956,0,
00:04.1,0.002483368,0.001396179,0.00321579,0,
00:04.1,0.002483368,0.001379013,0.003210068,0,
00:04.1,0.002557755,0.001585007,0.003204346,0,
00:04.1,0.002506256,0.001430511,0.00318718,0,
00:04.1,0.002437592,0.001276016,0.003210068,0,
00:04.1,0.00246048,0.001384735,0.003210068,0,
00:04.1,0.002471924,0.001350403,0.00321579,0,
00:04.1,0.00248909,0.001384735,0.003198624,0,
00:04.1,0.002529144,0.001504898,0.003198624,0,
00:04.1,0.002523422,0.0014534,0.003175735,0,
00:04.1,0.002466202,0.001338959,0.003204346,0,
00:04.1,0.00248909,0.001396179,0.00321579,0,
00:04.1,0.002466202,0.001384735,0.003192902,0,
00:04.2,0.002483368,0.001373291,0.00318718,0,
00:04.2,0.002523422,0.001487732,0.003192902,0,
00:04.2,0.002552032,0.001522064,0.003204346,0,
00:04.2,0.002420425,0.001293182,0.003192902,0,
00:04.2,0.00246048,0.001333237,0.003204346,0,
00:04.2,0.002494812,0.001413345,0.00318718,0,
00:04.2,0.002500534,0.001436234,0.003192902,0,
00:04.2,0.002494812,0.001430511,0.00318718,0,
00:04.2,0.00248909,0.001419067,0.003181458,0,
00:04.2,0.0025177,0.001436234,0.00318718,0,
00:04.2,0.002500534,0.001321793,0.003181458,0,
00:04.2,0.002477646,0.001396179,0.003181458,0,
00:04.2,0.002471924,0.001356125,0.003204346,0,
00:04.2,0.002483368,0.001430511,0.00318718,0,
00:04.2,0.002477646,0.001396179,0.003192902,0,
00:04.2,0.00248909,0.001396179,0.003192902,0,
00:04.2,0.0025177,0.001441956,0.00318718,0,
00:04.2,0.0025177,0.001401901,0.003164291,0,
00:04.2,0.002483368,0.001344681,0.003170013,0,
00:04.2,0.002500534,0.001441956,0.003175735,0,
00:04.2,0.002523422,0.001464844,0.003192902,0,
00:04.2,0.002506256,0.001447678,0.00318718,0,
00:04.2,0.00246048,0.001338959,0.003164291,0,
00:04.2,0.002437592,0.001304626,0.00318718,0,
00:04.2,0.002477646,0.001350403,0.00318718,0,
00:04.3,0.002483368,0.001361847,0.003170013,0,
00:04.3,0.002511978,0.001430511,0.003164291,0,
00:04.3,0.002534866,0.001516342,0.003164291,0,
00:04.3,0.002500534,0.001413345,0.003170013,0,
00:04.3,0.002483368,0.001344681,0.003170013,0,
00:04.3,0.002483368,0.001344681,0.003158569,0,
00:04.3,0.00246048,0.001367569,0.003181458,0,
00:04.3,0.002471924,0.001379013,0.003175735,0,
00:04.3,0.002477646,0.001373291,0.003164291,0,
00:04.3,0.002483368,0.001373291,0.003152847,0,
00:04.3,0.002494812,0.001396179,0.003152847,0,
00:04.3,0.002569199,0.001567841,0.003158569,0,
00:04.3,0.002574921,0.001573563,0.003152847,0,
00:04.3,0.002449036,0.001304626,0.003175735,0,
00:04.3,0.002391815,0.001173019,0.00318718,0,
00:04.3,0.002449036,0.00128746,0.003181458,0,
00:04.3,0.002483368,0.001379013,0.003170013,0,
00:04.3,0.002506256,0.001407623,0.003164291,0,
00:04.3,0.002563477,0.00151062,0.003147125,0,
00:04.3,0.0025177,0.001493454,0.003118515,0,
00:04.3,0.00243187,0.00125885,0.003192902,0,
00:04.3,0.002454758,0.001333237,0.003198624,0,
00:04.3,0.002477646,0.001384735,0.003158569,0,
00:04.3,0.002477646,0.001361847,0.003158569,0,
00:04.3,0.002494812,0.001384735,0.003158569,0,
00:04.4,0.002494812,0.001338959,0.003158569,0,
00:04.4,0.00248909,0.001384735,0.003152847,0,
00:04.4,0.002529144,0.001499176,0.003152847,0,
00:04.4,0.002552032,0.001504898,0.003158569,0,
00:04.4,0.002534866,0.001499176,0.003129959,0,
00:04.4,0.002414703,0.00125885,0.003124237,0,
00:04.4,0.002420425,0.001270294,0.003175735,0,
00:04.4,0.00246048,0.001338959,0.003170013,0,
00:04.4,0.002500534,0.001367569,0.003152847,0,
00:04.4,0.002511978,0.001413345,0.003141403,0,
00:04.4,0.002529144,0.001464844,0.003135681,0,
00:04.4,0.002466202,0.001367569,0.003135681,0,
00:04.4,0.00246048,0.001310349,0.003181458,0,
00:04.4,0.002523422,0.001373291,0.003158569,0,
00:04.4,0.002500534,0.001430511,0.003141403,0,
00:04.4,0.002454758,0.001316071,0.003164291,0,
00:04.4,0.002466202,0.001361847,0.003152847,0,
00:04.4,0.00248909,0.001344681,0.003147125,0,
00:04.4,0.00248909,0.001316071,0.003147125,0,
00:04.4,0.00248909,0.0014534,0.003135681,0,
00:04.4,0.002483368,0.001430511,0.003135681,0,
00:04.4,0.002477646,0.001367569,0.003147125,0,
00:04.4,0.00248909,0.001396179,0.003135681,0,
00:04.4,0.002477646,0.001373291,0.003135681,0,
00:04.4,0.002483368,0.001356125,0.003147125,0,
00:04.5,0.002500534,0.001384735,0.003147125,0,
00:04.5,0.002603531,0.001630783,0.003118515,0,
00:04.5,0.002552032,0.00148201,0.003118515,0,
00:04.5,0.002386093,0.00120163,0.003158569,0,
00:04.5,0.002414703,0.001224518,0.003170013,0,
00:04.5,0.002466202,0.001316071,0.003158569,0,
00:04.5,0.002483368,0.001384735,0.003135681,0,
00:04.5,0.002483368,0.001356125,0.003129959,0,
00:04.5,0.002477646,0.001293182,0.003141403,0,
00:04.5,0.002529144,0.001459122,0.003135681,0,
00:04.5,0.002569199,0.001585007,0.003124237,0,
00:04.5,0.002454758,0.001316071,0.003129959,0,
00:04.5,0.002443314,0.001264572,0.003141403,0,
00:04.5,0.002466202,0.001327515,0.003141403,0,
00:04.5,0.002494812,0.001384735,0.003141403,0,
00:04.5,0.002500534,0.001338959,0.003135681,0,
00:04.5,0.002483368,0.001344681,0.003129959,0,
00:04.5,0.002494812,0.001407623,0.003112793,0,
00:04.5,0.00254631,0.00148201,0.003129959,0,
00:04.5,0.002569199,0.00153923,0.003124237,0,
00:04.5,0.002449036,0.001293182,0.003118515,0,
00:04.5,0.002426147,0.00125885,0.003147125,0,
00:04.5,0.002466202,0.001293182,0.003147125,0,
00:04.5,0.002494812,0.001367569,0.003129959,0,
00:04.5,0.00248909,0.001361847,0.003129959,0,
00:04.6,0.002506256,0.001350403,0.003118515,0,
00:04.6,0.002540588,0.001413345,0.003101349,0,
00:04.6,0.00254631,0.001550674,0.003124237,0,
00:04.6,0.002471924,0.001333237,0.003152847,0,
00:04.6,0.002443314,0.001276016,0.003141403,0,
00:04.6,0.002471924,0.001327515,0.003141403,0,
00:04.6,0.002483368,0.001310349,0.003124237,0,
00:04.6,0.002494812,0.001338959,0.003112793,0,
00:04.6,0.002500534,0.001390457,0.003112793,0,
00:04.6,0.002506256,0.001367569,0.003107071,0,
00:04.6,0.002540588,0.001430511,0.003124237,0,
00:04.6,0.002586365,0.001556396,0.003107071,0,
00:04.6,0.002426147,0.001241684,0.003112793,0,
00:04.6,0.002437592,0.001264572,0.003147125,0,
00:04.6,0.002471924,0.001338959,0.003124237,0,
00:04.6,0.002494812,0.001350403,0.003112793,0,
00:04.6,0.002500534,0.001316071,0.003124237,0,
00:04.6,0.002511978,0.001373291,0.003118515,0,
00:04.6,0.002529144,0.001447678,0.003101349,0,
00:04.6,0.002500534,0.001424789,0.003112793,0,
00:04.6,0.002494812,0.001356125,0.003124237,0,
00:04.6,0.002466202,0.001298904,0.003112793,0,
00:04.6,0.002483368,0.001350403,0.003112793,0,
00:04.6,0.002483368,0.001350403,0.003112793,0,
00:04.6,0.00248909,0.001344681,0.003095627,0,
00:04.7,0.002500534,0.001367569,0.003095627,0,
00:04.7,0.002511978,0.001379013,0.003112793,0,
00:04.7,0.0025177,0.001361847,0.003101349,0,
00:04.7,0.002494812,0.001373291,0.003107071,0,
00:04.7,0.002534866,0.00148201,0.003107071,0,
00:04.7,0.002511978,0.001390457,0.003072739,0,
00:04.7,0.002443314,0.001247406,0.003095627,0,
00:04.7,0.002466202,0.001270294,0.003135681,0,
00:04.7,0.002483368,0.001310349,0.003118515,0,
00:04.7,0.002500534,0.001333237,0.003107071,0,
00:04.7,0.00254631,0.001401901,0.003101349,0,
00:04.7,0.002557755,0.001522064,0.003084183,0,
00:04.7,0.002449036,0.001304626,0.003107071,0,
00:04.7,0.002443314,0.001264572,0.003124237,0,
00:04.7,0.00248909,0.001338959,0.003101349,0,
00:04.7,0.00248909,0.001356125,0.003101349,0,
00:04.7,0.00248909,0.001321793,0.003095627,0,
00:04.7,0.002500534,0.001361847,0.003089905,0,
00:04.7,0.002511978,0.001379013,0.003084183,0,
00:04.7,0.002552032,0.001447678,0.003078461,0,
00:04.7,0.002523422,0.001401901,0.003072739,0,
00:04.7,0.002449036,0.001270294,0.003112793,0,
00:04.7,0.002471924,0.001293182,0.003118515,0,
00:04.7,0.002483368,0.001316071,0.003101349,0,
00:04.7,0.002494812,0.001361847,0.003089905,0,
00:04.8,0.002494812,0.001327515,0.003089905,0,
00:04.8,0.002500534,0.001350403,0.003089905,0,
00:04.8,0.002523422,0.001361847,0.003084183,0,
00:04.8,0.002552032,0.001401901,0.003095627,0,
00:04.8,0.002603531,0.001579285,0.003061295,0,
00:04.8,0.002471924,0.001338959,0.003078461,0,
00:04.8,0.002380371,0.001161575,0.003118515,0,
00:04.8,0.002443314,0.001247406,0.003118515,0,
00:04.8,0.002483368,0.001327515,0.003095627,0,
00:04.8,0.002483368,0.001316071,0.003089905,0,
00:04.8,0.002483368,0.001344681,0.003084183,0,
00:04.8,0.00248909,0.001367569,0.003072739,0,
00:04.8,0.002523422,0.001356125,0.003078461,0,
00:04.8,0.002643585,0.001556396,0.003072739,0,
00:04.8,0.002483368,0.001356125,0.00304985,0,
00:04.8,0.002391815,0.001167297,0.003112793,0,
00:04.8,0.00246048,0.00128746,0.003101349,0,
00:04.8,0.002483368,0.001321793,0.003084183,0,
00:04.8,0.00248909,0.001338959,0.003072739,0,
00:04.8,0.002494812,0.001338959,0.003072739,0,
00:04.8,0.002494812,0.001321793,0.003072739,0,
00:04.8,0.002494812,0.001333237,0.003072739,0,
00:04.8,0.00248909,0.001316071,0.003067017,0,
00:04.8,0.00248909,0.001264572,0.003067017,0,
00:04.8,0.002574921,0.00153923,0.003032684,0,
00:04.9,0.002592087,0.001596451,0.003044128,0,
00:04.9,0.002466202,0.00128746,0.003078461,0,
00:04.9,0.002408981,0.001161575,0.003089905,0,
00:04.9,0.002443314,0.001247406,0.003095627,0,
00:04.9,0.002471924,0.001327515,0.003072739,0,
00:04.9,0.00248909,0.001338959,0.003067017,0,
00:04.9,0.00248909,0.001304626,0.003061295,0,
00:04.9,0.002500534,0.001298904,0.003055573,0,
00:04.9,0.002523422,0.001424789,0.003032684,0,
00:04.9,0.002471924,0.001338959,0.003055573,0,
00:04.9,0.002471924,0.001304626,0.003061295,0,
00:04.9,0.002494812,0.001327515,0.003055573,0,
00:04.9,0.002511978,0.001361847,0.003055573,0,
00:04.9,0.002494812,0.001310349,0.003055573,0,
00:04.9,0.00248909,0.001304626,0.003061295,0,
00:04.9,0.002500534,0.001327515,0.003061295,0,
00:04.9,0.002494812,0.001379013,0.003044128,0,
00:04.9,0.002506256,0.001373291,0.003032684,0,
00:04.9,0.00248909,0.001316071,0.003044128,0,
00:04.9,0.002471924,0.001276016,0.003055573,0,
00:04.9,0.002500534,0.001333237,0.00304985,0,
00:04.9,0.002523422,0.001396179,0.003032684,0,
00:04.9,0.002483368,0.001316071,0.003015518,0,
00:04.9,0.002506256,0.001344681,0.00304985,0,
00:04.9,0.002477646,0.001316071,0.00304985,0,
00:05.0,0.002454758,0.001276016,0.00304985,0,
00:05.0,0.002477646,0.001293182,0.003044128,0,
00:05.0,0.0025177,0.001373291,0.003038406,0,
00:05.0,0.0025177,0.001373291,0.003026962,0,
00:05.0,0.002477646,0.001281738,0.003044128,0,
00:05.0,0.00248909,0.001338959,0.003044128,0,
00:05.0,0.002471924,0.001281738,0.003032684,0,
00:05.0,0.002471924,0.001281738,0.003026962,0,
00:05.0,0.002483368,0.001338959,0.003038406,0,
00:05.0,0.00248909,0.001356125,0.003038406,0,
00:05.0,0.0025177,0.001384735,0.003026962,0,
00:05.0,0.0025177,0.001373291,0.003026962,0,
00:00:05,0.002494812,0.001316071,0.003044128,0,
00:05.0,0.002500534,0.001338959,0.003026962,0,
00:05.0,0.00246048,0.001281738,0.00302124,0,
00:05.0,0.002466202,0.00123024,0.003026962,0,
00:05.0,0.002483368,0.001310349,0.003026962,0,
00:05.0,0.002494812,0.001327515,0.003026962,0,
00:05.0,0.002500534,0.001333237,0.003026962,0,
00:05.0,0.002500534,0.001361847,0.003009796,0,
00:05.0,0.002483368,0.001327515,0.003015518,0,
00:05.0,0.002483368,0.001293182,0.003026962,0,
00:05.0,0.002477646,0.001293182,0.00302124,0,
00:05.0,0.002477646,0.001293182,0.003026962,0,
00:05.0,0.002483368,0.001321793,0.003032684,0,
00:05.1,0.002506256,0.001367569,0.00302124,0,
00:05.1,0.002534866,0.001344681,0.003004074,0,
00:05.1,0.002552032,0.001413345,0.003004074,0,
00:05.1,0.002483368,0.001344681,0.003009796,0,
00:05.1,0.002414703,0.001195908,0.00302124,0,
00:05.1,0.002443314,0.001235962,0.003038406,0,
00:05.1,0.002471924,0.001293182,0.00302124,0,
00:05.1,0.002477646,0.001310349,0.003015518,0,
00:05.1,0.00248909,0.001304626,0.003009796,0,
00:05.1,0.002506256,0.001361847,0.003009796,0,
00:05.1,0.002552032,0.001441956,0.002998352,0,
00:05.1,0.00248909,0.001327515,0.003009796,0,
00:05.1,0.002449036,0.001241684,0.003026962,0,
00:05.1,0.00246048,0.001270294,0.003026962,0,
00:05.1,0.002454758,0.001235962,0.003009796,0,
00:05.1,0.002471924,0.001293182,0.003004074,0,
00:05.1,0.00248909,0.001327515,0.003009796,0,
00:05.1,0.00248909,0.001333237,0.003004074,0,
00:05.1,0.002506256,0.001350403,0.003009796,0,
00:05.1,0.002511978,0.001338959,0.002998352,0,
00:05.1,0.002511978,0.001373291,0.00299263,0,
00:05.1,0.002466202,0.001281738,0.002986908,0,
00:05.1,0.002449036,0.00125885,0.002981186,0,
00:05.1,0.00246048,0.001293182,0.003009796,0,
00:05.1,0.002477646,0.001316071,0.003004074,0,
00:05.2,0.002494812,0.001338959,0.003009796,0,
00:05.2,0.0025177,0.001384735,0.002998352,0,
00:05.2,0.002471924,0.00125885,0.00299263,0,
00:05.2,0.002466202,0.001293182,0.003004074,0,
00:05.2,0.00248909,0.001316071,0.002986908,0,
00:05.2,0.002500534,0.001338959,0.00296402,0,
00:05.2,0.002466202,0.001310349,0.002998352,0,
00:05.2,0.002471924,0.001264572,0.003015518,0,
00:05.2,0.002477646,0.001281738,0.00299263,0,
00:05.2,0.002477646,0.001333237,0.002981186,0,
00:05.2,0.002506256,0.001401901,0.002986908,0,
00:05.2,0.002494812,0.001350403,0.002952576,0,
00:05.2,0.00243187,0.001173019,0.00299263,0,
00:05.2,0.002449036,0.00125885,0.002998352,0,
00:05.2,0.002471924,0.001293182,0.002986908,0,
00:05.2,0.002483368,0.001310349,0.002981186,0,
00:05.2,0.00248909,0.001327515,0.002975464,0,
00:05.2,0.00248909,0.001327515,0.002975464,0,
00:05.2,0.00246048,0.001276016,0.00296402,0,
00:05.2,0.002471924,0.001327515,0.002975464,0,
00:05.2,0.002506256,0.001361847,0.00299263,0,
00:05.2,0.002511978,0.001344681,0.002986908,0,
00:05.2,0.002471924,0.001304626,0.002969742,0,
00:05.2,0.002414703,0.001218796,0.00296402,0,
00:05.2,0.00246048,0.001281738,0.002969742,0,
00:05.3,0.002500534,0.001344681,0.002969742,0,
00:05.3,0.00248909,0.001270294,0.00296402,0,
00:05.3,0.002511978,0.001396179,0.00296402,0,
00:05.3,0.00243187,0.00123024,0.002986908,0,
00:05.3,0.002443314,0.001264572,0.002981186,0,
00:05.3,0.002466202,0.001293182,0.002986908,0,
00:05.3,0.00248909,0.001293182,0.002975464,0,
00:05.3,0.002511978,0.001333237,0.002969742,0,
00:05.3,0.002500534,0.001379013,0.002946854,0,
00:05.3,0.002454758,0.001281738,0.002969742,0,
00:05.3,0.002408981,0.00120163,0.002969742,0,
00:05.3,0.002466202,0.00128746,0.002958298,0,
00:05.3,0.00248909,0.001321793,0.002941132,0,
00:05.3,0.002483368,0.001293182,0.002946854,0,
00:05.3,0.002483368,0.001293182,0.002969742,0,
00:05.3,0.002454758,0.001276016,0.00293541,0,
00:05.3,0.002449036,0.00125885,0.002958298,0,
00:05.3,0.002477646,0.001327515,0.00296402,0,
00:05.3,0.002500534,0.001344681,0.002952576,0,
00:05.3,0.002506256,0.001344681,0.002952576,0,
00:05.3,0.00246048,0.001253128,0.00293541,0,
00:05.3,0.002449036,0.001281738,0.002929688,0,
00:05.3,0.002471924,0.001310349,0.00293541,0,
00:05.3,0.002494812,0.001316071,0.002941132,0,
00:05.3,0.002477646,0.001327515,0.002941132,0,
00:05.4,0.002449036,0.001264572,0.002952576,0,
00:05.4,0.002443314,0.001207352,0.002941132,0,
00:05.4,0.002454758,0.00125885,0.00293541,0,
00:05.4,0.002500534,0.001373291,0.002941132,0,
00:05.4,0.002540588,0.001436234,0.002918243,0,
00:05.4,0.002449036,0.001218796,0.002929688,0,
00:05.4,0.002403259,0.001173019,0.002952576,0,
00:05.4,0.002443314,0.001218796,0.002946854,0,
00:05.4,0.002471924,0.001327515,0.002941132,0,
00:05.4,0.00248909,0.001304626,0.00293541,0,
00:05.4,0.002477646,0.001316071,0.002929688,0,
00:05.4,0.002477646,0.001304626,0.002929688,0,
00:05.4,0.002471924,0.00128746,0.002929688,0,
00:05.4,0.002471924,0.001281738,0.002918243,0,
00:05.4,0.002494812,0.001338959,0.002923965,0,
00:05.4,0.002483368,0.001310349,0.002923965,0,
00:05.4,0.002443314,0.001241684,0.002906799,0,
00:05.4,0.002443314,0.00123024,0.00293541,0,
00:05.4,0.002506256,0.001379013,0.002923965,0,
00:05.4,0.002483368,0.001298904,0.002923965,0,
00:05.4,0.002449036,0.001241684,0.002918243,0,
00:05.4,0.002443314,0.001270294,0.002923965,0,
00:05.4,0.002466202,0.00125885,0.002923965,0,
00:05.4,0.00248909,0.001327515,0.002923965,0,
00:05.4,0.002449036,0.001276016,0.002901077,0,
00:05.5,0.002443314,0.001253128,0.002895355,0,
00:05.5,0.002483368,0.001316071,0.002929688,0,
00:05.5,0.00246048,0.001281738,0.002918243,0,
00:05.5,0.002454758,0.001247406,0.002918243,0,
00:05.5,0.002471924,0.001281738,0.002906799,0,
00:05.5,0.002511978,0.001424789,0.002906799,0,
00:05.5,0.002466202,0.001276016,0.002906799,0,
00:05.5,0.002437592,0.001241684,0.002901077,0,
00:05.5,0.002454758,0.00125885,0.002912521,0,
00:05.5,0.00248909,0.001321793,0.002901077,0,
00:05.5,0.002511978,0.001361847,0.002895355,0,
00:05.5,0.002483368,0.001321793,0.002901077,0,
00:05.5,0.002437592,0.00123024,0.002906799,0,
00:05.5,0.002466202,0.001281738,0.002906799,0,
00:05.5,0.002477646,0.001304626,0.002901077,0,
00:05.5,0.002454758,0.001224518,0.002906799,0,
00:05.5,0.00246048,0.00128746,0.002889633,0,
00:05.5,0.002454758,0.001316071,0.002883911,0,
00:05.5,0.002477646,0.001338959,0.002883911,0,
00:05.5,0.002506256,0.001379013,0.002883911,0,
00:05.5,0.002511978,0.001367569,0.002872467,0,
00:05.5,0.002437592,0.001184464,0.002912521,0,
00:05.5,0.002420425,0.00120163,0.002906799,0,
00:05.5,0.002449036,0.001276016,0.002889633,0,
00:05.5,0.00246048,0.001270294,0.002901077,0,
00:05.6,0.002523422,0.001396179,0.002895355,0,
00:05.6,0.002449036,0.001264572,0.002861023,0,
00:05.6,0.002443314,0.001247406,0.002895355,0,
00:05.6,0.002454758,0.00123024,0.002901077,0,
00:05.6,0.002449036,0.001207352,0.002895355,0,
00:05.6,0.002443314,0.001241684,0.002889633,0,
00:05.6,0.002477646,0.001321793,0.002878189,0,
00:05.6,0.002454758,0.001304626,0.002861023,0,
00:05.6,0.002477646,0.001304626,0.002872467,0,
00:05.6,0.002511978,0.001367569,0.002883911,0,
00:05.6,0.002443314,0.001281738,0.002861023,0,
00:05.6,0.002449036,0.001264572,0.002883911,0,
00:05.6,0.002466202,0.001293182,0.002878189,0,
00:05.6,0.002454758,0.00128746,0.002866745,0,
00:05.6,0.002477646,0.001327515,0.002855301,0,
00:05.6,0.00246048,0.001281738,0.002866745,0,
00:05.6,0.00246048,0.001276016,0.002878189,0,
00:05.6,0.00246048,0.001247406,0.002872467,0,
00:05.6,0.002466202,0.001310349,0.002861023,0,
00:05.6,0.002466202,0.00128746,0.002872467,0,
00:05.6,0.002443314,0.001218796,0.002872467,0,
00:05.6,0.002454758,0.001264572,0.002861023,0,
00:05.6,0.002483368,0.001413345,0.002855301,0,
00:05.6,0.00246048,0.001281738,0.002843857,0,
00:05.6,0.002477646,0.001298904,0.002866745,0,
00:05.7,0.002483368,0.001327515,0.002843857,0,
00:05.7,0.002426147,0.001235962,0.002878189,0,
00:05.7,0.002437592,0.001213074,0.002872467,0,
00:05.7,0.002443314,0.001218796,0.002855301,0,
00:05.7,0.002449036,0.001264572,0.002849579,0,
00:05.7,0.002466202,0.001298904,0.002861023,0,
00:05.7,0.002466202,0.001321793,0.002843857,0,
00:05.7,0.002494812,0.001338959,0.002838135,0,
00:05.7,0.002483368,0.001316071,0.002838135,0,
00:05.7,0.002414703,0.001218796,0.002849579,0,
00:05.7,0.002449036,0.001247406,0.002861023,0,
00:05.7,0.002471924,0.001310349,0.002838135,0,
00:05.7,0.002466202,0.001298904,0.002832413,0,
00:05.7,0.00246048,0.001247406,0.002838135,0,
00:05.7,0.002511978,0.001361847,0.002832413,0,
00:05.7,0.002471924,0.001316071,0.002843857,0,
00:05.7,0.002403259,0.00123024,0.002849579,0,
00:05.7,0.002449036,0.00125885,0.002849579,0,
00:05.7,0.002477646,0.001338959,0.002843857,0,
00:05.7,0.002454758,0.00128746,0.002832413,0,
00:05.7,0.00243187,0.001213074,0.002838135,0,
00:05.7,0.002443314,0.001264572,0.002843857,0,
00:05.7,0.002466202,0.00128746,0.002838135,0,
00:05.7,0.00248909,0.001338959,0.002832413,0,
00:05.7,0.002483368,0.001327515,0.002815247,0,
00:05.8,0.002426147,0.001235962,0.002838135,0,
00:05.8,0.00243187,0.001247406,0.002843857,0,
00:05.8,0.002443314,0.001247406,0.002838135,0,
00:05.8,0.00246048,0.00125885,0.002838135,0,
00:05.8,0.002477646,0.001310349,0.002838135,0,
00:05.8,0.00246048,0.00128746,0.002820969,0,
00:05.8,0.002437592,0.001247406,0.002826691,0,
00:05.8,0.00246048,0.001304626,0.002820969,0,
00:05.8,0.002494812,0.001350403,0.002809525,0,
00:05.8,0.00248909,0.001344681,0.002815247,0,
00:05.8,0.002437592,0.00125885,0.002832413,0,
00:05.8,0.002420425,0.001218796,0.002838135,0,
00:05.8,0.00243187,0.001253128,0.002820969,0,
00:05.8,0.002443314,0.001247406,0.002820969,0,
00:05.8,0.00246048,0.001264572,0.002826691,0,
00:05.8,0.002466202,0.001276016,0.002832413,0,
00:05.8,0.002483368,0.001361847,0.002815247,0,
00:05.8,0.002506256,0.001413345,0.002820969,0,
00:05.8,0.002471924,0.001281738,0.002792358,0,
00:05.8,0.002403259,0.00120163,0.002803802,0,
00:05.8,0.002403259,0.001173019,0.002855301,0,
00:05.8,0.002426147,0.00123024,0.002838135,0,
00:05.8,0.002449036,0.00128746,0.002815247,0,
00:05.8,0.002449036,0.001270294,0.002803802,0,
00:05.8,0.002443314,0.00120163,0.002815247,0,
00:05.9,0.002494812,0.001379013,0.002832413,0,
00:05.9,0.00248909,0.001390457,0.002809525,0,
00:05.9,0.002437592,0.001264572,0.00279808,0,
00:05.9,0.002420425,0.001195908,0.002826691,0,
00:05.9,0.002443314,0.001247406,0.002826691,0,
00:05.9,0.002454758,0.001276016,0.002820969,0,
00:05.9,0.002443314,0.001276016,0.002815247,0,
00:05.9,0.002449036,0.001276016,0.002792358,0,
00:05.9,0.002466202,0.001298904,0.002786636,0,
00:05.9,0.002529144,0.001407623,0.002815247,0,
00:05.9,0.00248909,0.001361847,0.002815247,0,
00:05.9,0.002408981,0.001207352,0.002809525,0,
00:05.9,0.002403259,0.001161575,0.002815247,0,
00:05.9,0.00243187,0.001218796,0.002820969,0,
00:05.9,0.002449036,0.00125885,0.002815247,0,
00:05.9,0.002483368,0.001338959,0.002815247,0,
00:05.9,0.002454758,0.001253128,0.002786636,0,
00:05.9,0.002454758,0.001276016,0.002803802,0,
00:05.9,0.002523422,0.001424789,0.00279808,0,
00:05.9,0.002477646,0.001367569,0.002786636,0,
00:05.9,0.002386093,0.001132965,0.002815247,0,
00:05.9,0.002408981,0.00120163,0.002815247,0,
00:05.9,0.002443314,0.00123024,0.002809525,0,
00:05.9,0.002454758,0.001298904,0.002803802,0,
00:05.9,0.002449036,0.001298904,0.002792358,0,
00:06.0,0.002454758,0.001270294,0.00279808,0,
00:06.0,0.00246048,0.001298904,0.002792358,0,
00:06.0,0.00248909,0.001350403,0.002803802,0,
00:06.0,0.002511978,0.001413345,0.002780914,0,
00:06.0,0.002426147,0.001253128,0.002803802,0,
00:06.0,0.002403259,0.001178741,0.002809525,0,
00:06.0,0.00243187,0.001235962,0.00279808,0,
00:06.0,0.002449036,0.001247406,0.002803802,0,
00:06.0,0.002454758,0.001270294,0.00279808,0,
00:06.0,0.002454758,0.001270294,0.00279808,0,
00:06.0,0.002477646,0.001321793,0.00279808,0,
00:06.0,0.00248909,0.001338959,0.002792358,0,
00:00:06,0.002471924,0.001356125,0.002775192,0,
00:06.0,0.00246048,0.001321793,0.002775192,0,
00:06.0,0.002408981,0.001195908,0.002786636,0,
00:06.0,0.002408981,0.001178741,0.002786636,0,
00:06.0,0.002437592,0.001218796,0.002803802,0,
00:06.0,0.002449036,0.001293182,0.00279808,0,
00:06.0,0.002454758,0.001310349,0.00279808,0,
00:06.0,0.002449036,0.00125885,0.002786636,0,
00:06.0,0.00246048,0.001310349,0.002786636,0,
00:06.0,0.002500534,0.001401901,0.002780914,0,
00:06.0,0.00246048,0.001316071,0.00276947,0,
00:06.0,0.002437592,0.001253128,0.00279808,0,
00:06.0,0.002426147,0.001218796,0.002792358,0,
00:06.1,0.002420425,0.001224518,0.002786636,0,
00:06.1,0.002443314,0.001264572,0.002786636,0,
00:06.1,0.00246048,0.001298904,0.002780914,0,
00:06.1,0.002466202,0.001298904,0.00276947,0,
00:06.1,0.00248909,0.001367569,0.002775192,0,
00:06.1,0.002437592,0.001264572,0.002780914,0,
00:06.1,0.002408981,0.001207352,0.002786636,0,
00:06.1,0.002437592,0.001224518,0.00276947,0,
00:06.1,0.002449036,0.001264572,0.002786636,0,
00:06.1,0.00246048,0.001276016,0.002786636,0,
00:06.1,0.002483368,0.001316071,0.002792358,0,
00:06.1,0.002500534,0.001321793,0.002763748,0,
00:06.1,0.002449036,0.001356125,0.002746582,0,
00:06.1,0.002449036,0.001316071,0.002775192,0,
00:06.1,0.002414703,0.001207352,0.002780914,0,
00:06.1,0.00243187,0.001213074,0.002775192,0,
00:06.1,0.002426147,0.001224518,0.002775192,0,
00:06.1,0.002443314,0.001276016,0.002775192,0,
00:06.1,0.002449036,0.001281738,0.002780914,0,
00:06.1,0.002443314,0.001276016,0.002763748,0,
00:06.1,0.002471924,0.001344681,0.002752304,0,
00:06.1,0.002500534,0.001379013,0.00276947,0,
00:06.1,0.00246048,0.001316071,0.002786636,0,
00:06.1,0.002420425,0.001224518,0.002780914,0,
00:06.1,0.002414703,0.001207352,0.002775192,0,
00:06.2,0.002437592,0.001241684,0.002775192,0,
00:06.2,0.002449036,0.00125885,0.002775192,0,
00:06.2,0.002454758,0.001276016,0.002763748,0,
00:06.2,0.002454758,0.001293182,0.002752304,0,
00:06.2,0.00246048,0.001298904,0.002763748,0,
00:06.2,0.002483368,0.001321793,0.002780914,0,
00:06.2,0.002500534,0.001407623,0.002775192,0,
00:06.2,0.002443314,0.001264572,0.002763748,0,
00:06.2,0.002397537,0.001167297,0.002780914,0,
00:06.2,0.002443314,0.001253128,0.002775192,0,
00:06.2,0.002443314,0.001224518,0.00276947,0,
00:06.2,0.002466202,0.001310349,0.00276947,0,
00:06.2,0.00246048,0.001298904,0.00276947,0,
00:06.2,0.002477646,0.001350403,0.002758026,0,
00:06.2,0.00243187,0.00125885,0.002763748,0,
00:06.2,0.002420425,0.001253128,0.002775192,0,
00:06.2,0.002437592,0.001264572,0.002775192,0,
00:06.2,0.002471924,0.001310349,0.002758026,0,
00:06.2,0.002477646,0.001293182,0.002758026,0,
00:06.2,0.00243187,0.001253128,0.002758026,0,
00:06.2,0.002443314,0.001281738,0.00276947,0,
00:06.2,0.00246048,0.001304626,0.002775192,0,
00:06.2,0.002477646,0.001310349,0.00276947,0,
00:06.2,0.002506256,0.001356125,0.002763748,0,
00:06.2,0.002454758,0.001333237,0.002746582,0,
00:06.3,0.002403259,0.001184464,0.00276947,0,
00:06.3,0.00243187,0.00123024,0.00276947,0,
00:06.3,0.002454758,0.001253128,0.002763748,0,
00:06.3,0.002449036,0.001253128,0.002763748,0,
00:06.3,0.002443314,0.001253128,0.002758026,0,
00:06.3,0.002494812,0.001367569,0.002758026,0,
00:06.3,0.002477646,0.001327515,0.002752304,0,
00:06.3,0.00243187,0.001253128,0.00276947,0,
00:06.3,0.002437592,0.001264572,0.00276947,0,
00:06.3,0.00246048,0.001270294,0.002775192,0,
00:06.3,0.00248909,0.001327515,0.002775192,0,
00:06.3,0.00246048,0.001293182,0.002758026,0,
00:06.3,0.00243187,0.001184464,0.00276947,0,
00:06.3,0.002443314,0.001281738,0.002758026,0,
00:06.3,0.002483368,0.001373291,0.002752304,0,
00:06.3,0.00246048,0.001293182,0.002758026,0,
00:06.3,0.002454758,0.001276016,0.002758026,0,
00:06.3,0.002449036,0.00125885,0.00274086,0,
00:06.3,0.002449036,0.001241684,0.002758026,0,
00:06.3,0.002466202,0.001276016,0.002752304,0,
00:06.3,0.002466202,0.001293182,0.002758026,0,
00:06.3,0.002466202,0.001293182,0.002758026,0,
00:06.3,0.002494812,0.001356125,0.002758026,0,
00:06.3,0.00246048,0.001281738,0.002752304,0,
00:06.3,0.002437592,0.001155853,0.002729416,0,
00:06.4,0.002466202,0.00128746,0.002752304,0,
00:06.4,0.002477646,0.001361847,0.002758026,0,
00:06.4,0.002443314,0.001270294,0.002752304,0,
00:06.4,0.002443314,0.001241684,0.002763748,0,
00:06.4,0.002454758,0.001281738,0.002758026,0,
00:06.4,0.00248909,0.001350403,0.002752304,0,
00:06.4,0.002494812,0.001390457,0.002746582,0,
00:06.4,0.002437592,0.00123024,0.002752304,0,
00:06.4,0.00243187,0.00120163,0.002758026,0,
00:06.4,0.002437592,0.00123024,0.002746582,0,
00:06.4,0.002449036,0.001270294,0.002746582,0,
00:06.4,0.002454758,0.001264572,0.002746582,0,
00:06.4,0.002477646,0.001293182,0.00274086,0,
00:06.4,0.002483368,0.001281738,0.002735138,0,
00:06.4,0.002471924,0.001321793,0.002735138,0,
00:06.4,0.002477646,0.001350403,0.002735138,0,
00:06.4,0.002437592,0.001235962,0.00274086,0,
00:06.4,0.002449036,0.001224518,0.002746582,0,
00:06.4,0.002449036,0.001224518,0.002746582,0,
00:06.4,0.002466202,0.001304626,0.002752304,0,
00:06.4,0.002466202,0.001298904,0.002729416,0,
00:06.4,0.002477646,0.001304626,0.002735138,0,
00:06.4,0.002471924,0.001327515,0.002735138,0,
00:06.4,0.00246048,0.001270294,0.002746582,0,
00:06.4,0.002443314,0.001224518,0.002763748,0,
00:06.5,0.002466202,0.001293182,0.002746582,0,
00:06.5,0.002477646,0.001298904,0.002735138,0,
00:06.5,0.00248909,0.001356125,0.00274086,0,
00:06.5,0.00243187,0.001235962,0.002729416,0,
00:06.5,0.002426147,0.001235962,0.002735138,0,
00:06.5,0.002443314,0.001247406,0.002746582,0,
00:06.5,0.00246048,0.00125885,0.00274086,0,
00:06.5,0.002506256,0.001379013,0.002735138,0,
00:06.5,0.002477646,0.001333237,0.002723694,0,
00:06.5,0.002449036,0.001235962,0.002735138,0,
00:06.5,0.002443314,0.001235962,0.002752304,0,
00:06.5,0.002443314,0.001235962,0.002735138,0,
00:06.5,0.002449036,0.00120163,0.00274086,0,
00:06.5,0.002471924,0.001310349,0.00274086,0,
00:06.5,0.002483368,0.001310349,0.00274086,0,
00:06.5,0.002506256,0.001338959,0.002735138,0,
00:06.5,0.00248909,0.001344681,0.002717972,0,
00:06.5,0.00243187,0.001167297,0.00274086,0,
00:06.5,0.002420425,0.001178741,0.00274086,0,
00:06.5,0.002443314,0.001270294,0.002735138,0,
00:06.5,0.00246048,0.001281738,0.00274086,0,
00:06.5,0.002477646,0.001350403,0.002729416,0,
00:06.5,0.002494812,0.001361847,0.002729416,0,
00:06.5,0.002443314,0.00125885,0.00274086,0,
00:06.5,0.002443314,0.001241684,0.002735138,0,
00:06.6,0.002471924,0.00128746,0.00274086,0,
00:06.6,0.00246048,0.001270294,0.002735138,0,
00:06.6,0.002466202,0.001276016,0.002735138,0,
00:06.6,0.002494812,0.001333237,0.002729416,0,
00:06.6,0.00246048,0.001270294,0.002729416,0,
00:06.6,0.002449036,0.00123024,0.00274086,0,
00:06.6,0.002454758,0.001235962,0.002752304,0,
00:06.6,0.002454758,0.00125885,0.002735138,0,
00:06.6,0.002471924,0.00123024,0.002729416,0,
00:06.6,0.002477646,0.001321793,0.002735138,0,
00:06.6,0.002443314,0.001264572,0.002723694,0,
00:06.6,0.002443314,0.001247406,0.002758026,0,
00:06.6,0.002454758,0.001293182,0.00274086,0,
00:06.6,0.002483368,0.001321793,0.002729416,0,
00:06.6,0.002511978,0.001384735,0.002717972,0,
00:06.6,0.002477646,0.001316071,0.002723694,0,
00:06.6,0.002403259,0.001144409,0.002729416,0,
00:06.6,0.002426147,0.001235962,0.002758026,0,
00:06.6,0.002471924,0.001298904,0.00274086,0,
00:06.6,0.002477646,0.001304626,0.002735138,0,
00:06.6,0.002466202,0.001270294,0.002729416,0,
00:06.6,0.002443314,0.001247406,0.002729416,0,
00:06.6,0.002449036,0.001235962,0.00271225,0,
00:06.6,0.002466202,0.001253128,0.00274086,0,
00:06.6,0.002471924,0.001298904,0.002746582,0,
00:06.7,0.002471924,0.001304626,0.002729416,0,
00:06.7,0.002471924,0.00128746,0.002723694,0,
00:06.7,0.002477646,0.001316071,0.002717972,0,
00:06.7,0.002483368,0.001316071,0.002717972,0,
00:06.7,0.00246048,0.001235962,0.00274086,0,
00:06.7,0.002443314,0.001190186,0.002729416,0,
00:06.7,0.00248909,0.001344681,0.002735138,0,
00:06.7,0.002449036,0.001264572,0.002706528,0,
00:06.7,0.002420425,0.001207352,0.00274086,0,
00:06.7,0.002449036,0.001264572,0.002746582,0,
00:06.7,0.002466202,0.001264572,0.002735138,0,
00:06.7,0.00246048,0.001270294,0.002729416,0,
00:06.7,0.00246048,0.001253128,0.002723694,0,
00:06.7,0.002471924,0.001253128,0.002723694,0,
00:06.7,0.002552032,0.001413345,0.002717972,0,
00:06.7,0.002523422,0.001407623,0.002706528,0,
00:06.7,0.002368927,0.001132965,0.002729416,0,
00:06.7,0.002414703,0.001161575,0.002735138,0,
00:06.7,0.002443314,0.001218796,0.002723694,0,
00:06.7,0.00246048,0.001253128,0.002729416,0,
00:06.7,0.00246048,0.001281738,0.002729416,0,
00:06.7,0.00246048,0.001276016,0.002723694,0,
00:06.7,0.00246048,0.001270294,0.002723694,0,
00:06.7,0.002466202,0.001270294,0.002706528,0,
00:06.7,0.002471924,0.001304626,0.002695084,0,
00:06.8,0.0025177,0.001390457,0.00271225,0,
00:06.8,0.002574921,0.001379013,0.002729416,0,
00:06.8,0.002443314,0.001184464,0.002700806,0,
00:06.8,0.002357483,0.001098633,0.002729416,0,
00:06.8,0.002426147,0.001224518,0.002746582,0,
00:06.8,0.002454758,0.00125885,0.00274086,0,
00:06.8,0.00246048,0.001264572,0.002729416,0,
00:06.8,0.002454758,0.001264572,0.002729416,0,
00:06.8,0.002454758,0.001276016,0.002729416,0,
00:06.8,0.002466202,0.001281738,0.002723694,0,
00:06.8,0.002471924,0.001264572,0.002717972,0,
00:06.8,0.002529144,0.001390457,0.00271225,0,
00:06.8,0.002500534,0.001367569,0.002695084,0,
00:06.8,0.002391815,0.001121521,0.002717972,0,
00:06.8,0.002420425,0.001195908,0.00274086,0,
00:06.8,0.002449036,0.001253128,0.002729416,0,
00:06.8,0.002454758,0.00125885,0.002723694,0,
00:06.8,0.002454758,0.001241684,0.002717972,0,
00:06.8,0.002449036,0.00125885,0.002717972,0,
00:06.8,0.002449036,0.001247406,0.002717972,0,
00:06.8,0.002471924,0.001253128,0.00271225,0,
00:06.8,0.002529144,0.001401901,0.00271225,0,
00:06.8,0.002529144,0.001436234,0.002695084,0,
00:06.8,0.002386093,0.001138687,0.002723694,0,
00:06.8,0.002408981,0.001167297,0.00274086,0,
00:06.9,0.002443314,0.00125885,0.00271225,0,
00:06.9,0.002471924,0.001344681,0.002717972,0,
00:06.9,0.002466202,0.001270294,0.002729416,0,
00:06.9,0.002437592,0.001173019,0.002735138,0,
00:06.9,0.002449036,0.001224518,0.002729416,0,
00:06.9,0.002471924,0.001281738,0.002717972,0,
00:06.9,0.002483368,0.001327515,0.002729416,0,
00:06.9,0.002466202,0.001293182,0.00271225,0,
00:06.9,0.002483368,0.00128746,0.002700806,0,
00:06.9,0.002483368,0.001316071,0.002717972,0,
00:06.9,0.00243187,0.001190186,0.002729416,0,
00:06.9,0.002397537,0.001138687,0.002723694,0,
00:06.9,0.002443314,0.001281738,0.002717972,0,
00:06.9,0.002449036,0.001247406,0.002717972,0,
00:06.9,0.002449036,0.001241684,0.002723694,0,
00:06.9,0.002466202,0.001304626,0.002723694,0,
00:06.9,0.002494812,0.001356125,0.002706528,0,
00:06.9,0.002483368,0.001310349,0.002700806,0,
00:06.9,0.002408981,0.001155853,0.00271225,0,
00:06.9,0.00243187,0.001218796,0.002729416,0,
00:06.9,0.002449036,0.00125885,0.00271225,0,
00:06.9,0.002466202,0.001281738,0.00271225,0,
00:06.9,0.002494812,0.001281738,0.002717972,0,
00:06.9,0.002471924,0.001281738,0.002700806,0,
00:06.9,0.002408981,0.001235962,0.00271225,0,
00:07.0,0.00243187,0.001235962,0.00271225,0,
00:07.0,0.002449036,0.001247406,0.002706528,0,
00:07.0,0.002454758,0.001213074,0.002706528,0,
00:07.0,0.002483368,0.001270294,0.002717972,0,
00:07.0,0.002437592,0.001264572,0.002700806,0,
00:07.0,0.00246048,0.001298904,0.002706528,0,
00:07.0,0.002449036,0.001235962,0.002695084,0,
00:07.0,0.002454758,0.001298904,0.002700806,0,
00:07.0,0.002443314,0.001241684,0.002729416,0,
00:07.0,0.002454758,0.001241684,0.002729416,0,
00:07.0,0.002449036,0.00125885,0.00271225,0,
00:07.0,0.00243187,0.001213074,0.002700806,0,
00:00:07,0.002437592,0.001235962,0.002706528,0,
00:07.0,0.002449036,0.001224518,0.002700806,0,
00:07.0,0.002454758,0.00123024,0.002700806,0,
00:07.0,0.002477646,0.001333237,0.002700806,0,
00:07.0,0.002454758,0.00128746,0.002700806,0,
00:07.0,0.002437592,0.001247406,0.002706528,0,
00:07.0,0.00246048,0.001281738,0.002700806,0,
00:07.0,0.002443314,0.001241684,0.00271225,0,
00:07.0,0.002437592,0.001218796,0.00271225,0,
00:07.0,0.002437592,0.001184464,0.002706528,0,
00:07.0,0.002494812,0.001304626,0.002695084,0,
00:07.0,0.002454758,0.001304626,0.00268364,0,
00:07.0,0.002403259,0.001190186,0.002729416,0,
00:07.1,0.002443314,0.001270294,0.002706528,0,
00:07.1,0.002449036,0.001247406,0.002706528,0,
00:07.1,0.00243187,0.001218796,0.002700806,0,
00:07.1,0.00243187,0.001235962,0.002700806,0,
00:07.1,0.002449036,0.001247406,0.002695084,0,
00:07.1,0.002443314,0.00125885,0.002695084,0,
00:07.1,0.002449036,0.001224518,0.002689362,0,
00:07.1,0.00248909,0.001333237,0.002672195,0,
00:07.1,0.002511978,0.001390457,0.00268364,0,
00:07.1,0.002386093,0.001167297,0.002700806,0,
00:07.1,0.002397537,0.001184464,0.002717972,0,
00:07.1,0.002426147,0.001213074,0.002695084,0,
00:07.1,0.002437592,0.00123024,0.002695084,0,
00:07.1,0.00243187,0.001224518,0.002700806,0,
00:07.1,0.002449036,0.001224518,0.002700806,0,
00:07.1,0.002500534,0.001270294,0.00268364,0,
00:07.1,0.002574921,0.001522064,0.002655029,0,
00:07.1,0.002363205,0.001195908,0.002695084,0,
00:07.1,0.002351761,0.001098633,0.002723694,0,
00:07.1,0.002408981,0.001184464,0.002706528,0,
00:07.1,0.00243187,0.001224518,0.002700806,0,
00:07.1,0.002437592,0.001235962,0.002700806,0,
00:07.1,0.002443314,0.001235962,0.002695084,0,
00:07.1,0.002437592,0.001235962,0.002689362,0,
00:07.1,0.002449036,0.001235962,0.002695084,0,
00:07.2,0.002437592,0.001161575,0.00268364,0,
00:07.2,0.00246048,0.00128746,0.002672195,0,
00:07.2,0.00248909,0.001419067,0.00268364,0,
00:07.2,0.002477646,0.001350403,0.002672195,0,
00:07.2,0.002397537,0.001138687,0.002695084,0,
00:07.2,0.002386093,0.001155853,0.002700806,0,
00:07.2,0.002420425,0.001224518,0.002689362,0,
00:07.2,0.002437592,0.001241684,0.00268364,0,
00:07.2,0.002420425,0.001213074,0.00268364,0,
00:07.2,0.002426147,0.001218796,0.002677917,0,
00:07.2,0.00243187,0.001224518,0.002677917,0,
00:07.2,0.002443314,0.00123024,0.002672195,0,
00:07.2,0.002477646,0.001316071,0.002637863,0,
00:07.2,0.002426147,0.00123024,0.00268364,0,
00:07.2,0.002437592,0.00125885,0.002695084,0,
00:07.2,0.002420425,0.00120163,0.002689362,0,
00:07.2,0.002443314,0.001213074,0.00268364,0,
00:07.2,0.002426147,0.001224518,0.002672195,0,
00:07.2,0.002420425,0.00120163,0.00268364,0,
00:07.2,0.002443314,0.001190186,0.002689362,0,
00:07.2,0.00246048,0.001224518,0.002677917,0,
00:07.2,0.002437592,0.001276016,0.002672195,0,
00:07.2,0.002426147,0.001253128,0.002672195,0,
00:07.2,0.002471924,0.001327515,0.002666473,0,
00:07.2,0.002477646,0.001350403,0.002649307,0,
00:07.3,0.002363205,0.001115799,0.00268364,0,
00:07.3,0.002403259,0.001167297,0.002695084,0,
00:07.3,0.002426147,0.001224518,0.002677917,0,
00:07.3,0.002437592,0.001235962,0.002672195,0,
00:07.3,0.002443314,0.001270294,0.002672195,0,
00:07.3,0.002449036,0.00125885,0.002666473,0,
00:07.3,0.002437592,0.00123024,0.002677917,0,
00:07.3,0.002414703,0.001213074,0.002672195,0,
00:07.3,0.002426147,0.001213074,0.002677917,0,
00:07.3,0.002437592,0.001218796,0.002672195,0,
00:07.3,0.002466202,0.001293182,0.002672195,0,
00:07.3,0.002443314,0.001276016,0.002677917,0,
00:07.3,0.002426147,0.001207352,0.002677917,0,
00:07.3,0.002454758,0.001310349,0.002672195,0,
00:07.3,0.002437592,0.00128746,0.002666473,0,
00:07.3,0.002380371,0.001132965,0.002695084,0,
00:07.3,0.00243187,0.00120163,0.002689362,0,
00:07.3,0.002437592,0.001235962,0.002672195,0,
00:07.3,0.002420425,0.001218796,0.002666473,0,
00:07.3,0.00243187,0.001276016,0.002672195,0,
00:07.3,0.00246048,0.001304626,0.002660751,0,
00:07.3,0.002454758,0.001276016,0.002672195,0,
00:07.3,0.002414703,0.001207352,0.002666473,0,
00:07.3,0.002426147,0.001224518,0.00268364,0,
00:07.3,0.002414703,0.001190186,0.00268364,0,
00:07.4,0.002408981,0.00120163,0.002677917,0,
00:07.4,0.002426147,0.001195908,0.002677917,0,
00:07.4,0.00243187,0.001270294,0.002660751,0,
00:07.4,0.00243187,0.001253128,0.002660751,0,
00:07.4,0.002443314,0.001247406,0.002666473,0,
00:07.4,0.002443314,0.001276016,0.002672195,0,
00:07.4,0.002437592,0.001253128,0.002666473,0,
00:07.4,0.00243187,0.001235962,0.002672195,0,
00:07.4,0.002443314,0.001253128,0.002672195,0,
00:07.4,0.002466202,0.001276016,0.002672195,0,
00:07.4,0.002414703,0.001235962,0.002660751,0,
00:07.4,0.002391815,0.001184464,0.002677917,0,
00:07.4,0.002408981,0.001190186,0.002677917,0,
00:07.4,0.002426147,0.001218796,0.002666473,0,
00:07.4,0.002466202,0.001270294,0.002672195,0,
00:07.4,0.002466202,0.001316071,0.002672195,0,
00:07.4,0.002397537,0.00125885,0.002660751,0,
00:07.4,0.002391815,0.001195908,0.002655029,0,
00:07.4,0.002408981,0.001184464,0.002666473,0,
00:07.4,0.002426147,0.001213074,0.002677917,0,
00:07.4,0.002420425,0.001241684,0.002660751,0,
00:07.4,0.002420425,0.001224518,0.002666473,0,
00:07.4,0.002414703,0.001235962,0.002666473,0,
00:07.4,0.002443314,0.001247406,0.002660751,0,
00:07.4,0.002437592,0.001264572,0.002655029,0,
00:07.5,0.002443314,0.001270294,0.002666473,0,
00:07.5,0.002466202,0.001310349,0.002672195,0,
00:07.5,0.002403259,0.001235962,0.002655029,0,
00:07.5,0.002397537,0.001161575,0.002677917,0,
00:07.5,0.002403259,0.001178741,0.002677917,0,
00:07.5,0.002426147,0.001207352,0.002672195,0,
00:07.5,0.002449036,0.001224518,0.002666473,0,
00:07.5,0.002471924,0.001316071,0.002655029,0,
00:07.5,0.002403259,0.001276016,0.002637863,0,
00:07.5,0.002403259,0.001247406,0.002672195,0,
00:07.5,0.002408981,0.001173019,0.002677917,0,
00:07.5,0.002397537,0.001190186,0.002672195,0,
00:07.5,0.002408981,0.001218796,0.002672195,0,
00:07.5,0.002426147,0.001218796,0.002666473,0,
00:07.5,0.002426147,0.00123024,0.002660751,0,
00:07.5,0.00246048,0.00128746,0.002666473,0,
00:07.5,0.002471924,0.001321793,0.002660751,0,
00:07.5,0.002391815,0.001178741,0.002649307,0,
00:07.5,0.002386093,0.001173019,0.002660751,0,
00:07.5,0.002408981,0.001207352,0.002655029,0,
00:07.5,0.002414703,0.001235962,0.002672195,0,
00:07.5,0.002420425,0.001218796,0.002672195,0,
00:07.5,0.002449036,0.001241684,0.002666473,0,
00:07.5,0.00246048,0.001253128,0.002643585,0,
00:07.5,0.002408981,0.001207352,0.002655029,0,
00:07.6,0.002403259,0.001218796,0.002672195,0,
00:07.6,0.002403259,0.00120163,0.002672195,0,
00:07.6,0.002408981,0.00123024,0.002666473,0,
00:07.6,0.002420425,0.001235962,0.002660751,0,
00:07.6,0.002454758,0.00128746,0.002666473,0,
00:07.6,0.00248909,0.001327515,0.002649307,0,
00:07.6,0.002386093,0.001195908,0.002637863,0,
00:07.6,0.002374649,0.001127243,0.002655029,0,
00:07.6,0.002403259,0.001167297,0.002649307,0,
00:07.6,0.00243187,0.001235962,0.002666473,0,
00:07.6,0.002426147,0.001264572,0.002655029,0,
00:07.6,0.002414703,0.001184464,0.002660751,0,
00:07.6,0.002420425,0.00123024,0.002643585,0,
00:07.6,0.002437592,0.001241684,0.002637863,0,
00:07.6,0.002426147,0.001224518,0.002677917,0,
00:07.6,0.00243187,0.001235962,0.002672195,0,
00:07.6,0.002466202,0.001276016,0.002660751,0,
00:07.6,0.002500534,0.001281738,0.002643585,0,
00:07.6,0.002357483,0.001173019,0.002643585,0,
00:07.6,0.002374649,0.001155853,0.002677917,0,
00:07.6,0.002408981,0.001218796,0.002672195,0,
00:07.6,0.002420425,0.001218796,0.002655029,0,
00:07.6,0.002426147,0.001207352,0.002649307,0,
00:07.6,0.002420425,0.001195908,0.002655029,0,
00:07.6,0.002408981,0.001213074,0.002655029,0,
00:07.7,0.002426147,0.001253128,0.002643585,0,
00:07.7,0.002437592,0.00125885,0.002655029,0,
00:07.7,0.002437592,0.001253128,0.002649307,0,
00:07.7,0.002443314,0.001253128,0.002660751,0,
00:07.7,0.00243187,0.001207352,0.002649307,0,
00:07.7,0.002386093,0.001144409,0.002660751,0,
00:07.7,0.002408981,0.001173019,0.002660751,0,
00:07.7,0.002414703,0.001184464,0.002649307,0,
00:07.7,0.002414703,0.001213074,0.002643585,0,
00:07.7,0.00243187,0.001247406,0.002655029,0,
00:07.7,0.00243187,0.00123024,0.002655029,0,
00:07.7,0.002437592,0.001218796,0.002649307,0,
00:07.7,0.002494812,0.001333237,0.002643585,0,
00:07.7,0.002471924,0.001327515,0.002614975,0,
00:07.7,0.002346039,0.001081467,0.002655029,0,
00:07.7,0.002363205,0.001110077,0.002672195,0,
00:07.7,0.002397537,0.001173019,0.002666473,0,
00:07.7,0.002408981,0.00120163,0.002660751,0,
00:07.7,0.002426147,0.001207352,0.002649307,0,
00:07.7,0.002420425,0.001190186,0.002637863,0,
00:07.7,0.002420425,0.001213074,0.002632141,0,
00:07.7,0.002420425,0.001213074,0.002643585,0,
00:07.7,0.00246048,0.001276016,0.002655029,0,
00:07.7,0.002529144,0.001413345,0.002643585,0,
00:07.7,0.002403259,0.001190186,0.002637863,0,
00:07.8,0.002346039,0.001092911,0.002666473,0,
00:07.8,0.002374649,0.001115799,0.002660751,0,
00:07.8,0.002403259,0.001178741,0.002643585,0,
00:07.8,0.002414703,0.001195908,0.002649307,0,
00:07.8,0.002420425,0.00120163,0.002655029,0,
00:07.8,0.002414703,0.001173019,0.002643585,0,
00:07.8,0.002408981,0.001127243,0.002643585,0,
00:07.8,0.002414703,0.001161575,0.002643585,0,
00:07.8,0.00243187,0.001247406,0.002643585,0,
00:07.8,0.002534866,0.0014534,0.002637863,0,
00:07.8,0.002414703,0.001247406,0.002614975,0,
00:07.8,0.002357483,0.001104355,0.002655029,0,
00:07.8,0.002391815,0.001161575,0.002666473,0,
00:07.8,0.002397537,0.001161575,0.002649307,0,
00:07.8,0.002403259,0.001167297,0.002649307,0,
00:07.8,0.002408981,0.001190186,0.002649307,0,
00:07.8,0.002420425,0.001173019,0.002643585,0,
00:07.8,0.002420425,0.001224518,0.002643585,0,
00:07.8,0.002454758,0.001310349,0.002637863,0,
00:07.8,0.002443314,0.001281738,0.002614975,0,
00:07.8,0.002368927,0.001104355,0.002643585,0,
00:07.8,0.002391815,0.001161575,0.002643585,0,
00:07.8,0.002414703,0.001207352,0.002626419,0,
00:07.8,0.002420425,0.001173019,0.002643585,0,
00:07.8,0.002414703,0.001184464,0.002649307,0,
00:07.9,0.002426147,0.00120163,0.002649307,0,
00:07.9,0.002420425,0.00120163,0.002632141,0,
00:07.9,0.002408981,0.001178741,0.002632141,0,
00:07.9,0.002408981,0.001195908,0.002637863,0,
00:07.9,0.00243187,0.001218796,0.002643585,0,
00:07.9,0.002408981,0.001161575,0.002637863,0,
00:07.9,0.002403259,0.001138687,0.002643585,0,
00:07.9,0.002420425,0.001195908,0.002626419,0,
00:07.9,0.002466202,0.001253128,0.002620697,0,
00:07.9,0.002437592,0.001298904,0.002632141,0,
00:07.9,0.002380371,0.001161575,0.002649307,0,
00:07.9,0.002386093,0.001161575,0.002649307,0,
00:07.9,0.002380371,0.001173019,0.002632141,0,
00:07.9,0.002414703,0.001207352,0.002626419,0,
00:07.9,0.002408981,0.001173019,0.002637863,0,
00:07.9,0.002414703,0.001167297,0.002649307,0,
00:07.9,0.00243187,0.001207352,0.002643585,0,
00:07.9,0.002414703,0.001190186,0.002626419,0,
00:07.9,0.002414703,0.001184464,0.002632141,0,
00:07.9,0.002414703,0.001195908,0.002637863,0,
00:07.9,0.002426147,0.001195908,0.002637863,0,
00:07.9,0.002437592,0.001224518,0.002626419,0,
00:07.9,0.002426147,0.00123024,0.002626419,0,
00:07.9,0.002397537,0.001144409,0.002649307,0,
00:07.9,0.002414703,0.001178741,0.002637863,0,
00:08.0,0.002449036,0.001235962,0.002632141,0,
00:08.0,0.002403259,0.001173019,0.002626419,0,
00:08.0,0.002386093,0.001138687,0.002643585,0,
00:08.0,0.002391815,0.001127243,0.002637863,0,
00:08.0,0.002437592,0.001127243,0.002626419,0,
00:08.0,0.002477646,0.001310349,0.002620697,0,
00:08.0,0.002386093,0.00120163,0.002614975,0,
00:08.0,0.002368927,0.001138687,0.002655029,0,
00:08.0,0.002408981,0.001184464,0.002637863,0,
00:08.0,0.002414703,0.001167297,0.002637863,0,
00:08.0,0.002426147,0.001195908,0.002643585,0,
00:08.0,0.00243187,0.001190186,0.002632141,0,
00:00:08,0.002420425,0.001190186,0.002620697,0,
00:08.0,0.002426147,0.001213074,0.002632141,0,
00:08.0,0.002426147,0.00120163,0.002637863,0,
00:08.0,0.002403259,0.001138687,0.002632141,0,
00:08.0,0.002397537,0.001161575,0.002632141,0,
00:08.0,0.002414703,0.001178741,0.002637863,0,
00:08.0,0.002414703,0.001150131,0.002626419,0,
00:08.0,0.002408981,0.001161575,0.002626419,0,
00:08.0,0.002414703,0.001195908,0.002626419,0,
00:08.0,0.002437592,0.001235962,0.002632141,0,
00:08.0,0.002420425,0.001167297,0.002620697,0,
00:08.0,0.002414703,0.001138687,0.002632141,0,
00:08.0,0.002443314,0.001195908,0.002637863,0,
00:08.1,0.002397537,0.001161575,0.002632141,0,
00:08.1,0.002386093,0.001138687,0.002637863,0,
00:08.1,0.002397537,0.001138687,0.002626419,0,
00:08.1,0.002420425,0.00120163,0.002632141,0,
00:08.1,0.002420425,0.001173019,0.002626419,0,
00:08.1,0.002426147,0.001155853,0.002632141,0,
00:08.1,0.002403259,0.001150131,0.002632141,0,
00:08.1,0.00246048,0.001224518,0.002637863,0,
00:08.1,0.002466202,0.001276016,0.002614975,0,
00:08.1,0.002374649,0.001092911,0.002643585,0,
00:08.1,0.002368927,0.001070023,0.002649307,0,
00:08.1,0.002391815,0.001127243,0.002637863,0,
00:08.1,0.002408981,0.001138687,0.002626419,0,
00:08.1,0.002420425,0.001144409,0.002632141,0,
00:08.1,0.002454758,0.001144409,0.002632141,0,
00:08.1,0.0025177,0.001361847,0.002609253,0,
00:08.1,0.002386093,0.00120163,0.002603531,0,
00:08.1,0.002334595,0.001024246,0.002643585,0,
00:08.1,0.002391815,0.001115799,0.002637863,0,
00:08.1,0.002403259,0.001138687,0.002637863,0,
00:08.1,0.002420425,0.001155853,0.002637863,0,
00:08.1,0.002414703,0.001144409,0.002626419,0,
00:08.1,0.002414703,0.001150131,0.002620697,0,
00:08.1,0.002420425,0.001161575,0.002620697,0,
00:08.1,0.002420425,0.001127243,0.002609253,0,
00:08.2,0.002443314,0.00120163,0.002609253,0,
00:08.2,0.002466202,0.00128746,0.002620697,0,
00:08.2,0.002408981,0.001173019,0.002620697,0,
00:08.2,0.002374649,0.00103569,0.002643585,0,
00:08.2,0.002386093,0.001104355,0.002626419,0,
00:08.2,0.002397537,0.001132965,0.002632141,0,
00:08.2,0.002403259,0.001150131,0.002620697,0,
00:08.2,0.002420425,0.001190186,0.002609253,0,
00:08.2,0.002414703,0.001075745,0.002626419,0,
00:08.2,0.002403259,0.001161575,0.002626419,0,
00:08.2,0.002403259,0.001150131,0.002614975,0,
00:08.2,0.002420425,0.001178741,0.002603531,0,
00:08.2,0.002449036,0.001235962,0.002614975,0,
00:08.2,0.002420425,0.001161575,0.002620697,0,
00:08.2,0.002397537,0.001098633,0.002626419,0,
00:08.2,0.002397537,0.001115799,0.002632141,0,
00:08.2,0.002408981,0.001150131,0.002626419,0,
00:08.2,0.002426147,0.001155853,0.002614975,0,
00:08.2,0.002420425,0.001173019,0.002603531,0,
00:08.2,0.002414703,0.001150131,0.002609253,0,
00:08.2,0.002408981,0.001127243,0.002626419,0,
00:08.2,0.002466202,0.001235962,0.002620697,0,
00:08.2,0.002386093,0.001127243,0.002614975,0,
00:08.2,0.002368927,0.001087189,0.002609253,0,
00:08.2,0.002403259,0.001127243,0.002620697,0,
00:08.3,0.002403259,0.001127243,0.002632141,0,
00:08.3,0.002403259,0.001115799,0.002609253,0,
00:08.3,0.002391815,0.001115799,0.002614975,0,
00:08.3,0.002403259,0.001144409,0.002626419,0,
00:08.3,0.002449036,0.001184464,0.002597809,0,
00:08.3,0.00243187,0.00120163,0.002592087,0,
00:08.3,0.002363205,0.001110077,0.002614975,0,
00:08.3,0.002397537,0.001144409,0.002626419,0,
00:08.3,0.002414703,0.001132965,0.002620697,0,
00:08.3,0.002403259,0.001104355,0.002614975,0,
00:08.3,0.002397537,0.001144409,0.002609253,0,
00:08.3,0.002397537,0.001132965,0.002603531,0,
00:08.3,0.002397537,0.001127243,0.002597809,0,
00:08.3,0.002391815,0.001127243,0.002603531,0,
00:08.3,0.002403259,0.001132965,0.002620697,0,
00:08.3,0.002414703,0.001150131,0.002609253,0,
00:08.3,0.002408981,0.001155853,0.002620697,0,
00:08.3,0.002403259,0.001127243,0.002614975,0,
00:08.3,0.002408981,0.001173019,0.002609253,0,
00:08.3,0.002426147,0.001167297,0.002603531,0,
00:08.3,0.002408981,0.001144409,0.002597809,0,
00:08.3,0.002403259,0.001132965,0.002620697,0,
00:08.3,0.002391815,0.001092911,0.002614975,0,
00:08.3,0.002363205,0.001047134,0.002597809,0,
00:08.3,0.002386093,0.001115799,0.002609253,0,
00:08.4,0.002414703,0.001161575,0.002609253,0,
00:08.4,0.002426147,0.001213074,0.002609253,0,
00:08.4,0.002403259,0.001138687,0.002614975,0,
00:08.4,0.002386093,0.001081467,0.002609253,0,
00:08.4,0.002386093,0.001098633,0.002614975,0,
00:08.4,0.002391815,0.001150131,0.002597809,0,
00:08.4,0.002426147,0.001167297,0.002609253,0,
00:08.4,0.002386093,0.001110077,0.002603531,0,
00:08.4,0.002363205,0.001092911,0.002597809,0,
00:08.4,0.002386093,0.001087189,0.002609253,0,
00:08.4,0.002391815,0.001110077,0.002603531,0,
00:08.4,0.002397537,0.001161575,0.002603531,0,
00:08.4,0.002397537,0.001144409,0.002603531,0,
00:08.4,0.002414703,0.001167297,0.002592087,0,
00:08.4,0.00243187,0.001207352,0.002597809,0,
00:08.4,0.002374649,0.001104355,0.002603531,0,
00:08.4,0.002380371,0.001098633,0.002597809,0,
00:08.4,0.002397537,0.001104355,0.002603531,0,
00:08.4,0.002391815,0.001127243,0.002609253,0,
00:08.4,0.002386093,0.001087189,0.002609253,0,
00:08.4,0.002403259,0.001127243,0.002603531,0,
00:08.4,0.002414703,0.001184464,0.002603531,0,
00:08.4,0.002391815,0.001132965,0.002580643,0,
00:08.4,0.002391815,0.001110077,0.002592087,0,
00:08.4,0.002368927,0.001052856,0.002620697,0,
00:08.5,0.002391815,0.001138687,0.002603531,0,
00:08.5,0.002403259,0.001144409,0.002592087,0,
00:08.5,0.002397537,0.001098633,0.002597809,0,
00:08.5,0.002397537,0.001132965,0.002597809,0,
00:08.5,0.002368927,0.001047134,0.002592087,0,
00:08.5,0.002374649,0.001110077,0.002597809,0,
00:08.5,0.002408981,0.001161575,0.002592087,0,
00:08.5,0.002414703,0.001155853,0.002586365,0,
00:08.5,0.002391815,0.001092911,0.002586365,0,
00:08.5,0.002391815,0.001115799,0.002592087,0,
00:08.5,0.002397537,0.001110077,0.002592087,0,
00:08.5,0.002408981,0.001132965,0.002586365,0,
00:08.5,0.002420425,0.001161575,0.002580643,0,
00:08.5,0.002403259,0.001150131,0.002569199,0,
00:08.5,0.002380371,0.001098633,0.002603531,0,
00:08.5,0.002380371,0.001092911,0.002609253,0,
00:08.5,0.002397537,0.001144409,0.002597809,0,
00:08.5,0.002380371,0.001075745,0.002586365,0,
00:08.5,0.002380371,0.001070023,0.002603531,0,
00:08.5,0.002397537,0.001127243,0.002597809,0,
00:08.5,0.002420425,0.001178741,0.002580643,0,
00:08.5,0.002386093,0.001104355,0.002586365,0,
00:08.5,0.002374649,0.001064301,0.002592087,0,
00:08.5,0.002386093,0.001104355,0.002580643,0,
00:08.5,0.002397537,0.001121521,0.002580643,0,
00:08.6,0.002414703,0.001127243,0.002592087,0,
00:08.6,0.002386093,0.001110077,0.002580643,0,
00:08.6,0.002391815,0.001092911,0.002586365,0,
00:08.6,0.002414703,0.001127243,0.002580643,0,
00:08.6,0.002408981,0.001161575,0.002580643,0,
00:08.6,0.002391815,0.001115799,0.002597809,0,
00:08.6,0.002403259,0.001144409,0.002574921,0,
00:08.6,0.002386093,0.001018524,0.002574921,0,
00:08.6,0.002351761,0.001047134,0.002592087,0,
00:08.6,0.002380371,0.001092911,0.002592087,0,
00:08.6,0.002414703,0.001155853,0.002586365,0,
00:08.6,0.002420425,0.001173019,0.002557755,0,
00:08.6,0.002391815,0.001098633,0.002569199,0,
00:08.6,0.002374649,0.001058578,0.002586365,0,
00:08.6,0.002391815,0.001121521,0.002597809,0,
00:08.6,0.002414703,0.001155853,0.002592087,0,
00:08.6,0.002397537,0.001110077,0.002574921,0,
00:08.6,0.002397537,0.001121521,0.002569199,0,
00:08.6,0.002386093,0.001064301,0.002574921,0,
00:08.6,0.002403259,0.001127243,0.002574921,0,
00:08.6,0.002386093,0.001115799,0.002563477,0,
00:08.6,0.002391815,0.001121521,0.002574921,0,
00:08.6,0.002391815,0.001087189,0.002574921,0,
00:08.6,0.002380371,0.001052856,0.002574921,0,
00:08.6,0.002403259,0.001121521,0.002580643,0,
00:08.7,0.002408981,0.001098633,0.002563477,0,
00:08.7,0.002426147,0.001104355,0.002569199,0,
00:08.7,0.00243187,0.001224518,0.002563477,0,
00:08.7,0.002363205,0.001081467,0.002563477,0,
00:08.7,0.002386093,0.001087189,0.002592087,0,
00:08.7,0.002397537,0.001104355,0.002586365,0,
00:08.7,0.002386093,0.001070023,0.002563477,0,
00:08.7,0.002363205,0.001041412,0.002563477,0,
00:08.7,0.002386093,0.001110077,0.002586365,0,
00:08.7,0.002386093,0.001058578,0.002569199,0,
00:08.7,0.002403259,0.001098633,0.002569199,0,
00:08.7,0.002420425,0.001127243,0.002540588,0,
00:08.7,0.002414703,0.001161575,0.002569199,0,
00:08.7,0.002391815,0.001121521,0.002580643,0,
00:08.7,0.002368927,0.001070023,0.002563477,0,
00:08.7,0.002368927,0.001070023,0.002569199,0,
00:08.7,0.002397537,0.001098633,0.002563477,0,
00:08.7,0.002397537,0.001081467,0.002569199,0,
00:08.7,0.002380371,0.001064301,0.002569199,0,
00:08.7,0.002391815,0.001064301,0.002563477,0,
00:08.7,0.00243187,0.001155853,0.002557755,0,
00:08.7,0.002443314,0.001253128,0.002557755,0,
00:08.7,0.002391815,0.001115799,0.002563477,0,
00:08.7,0.002380371,0.001075745,0.002563477,0,
00:08.7,0.002351761,0.001029968,0.002580643,0,
00:08.8,0.002368927,0.001047134,0.002569199,0,
00:08.8,0.002386093,0.001087189,0.002552032,0,
00:08.8,0.002391815,0.00103569,0.002569199,0,
00:08.8,0.002391815,0.001081467,0.002563477,0,
00:08.8,0.002414703,0.001178741,0.002557755,0,
00:08.8,0.002420425,0.001178741,0.002552032,0,
00:08.8,0.002386093,0.001087189,0.002569199,0,
00:08.8,0.002351761,0.001018524,0.002569199,0,
00:08.8,0.002368927,0.001064301,0.002563477,0,
00:08.8,0.002380371,0.001081467,0.002557755,0,
00:08.8,0.002397537,0.001098633,0.002563477,0,
00:08.8,0.002403259,0.001104355,0.002563477,0,
00:08.8,0.002386093,0.001092911,0.00254631,0,
00:08.8,0.002386093,0.001087189,0.002552032,0,
00:08.8,0.002391815,0.001001358,0.002557755,0,
00:08.8,0.002471924,0.001276016,0.002557755,0,
00:08.8,0.002454758,0.001270294,0.002534866,0,
00:08.8,0.002328873,0.000989914,0.002552032,0,
00:08.8,0.002340317,0.000989914,0.002586365,0,
00:08.8,0.002368927,0.001064301,0.002563477,0,
00:08.8,0.002386093,0.001087189,0.002557755,0,
00:08.8,0.002397537,0.001092911,0.002557755,0,
00:08.8,0.002391815,0.001087189,0.002552032,0,
00:08.8,0.002397537,0.001081467,0.002540588,0,
00:08.8,0.002426147,0.001167297,0.00254631,0,
00:08.9,0.002420425,0.001207352,0.002552032,0,
00:08.9,0.002351761,0.00103569,0.002552032,0,
00:08.9,0.002351761,0.001001358,0.002563477,0,
00:08.9,0.002380371,0.001064301,0.002552032,0,
00:08.9,0.002386093,0.001092911,0.00254631,0,
00:08.9,0.002391815,0.001092911,0.00254631,0,
00:08.9,0.002386093,0.001052856,0.00254631,0,
00:08.9,0.002408981,0.001092911,0.00254631,0,
00:08.9,0.002403259,0.001098633,0.002557755,0,
00:08.9,0.002403259,0.001150131,0.002552032,0,
00:08.9,0.002391815,0.001115799,0.002540588,0,
00:08.9,0.002363205,0.001018524,0.00254631,0,
00:08.9,0.002397537,0.001132965,0.002534866,0,
00:08.9,0.002397537,0.001098633,0.00254631,0,
00:08.9,0.002368927,0.001041412,0.002529144,0,
00:08.9,0.002397537,0.001081467,0.002563477,0,
00:08.9,0.002403259,0.001098633,0.002563477,0,
00:08.9,0.002408981,0.001092911,0.002540588,0,
00:08.9,0.002408981,0.001150131,0.00254631,0,
00:08.9,0.002374649,0.001064301,0.00254631,0,
00:08.9,0.002363205,0.001018524,0.002540588,0,
00:08.9,0.002380371,0.001024246,0.00254631,0,
00:08.9,0.002386093,0.001081467,0.002557755,0,
00:08.9,0.002374649,0.001092911,0.00254631,0,
00:08.9,0.002403259,0.001098633,0.002540588,0,
00:09.0,0.002403259,0.001087189,0.002540588,0,
00:09.0,0.002386093,0.001092911,0.00254631,0,
00:09.0,0.002386093,0.001092911,0.002540588,0,
00:09.0,0.002397537,0.001098633,0.002540588,0,
00:09.0,0.002426147,0.001138687,0.002534866,0,
00:09.0,0.002420425,0.001127243,0.002529144,0,
00:09.0,0.002351761,0.001029968,0.00254631,0,
00:09.0,0.002368927,0.001041412,0.00254631,0,
00:09.0,0.002391815,0.001075745,0.002534866,0,
00:09.0,0.002391815,0.001070023,0.002540588,0,
00:09.0,0.002368927,0.00100708,0.00254631,0,
00:09.0,0.002403259,0.001132965,0.002540588,0,
00:00:09,0.002397537,0.001115799,0.002540588,0,
00:09.0,0.002386093,0.001087189,0.002529144,0,
00:09.0,0.002397537,0.001081467,0.00254631,0,
00:09.0,0.002380371,0.001058578,0.002540588,0,
00:09.0,0.002374649,0.00103569,0.002534866,0,
00:09.0,0.002386093,0.001052856,0.002529144,0,
00:09.0,0.002386093,0.001087189,0.002529144,0,
00:09.0,0.002397537,0.001110077,0.002529144,0,
00:09.0,0.002391815,0.001121521,0.002529144,0,
00:09.0,0.002391815,0.001087189,0.002523422,0,
00:09.0,0.002386093,0.001047134,0.002529144,0,
00:09.0,0.002357483,0.001018524,0.002540588,0,
00:09.0,0.002380371,0.001070023,0.002534866,0,
00:09.1,0.002397537,0.001115799,0.002523422,0,
00:09.1,0.002391815,0.001087189,0.002523422,0,
00:09.1,0.002380371,0.001041412,0.002534866,0,
00:09.1,0.002391815,0.001075745,0.002523422,0,
00:09.1,0.002403259,0.001087189,0.002523422,0,
00:09.1,0.002374649,0.001058578,0.002523422,0,
00:09.1,0.002380371,0.001052856,0.002534866,0,
00:09.1,0.002414703,0.001098633,0.0025177,0,
00:09.1,0.002414703,0.001115799,0.0025177,0,
00:09.1,0.002374649,0.001081467,0.002534866,0,
00:09.1,0.002346039,0.000972748,0.002534866,0,
00:09.1,0.002374649,0.001070023,0.002534866,0,
00:09.1,0.002368927,0.001052856,0.002523422,0,
00:09.1,0.002403259,0.001127243,0.002523422,0,
00:09.1,0.002437592,0.001144409,0.0025177,0,
00:09.1,0.002368927,0.00103569,0.002506256,0,
00:09.1,0.002363205,0.001052856,0.002534866,0,
00:09.1,0.002363205,0.001001358,0.002534866,0,
00:09.1,0.002397537,0.001081467,0.002523422,0,
00:09.1,0.002391815,0.001075745,0.002523422,0,
00:09.1,0.002368927,0.001058578,0.002529144,0,
00:09.1,0.002380371,0.001052856,0.002529144,0,
00:09.1,0.002403259,0.001092911,0.002511978,0,
00:09.1,0.002380371,0.001052856,0.002506256,0,
00:09.1,0.002386093,0.001070023,0.002529144,0,
00:09.2,0.002386093,0.001098633,0.002529144,0,
00:09.2,0.002397537,0.001098633,0.002523422,0,
00:09.2,0.002391815,0.00103569,0.002523422,0,
00:09.2,0.002380371,0.001047134,0.0025177,0,
00:09.2,0.002403259,0.001138687,0.002523422,0,
00:09.2,0.002363205,0.00103569,0.002511978,0,
00:09.2,0.002357483,0.00100708,0.002529144,0,
00:09.2,0.002414703,0.001150131,0.002511978,0,
00:09.2,0.002397537,0.001127243,0.002500534,0,
00:09.2,0.002357483,0.001041412,0.0025177,0,
00:09.2,0.002351761,0.001001358,0.002540588,0,
00:09.2,0.002374649,0.00103569,0.002523422,0,
00:09.2,0.002374649,0.001024246,0.0025177,0,
00:09.2,0.002374649,0.000984192,0.0025177,0,
00:09.2,0.002386093,0.001081467,0.0025177,0,
00:09.2,0.002391815,0.001121521,0.002511978,0,
00:09.2,0.002426147,0.001121521,0.002523422,0,
00:09.2,0.002408981,0.001138687,0.002506256,0,
00:09.2,0.002363205,0.001058578,0.002500534,0,
00:09.2,0.002380371,0.001087189,0.002494812,0,
00:09.2,0.002357483,0.001024246,0.002523422,0,
00:09.2,0.002357483,0.001012802,0.0025177,0,
00:09.2,0.002374649,0.00103569,0.0025177,0,
00:09.2,0.002380371,0.001052856,0.002511978,0,
00:09.2,0.002391815,0.001070023,0.002500534,0,
00:09.3,0.002408981,0.001087189,0.002511978,0,
00:09.3,0.00246048,0.001207352,0.002511978,0,
00:09.3,0.002397537,0.001127243,0.00248909,0,
00:09.3,0.002323151,0.00094986,0.002511978,0,
00:09.3,0.002351761,0.001024246,0.0025177,0,
00:09.3,0.002374649,0.001064301,0.002506256,0,
00:09.3,0.002386093,0.001075745,0.002511978,0,
00:09.3,0.002363205,0.000995636,0.002506256,0,
00:09.3,0.002374649,0.001001358,0.002511978,0,
00:09.3,0.002380371,0.001098633,0.002483368,0,
00:09.3,0.002391815,0.001070023,0.002494812,0,
00:09.3,0.002414703,0.001121521,0.0025177,0,
00:09.3,0.002380371,0.001104355,0.002500534,0,
00:09.3,0.002363205,0.001029968,0.00248909,0,
00:09.3,0.002386093,0.001064301,0.002494812,0,
00:09.3,0.002374649,0.001052856,0.002500534,0,
00:09.3,0.002386093,0.001064301,0.002500534,0,
00:09.3,0.002420425,0.001104355,0.002494812,0,
00:09.3,0.002414703,0.001098633,0.002500534,0,
00:09.3,0.002357483,0.001052856,0.00248909,0,
00:09.3,0.002340317,0.000972748,0.002494812,0,
00:09.3,0.002386093,0.001058578,0.002494812,0,
00:09.3,0.002380371,0.001041412,0.002500534,0,
00:09.3,0.002386093,0.001052856,0.002506256,0,
00:09.3,0.002380371,0.001041412,0.002500534,0,
00:09.4,0.002357483,0.001001358,0.002483368,0,
00:09.4,0.002380371,0.001081467,0.002494812,0,
00:09.4,0.002386093,0.001064301,0.002500534,0,
00:09.4,0.002386093,0.001081467,0.002477646,0,
00:09.4,0.002397537,0.001115799,0.00248909,0,
00:09.4,0.002403259,0.001104355,0.002477646,0,
00:09.4,0.002403259,0.001110077,0.002483368,0,
00:09.4,0.002380371,0.001064301,0.002506256,0,
00:09.4,0.002328873,0.000955582,0.00248909,0,
00:09.4,0.002357483,0.001018524,0.00248909,0,
00:09.4,0.002368927,0.001052856,0.00248909,0,
00:09.4,0.002386093,0.001075745,0.002483368,0,
00:09.4,0.002397537,0.001110077,0.002471924,0,
00:09.4,0.002403259,0.001081467,0.002483368,0,
00:09.4,0.002346039,0.000995636,0.002506256,0,
00:09.4,0.002357483,0.001001358,0.00248909,0,
00:09.4,0.002386093,0.001064301,0.002494812,0,
00:09.4,0.002380371,0.001058578,0.002483368,0,
00:09.4,0.002408981,0.001104355,0.002483368,0,
00:09.4,0.002386093,0.001047134,0.002471924,0,
00:09.4,0.002363205,0.00103569,0.00248909,0,
00:09.4,0.002357483,0.001052856,0.002500534,0,
00:09.4,0.002368927,0.001029968,0.00248909,0,
00:09.4,0.002374649,0.000989914,0.00248909,0,
00:09.4,0.002380371,0.001070023,0.002494812,0,
00:09.5,0.002380371,0.001092911,0.00248909,0,
00:09.5,0.002380371,0.001058578,0.002483368,0,
00:09.5,0.002380371,0.001058578,0.002483368,0,
00:09.5,0.002374649,0.001081467,0.002483368,0,
00:09.5,0.002374649,0.001064301,0.002477646,0,
00:09.5,0.002380371,0.001075745,0.002471924,0,
00:09.5,0.002403259,0.001110077,0.002477646,0,
00:09.5,0.002340317,0.000984192,0.002506256,0,
00:09.5,0.002346039,0.000984192,0.002494812,0,
00:09.5,0.002363205,0.001024246,0.00248909,0,
00:09.5,0.002374649,0.001052856,0.002477646,0,
00:09.5,0.002368927,0.001047134,0.002471924,0,
00:09.5,0.002368927,0.001029968,0.002471924,0,
00:09.5,0.002403259,0.001041412,0.00248909,0,
00:09.5,0.002511978,0.001167297,0.002477646,0,
00:09.5,0.002351761,0.001115799,0.002449036,0,
00:09.5,0.002283096,0.000944138,0.002500534,0,
00:09.5,0.002334595,0.00100708,0.002494812,0,
00:09.5,0.002368927,0.00103569,0.002483368,0,
00:09.5,0.002368927,0.001047134,0.002483368,0,
00:09.5,0.002368927,0.001047134,0.002483368,0,
00:09.5,0.002368927,0.00103569,0.002477646,0,
00:09.5,0.002380371,0.001012802,0.002466202,0,
00:09.5,0.002403259,0.001058578,0.00246048,0,
00:09.5,0.002443314,0.001195908,0.002449036,0,
00:09.6,0.002408981,0.001178741,0.00246048,0,
00:09.6,0.002323151,0.000932693,0.002511978,0,
00:09.6,0.002317429,0.000961304,0.00248909,0,
00:09.6,0.002346039,0.001012802,0.002477646,0,
00:09.6,0.002363205,0.001041412,0.002477646,0,
00:09.6,0.002368927,0.001029968,0.002471924,0,
00:09.6,0.002363205,0.001041412,0.002471924,0,
00:09.6,0.002363205,0.001024246,0.002471924,0,
00:09.6,0.002374649,0.001041412,0.002471924,0,
00:09.6,0.002363205,0.001018524,0.002466202,0,
00:09.6,0.002368927,0.001018524,0.002466202,0,
00:09.6,0.002391815,0.001098633,0.002466202,0,
00:09.6,0.002443314,0.001218796,0.002477646,0,
00:09.6,0.002408981,0.001115799,0.002437592,0,
00:09.6,0.002311707,0.000932693,0.002494812,0,
00:09.6,0.002323151,0.00097847,0.00248909,0,
00:09.6,0.002340317,0.00100708,0.002477646,0,
00:09.6,0.002368927,0.001029968,0.002471924,0,
00:09.6,0.002374649,0.001029968,0.002471924,0,
00:09.6,0.002374649,0.00103569,0.002471924,0,
00:09.6,0.002374649,0.001081467,0.002466202,0,
00:09.6,0.002363205,0.00103569,0.002454758,0,
00:09.6,0.002368927,0.001064301,0.002466202,0,
00:09.6,0.002414703,0.001155853,0.002466202,0,
00:09.6,0.002386093,0.001081467,0.002449036,0,
00:09.7,0.002334595,0.000967026,0.00246048,0,
00:09.7,0.002357483,0.001001358,0.002494812,0,
00:09.7,0.002351761,0.000989914,0.00248909,0,
00:09.7,0.002363205,0.000967026,0.002471924,0,
00:09.7,0.002368927,0.00103569,0.002471924,0,
00:09.7,0.002374649,0.001132965,0.002471924,0,
00:09.7,0.002357483,0.001052856,0.002466202,0,
00:09.7,0.002363205,0.001052856,0.00246048,0,
00:09.7,0.002368927,0.001041412,0.002454758,0,
00:09.7,0.002374649,0.001052856,0.002477646,0,
00:09.7,0.002380371,0.001070023,0.002483368,0,
00:09.7,0.002391815,0.001081467,0.002466202,0,
00:09.7,0.002380371,0.001001358,0.00246048,0,
00:09.7,0.002357483,0.001041412,0.00246048,0,
00:09.7,0.002357483,0.00103569,0.002483368,0,
00:09.7,0.002340317,0.001024246,0.002483368,0,
00:09.7,0.002346039,0.00103569,0.002477646,0,
00:09.7,0.002368927,0.001070023,0.002471924,0,
00:09.7,0.002397537,0.001075745,0.002471924,0,
00:09.7,0.002357483,0.00103569,0.002471924,0,
00:09.7,0.002351761,0.00100708,0.002483368,0,
00:09.7,0.002346039,0.001012802,0.002466202,0,
00:09.7,0.002351761,0.00103569,0.00246048,0,
00:09.7,0.002374649,0.001075745,0.002466202,0,
00:09.7,0.002374649,0.001047134,0.002471924,0,
00:09.8,0.002374649,0.001029968,0.002471924,0,
00:09.8,0.002363205,0.001058578,0.002471924,0,
00:09.8,0.002357483,0.001029968,0.002466202,0,
00:09.8,0.002340317,0.000909805,0.002466202,0,
00:09.8,0.002368927,0.001047134,0.002471924,0,
00:09.8,0.002374649,0.001144409,0.002471924,0,
00:09.8,0.002334595,0.001024246,0.002471924,0,
00:09.8,0.002340317,0.001058578,0.002466202,0,
00:09.8,0.002351761,0.001024246,0.002454758,0,
00:09.8,0.002368927,0.001058578,0.002471924,0,
00:09.8,0.002380371,0.001110077,0.002466202,0,
00:09.8,0.002323151,0.000984192,0.002466202,0,
00:09.8,0.002334595,0.00100708,0.002471924,0,
00:09.8,0.002363205,0.001064301,0.002449036,0,
00:09.8,0.002368927,0.001058578,0.00246048,0,
00:09.8,0.002357483,0.001047134,0.00246048,0,
00:09.8,0.002334595,0.001012802,0.002466202,0,
00:09.8,0.002351761,0.001041412,0.00246048,0,
00:09.8,0.002351761,0.001029968,0.002454758,0,
00:09.8,0.002351761,0.00100708,0.00246048,0,
00:09.8,0.002368927,0.001070023,0.002471924,0,
00:09.8,0.002351761,0.001047134,0.002454758,0,
00:09.8,0.002346039,0.00103569,0.002466202,0,
00:09.8,0.002340317,0.001018524,0.002454758,0,
00:09.8,0.002340317,0.001018524,0.002466202,0,
00:09.9,0.002368927,0.001064301,0.002471924,0,
00:09.9,0.002386093,0.001115799,0.002449036,0,
00:09.9,0.002323151,0.000995636,0.002443314,0,
00:09.9,0.002328873,0.000989914,0.002471924,0,
00:09.9,0.002323151,0.00097847,0.00246048,0,
00:09.9,0.002328873,0.001018524,0.002454758,0,
00:09.9,0.002340317,0.001029968,0.002466202,0,
00:09.9,0.002346039,0.001052856,0.002449036,0,
00:09.9,0.002346039,0.001029968,0.00246048,0,
00:09.9,0.002346039,0.001052856,0.00246048,0,
00:09.9,0.002346039,0.001041412,0.002449036,0,
00:09.9,0.002328873,0.000972748,0.002449036,0,
00:09.9,0.002363205,0.001092911,0.002454758,0,
00:09.9,0.002386093,0.001115799,0.00246048,0,
00:09.9,0.002323151,0.000989914,0.002449036,0,
00:09.9,0.002323151,0.00097847,0.00246048,0,
00:09.9,0.002328873,0.001001358,0.002449036,0,
00:09.9,0.002351761,0.001029968,0.00246048,0,
00:09.9,0.002351761,0.001064301,0.00246048,0,
00:09.9,0.002334595,0.001018524,0.002449036,0,
00:09.9,0.002368927,0.001064301,0.002454758,0,
00:09.9,0.002368927,0.001064301,0.002449036,0,
00:09.9,0.002317429,0.000989914,0.002443314,0,
00:09.9,0.002300262,0.001001358,0.002443314,0,
00:09.9,0.002323151,0.001029968,0.00246048,0,
00:10.0,0.002334595,0.001029968,0.002466202,0,
00:10.0,0.002346039,0.001024246,0.002454758,0,
00:10.0,0.002334595,0.001018524,0.002443314,0,
00:10.0,0.002340317,0.001047134,0.002437592,0,
00:10.0,0.002334595,0.001024246,0.002437592,0,
00:10.0,0.002334595,0.00094986,0.002449036,0,
00:10.0,0.002351761,0.001098633,0.002449036,0,
00:10.0,0.002346039,0.001092911,0.002449036,0,
00:10.0,0.002340317,0.001047134,0.002454758,0,
00:10.0,0.002334595,0.001029968,0.002449036,0,
00:10.0,0.002328873,0.001018524,0.002454758,0,
00:10.0,0.002334595,0.00103569,0.002443314,0,
00:00:10,0.002334595,0.001018524,0.002443314,0,
00:10.0,0.002346039,0.001058578,0.002437592,0,
00:10.0,0.002323151,0.001012802,0.002449036,0,
00:10.0,0.002334595,0.001018524,0.002466202,0,
00:10.0,0.002363205,0.001081467,0.002443314,0,
00:10.0,0.002300262,0.001001358,0.00243187,0,
00:10.0,0.00229454,0.00100708,0.002471924,0,
00:10.0,0.002328873,0.001018524,0.00246048,0,
00:10.0,0.002334595,0.000995636,0.002466202,0,
00:10.0,0.002323151,0.001064301,0.002454758,0,
00:10.0,0.002328873,0.001070023,0.002449036,0,
00:10.0,0.002311707,0.00100708,0.002449036,0,
00:10.0,0.002334595,0.001024246,0.00246048,0,
00:10.1,0.002351761,0.001029968,0.002454758,0,
00:10.1,0.002368927,0.001121521,0.002454758,0,
00:10.1,0.002317429,0.00103569,0.002443314,0,
00:10.1,0.002305984,0.000989914,0.00246048,0,
00:10.1,0.002328873,0.001047134,0.002449036,0,
00:10.1,0.002317429,0.001047134,0.002437592,0,
00:10.1,0.002317429,0.00100708,0.00246048,0,
00:10.1,0.002328873,0.001024246,0.002454758,0,
00:10.1,0.002340317,0.00103569,0.002466202,0,
00:10.1,0.002340317,0.001041412,0.002466202,0,
00:10.1,0.002334595,0.001087189,0.002454758,0,
00:10.1,0.002351761,0.001075745,0.002466202,0,
00:10.1,0.002323151,0.00100708,0.002471924,0,
00:10.1,0.002300262,0.00097847,0.002471924,0,
00:10.1,0.002300262,0.000944138,0.002466202,0,
00:10.1,0.002328873,0.00103569,0.002466202,0,
00:10.1,0.002351761,0.001115799,0.002477646,0,
00:10.1,0.002334595,0.001052856,0.00246048,0,
00:10.1,0.002288818,0.00097847,0.002471924,0,
00:10.1,0.002305984,0.001024246,0.00248909,0,
00:10.1,0.002346039,0.001075745,0.002477646,0,
00:10.1,0.002386093,0.001121521,0.00246048,0,
00:10.1,0.002328873,0.001052856,0.002466202,0,
00:10.1,0.002283096,0.000984192,0.002483368,0,
00:10.1,0.002283096,0.000944138,0.002483368,0,
00:10.2,0.002300262,0.001012802,0.002483368,0,
00:10.2,0.002351761,0.001098633,0.002477646,0,
00:10.2,0.002328873,0.001024246,0.002466202,0,
00:10.2,0.002305984,0.00100708,0.002494812,0,
00:10.2,0.002346039,0.001098633,0.002483368,0,
00:10.2,0.002340317,0.001087189,0.002471924,0,
00:10.2,0.002305984,0.001001358,0.002483368,0,
00:10.2,0.002328873,0.001041412,0.00248909,0,
00:10.2,0.002340317,0.001041412,0.002483368,0,
00:10.2,0.002300262,0.001029968,0.002471924,0,
00:10.2,0.002305984,0.000967026,0.002483368,0,
00:10.2,0.002305984,0.000989914,0.002494812,0,
00:10.2,0.002300262,0.001047134,0.002500534,0,
00:10.2,0.002305984,0.00103569,0.00248909,0,
00:10.2,0.002311707,0.001087189,0.002477646,0,
00:10.2,0.002334595,0.001087189,0.00248909,0,
00:10.2,0.002334595,0.001047134,0.002500534,0,
00:10.2,0.002300262,0.000955582,0.002483368,0,
00:10.2,0.002305984,0.000995636,0.00248909,0,
00:10.2,0.002305984,0.001064301,0.00248909,0,
00:10.2,0.002328873,0.001098633,0.002506256,0,
00:10.2,0.002323151,0.001081467,0.002494812,0,
00:10.2,0.00229454,0.001001358,0.002500534,0,
00:10.2,0.002317429,0.00103569,0.002483368,0,
00:10.2,0.002288818,0.000989914,0.002494812,0,
00:10.3,0.002311707,0.001024246,0.002506256,0,
00:10.3,0.002323151,0.001047134,0.002506256,0,
00:10.3,0.002346039,0.001144409,0.002477646,0,
00:10.3,0.002317429,0.001041412,0.002500534,0,
00:10.3,0.002300262,0.000995636,0.002511978,0,
00:10.3,0.00229454,0.001012802,0.00248909,0,
00:10.3,0.002288818,0.00097847,0.002506256,0,
00:10.3,0.002300262,0.001012802,0.002494812,0,
00:10.3,0.002300262,0.001047134,0.002494812,0,
