Elapsed_Time,EMG1,EMG2,EMG3,BioRadio Event,Unnamed: 5
00:00:00,0.001573563,0.000566483,0.001602173,0,
00:00.0,0.001579285,0.000577927,0.001613617,0,
00:00.0,0.001567841,0.000577927,0.001602173,0,
00:00.0,0.001596451,0.000589371,0.001590729,0,
00:00.0,0.001602173,0.000566483,0.001607895,0,
00:00.0,0.001590729,0.000566483,0.001665115,0,
00:00.0,0.001567841,0.000572205,0.001607895,0,
00:00.0,0.001625061,0.000572205,0.001602173,0,
00:00.0,0.001607895,0.00056076,0.001630783,0,
00:00.0,0.001602173,0.000572205,0.001636505,0,
00:00.0,0.001590729,0.000572205,0.001625061,0,
00:00.0,0.001556396,0.000572205,0.001619339,0,
00:00.0,0.001544952,0.000572205,0.001607895,0,
00:00.1,0.001607895,0.000572205,0.001619339,0,
00:00.1,0.001630783,0.000577927,0.001630783,0,
00:00.1,0.001613617,0.000572205,0.001607895,0,
00:00.1,0.001602173,0.000577927,0.001590729,0,
00:00.1,0.001596451,0.000583649,0.001607895,0,
00:00.1,0.001579285,0.000572205,0.001625061,0,
00:00.1,0.001567841,0.000566483,0.001653671,0,
00:00.1,0.001556396,0.000566483,0.001636505,0,
00:00.1,0.001596451,0.000577927,0.001619339,0,
00:00.1,0.001596451,0.000572205,0.001630783,0,
00:00.1,0.001596451,0.000572205,0.001619339,0,
00:00.1,0.001585007,0.000572205,0.001625061,0,
00:00.1,0.001550674,0.000572205,0.001619339,0,
00:00.1,0.001573563,0.000566483,0.001630783,0,
00:00.1,0.001596451,0.000572205,0.001590729,0,
00:00.1,0.001607895,0.000583649,0.001613617,0,
00:00.1,0.001602173,0.000566483,0.001636505,0,
00:00.1,0.001544952,0.000566483,0.001625061,0,
00:00.1,0.001607895,0.000572205,0.001636505,0,
00:00.1,0.001630783,0.000572205,0.001636505,0,
00:00.1,0.001596451,0.000572205,0.001636505,0,
00:00.1,0.001596451,0.000577927,0.001625061,0,
00:00.1,0.001567841,0.000572205,0.001625061,0,
00:00.1,0.001573563,0.000577927,0.001625061,0,
00:00.1,0.001602173,0.000566483,0.001619339,0,
00:00.2,0.001625061,0.000572205,0.001613617,0,
00:00.2,0.001590729,0.000577927,0.001630783,0,
00:00.2,0.001596451,0.000566483,0.001613617,0,
00:00.2,0.001607895,0.000572205,0.001619339,0,
00:00.2,0.001579285,0.000572205,0.001630783,0,
00:00.2,0.001596451,0.000577927,0.001625061,0,
00:00.2,0.001590729,0.000577927,0.001619339,0,
00:00.2,0.001602173,0.000572205,0.001613617,0,
00:00.2,0.001596451,0.000577927,0.001625061,0,
00:00.2,0.00151062,0.000572205,0.001625061,0,
00:00.2,0.00153923,0.000572205,0.001636505,0,
00:00.2,0.001682281,0.000583649,0.001602173,0,
00:00.2,0.001636505,0.000583649,0.001636505,0,
00:00.2,0.001562119,0.000577927,0.001653671,0,
00:00.2,0.001590729,0.000583649,0.001653671,0,
00:00.2,0.001625061,0.000577927,0.001607895,0,
00:00.2,0.001613617,0.000577927,0.001625061,0,
00:00.2,0.001602173,0.000577927,0.001619339,0,
00:00.2,0.001602173,0.000583649,0.001630783,0,
00:00.2,0.001596451,0.000589371,0.001625061,0,
00:00.2,0.001533508,0.000600815,0.001613617,0,
00:00.2,0.001522064,0.000600815,0.001625061,0,
00:00.2,0.001642227,0.000589371,0.001636505,0,
00:00.2,0.001653671,0.000583649,0.001630783,0,
00:00.2,0.001607895,0.000583649,0.001653671,0,
00:00.3,0.001613617,0.000589371,0.001653671,0,
00:00.3,0.001602173,0.000595093,0.001630783,0,
00:00.3,0.001602173,0.000595093,0.001630783,0,
00:00.3,0.001590729,0.000589371,0.001625061,0,
00:00.3,0.001579285,0.000595093,0.001625061,0,
00:00.3,0.001550674,0.000600815,0.001625061,0,
00:00.3,0.001533508,0.000612259,0.001630783,0,
00:00.3,0.001636505,0.000600815,0.001613617,0,
00:00.3,0.001642227,0.000589371,0.001619339,0,
00:00.3,0.001607895,0.000595093,0.001653671,0,
00:00.3,0.001630783,0.000600815,0.001636505,0,
00:00.3,0.001607895,0.000595093,0.001642227,0,
00:00.3,0.001602173,0.000595093,0.001653671,0,
00:00.3,0.001556396,0.000595093,0.001647949,0,
00:00.3,0.001516342,0.000595093,0.001670837,0,
00:00.3,0.001636505,0.000600815,0.001585007,0,
00:00.3,0.001613617,0.000600815,0.001619339,0,
00:00.3,0.001659393,0.000595093,0.001613617,0,
00:00.3,0.001590729,0.000600815,0.001630783,0,
00:00.3,0.001613617,0.000606537,0.001630783,0,
00:00.3,0.001607895,0.000600815,0.001647949,0,
00:00.3,0.001613617,0.000595093,0.001625061,0,
00:00.3,0.001602173,0.000595093,0.001625061,0,
00:00.3,0.001602173,0.000595093,0.001647949,0,
00:00.3,0.001607895,0.000600815,0.001642227,0,
00:00.4,0.001590729,0.000595093,0.001642227,0,
00:00.4,0.001602173,0.000600815,0.001636505,0,
00:00.4,0.001596451,0.000606537,0.001636505,0,
00:00.4,0.001602173,0.000606537,0.001636505,0,
00:00.4,0.001602173,0.000600815,0.001665115,0,
00:00.4,0.00151062,0.000595093,0.001619339,0,
00:00.4,0.001613617,0.000595093,0.001607895,0,
00:00.4,0.001653671,0.000606537,0.001636505,0,
00:00.4,0.001630783,0.000600815,0.001642227,0,
00:00.4,0.001630783,0.000606537,0.001636505,0,
00:00.4,0.001602173,0.000606537,0.001630783,0,
00:00.4,0.001590729,0.000595093,0.001636505,0,
00:00.4,0.001613617,0.000606537,0.001607895,0,
00:00.4,0.001613617,0.000606537,0.001613617,0,
00:00.4,0.001630783,0.000600815,0.001665115,0,
00:00.4,0.001602173,0.000600815,0.001659393,0,
00:00.4,0.001596451,0.000606537,0.001670837,0,
00:00.4,0.001613617,0.000595093,0.001642227,0,
00:00.4,0.001613617,0.000600815,0.001647949,0,
00:00.4,0.001590729,0.000606537,0.001647949,0,
00:00.4,0.001596451,0.000606537,0.001642227,0,
00:00.4,0.001533508,0.000623703,0.001625061,0,
00:00.4,0.001556396,0.000623703,0.001602173,0,
00:00.4,0.00170517,0.000600815,0.001659393,0,
00:00.4,0.001653671,0.000595093,0.001630783,0,
00:00.5,0.001613617,0.000595093,0.001642227,0,
00:00.5,0.001613617,0.000600815,0.001659393,0,
00:00.5,0.001619339,0.000600815,0.001647949,0,
00:00.5,0.001630783,0.000606537,0.001653671,0,
00:00.5,0.001619339,0.000612259,0.001642227,0,
00:00.5,0.001579285,0.000606537,0.001630783,0,
00:00.5,0.001607895,0.000617981,0.001619339,0,
00:00.5,0.001665115,0.000612259,0.001653671,0,
00:00.5,0.001607895,0.000612259,0.001647949,0,
00:00.5,0.001602173,0.000606537,0.001647949,0,
00:00.5,0.001636505,0.000606537,0.001647949,0,
00:00.5,0.001625061,0.000612259,0.001647949,0,
00:00.5,0.001630783,0.000612259,0.001647949,0,
00:00.5,0.001625061,0.000617981,0.001642227,0,
00:00.5,0.001619339,0.000612259,0.001619339,0,
00:00.5,0.001567841,0.000606537,0.001613617,0,
00:00.5,0.001499176,0.000606537,0.001693726,0,
00:00.5,0.001619339,0.000617981,0.001619339,0,
00:00.5,0.001676559,0.000612259,0.001619339,0,
00:00.5,0.001676559,0.000612259,0.001665115,0,
00:00.5,0.001636505,0.000612259,0.001630783,0,
00:00.5,0.001607895,0.000612259,0.001636505,0,
00:00.5,0.001562119,0.000612259,0.001647949,0,
00:00.5,0.001613617,0.000612259,0.001625061,0,
00:00.5,0.001642227,0.000606537,0.001659393,0,
00:00.6,0.001653671,0.000617981,0.001647949,0,
00:00.6,0.001636505,0.000617981,0.001647949,0,
00:00.6,0.001653671,0.000617981,0.001653671,0,
00:00.6,0.001607895,0.000612259,0.001630783,0,
00:00.6,0.001590729,0.000612259,0.001625061,0,
00:00.6,0.001647949,0.000612259,0.001642227,0,
00:00.6,0.001619339,0.000617981,0.001636505,0,
00:00.6,0.001596451,0.000606537,0.001642227,0,
00:00.6,0.001607895,0.000606537,0.001647949,0,
00:00.6,0.001636505,0.000612259,0.001647949,0,
00:00.6,0.001630783,0.000617981,0.001659393,0,
00:00.6,0.001642227,0.000612259,0.001653671,0,
00:00.6,0.001636505,0.000606537,0.001636505,0,
00:00.6,0.001619339,0.000606537,0.001636505,0,
00:00.6,0.001619339,0.000600815,0.001642227,0,
00:00.6,0.001590729,0.000617981,0.001647949,0,
00:00.6,0.001562119,0.000606537,0.001619339,0,
00:00.6,0.001579285,0.000606537,0.001653671,0,
00:00.6,0.001647949,0.000617981,0.001647949,0,
00:00.6,0.001659393,0.000617981,0.001630783,0,
00:00.6,0.001665115,0.000612259,0.001670837,0,
00:00.6,0.001647949,0.000606537,0.001647949,0,
00:00.6,0.001636505,0.000606537,0.001659393,0,
00:00.6,0.001625061,0.000600815,0.001659393,0,
00:00.6,0.001619339,0.000612259,0.001647949,0,
00:00.7,0.001585007,0.000617981,0.001642227,0,
00:00.7,0.00153923,0.000617981,0.001647949,0,
00:00.7,0.001642227,0.000617981,0.001642227,0,
00:00.7,0.001693726,0.000612259,0.001607895,0,
00:00.7,0.001670837,0.000612259,0.001659393,0,
00:00.7,0.001636505,0.000600815,0.001676559,0,
00:00.7,0.001630783,0.000606537,0.001659393,0,
00:00.7,0.001630783,0.000612259,0.001642227,0,
00:00.7,0.001630783,0.000617981,0.001647949,0,
00:00.7,0.001607895,0.000617981,0.001653671,0,
00:00.7,0.001613617,0.000617981,0.001630783,0,
00:00.7,0.001642227,0.000612259,0.001653671,0,
00:00.7,0.001630783,0.000612259,0.001665115,0,
00:00.7,0.001659393,0.000612259,0.001642227,0,
00:00.7,0.001625061,0.000606537,0.001653671,0,
00:00.7,0.001642227,0.000617981,0.001659393,0,
00:00.7,0.001613617,0.000617981,0.001653671,0,
00:00.7,0.001607895,0.000606537,0.001642227,0,
00:00.7,0.001636505,0.000612259,0.001630783,0,
00:00.7,0.001613617,0.000623703,0.001653671,0,
00:00.7,0.001659393,0.000617981,0.001642227,0,
00:00.7,0.001630783,0.000612259,0.001676559,0,
00:00.7,0.001602173,0.000617981,0.001688004,0,
00:00.7,0.001670837,0.000612259,0.001619339,0,
00:00.7,0.001636505,0.000612259,0.001636505,0,
00:00.8,0.001636505,0.000617981,0.001625061,0,
00:00.8,0.001619339,0.000623703,0.001653671,0,
00:00.8,0.001653671,0.000617981,0.001665115,0,
00:00.8,0.001642227,0.000612259,0.001670837,0,
00:00.8,0.001642227,0.000623703,0.001642227,0,
00:00.8,0.001625061,0.000617981,0.001659393,0,
00:00.8,0.001613617,0.000617981,0.001665115,0,
00:00.8,0.001642227,0.000612259,0.001647949,0,
00:00.8,0.001625061,0.000612259,0.001647949,0,
00:00.8,0.001670837,0.000617981,0.001636505,0,
00:00.8,0.001659393,0.000606537,0.001647949,0,
00:00.8,0.001619339,0.000617981,0.001659393,0,
00:00.8,0.001619339,0.000623703,0.001647949,0,
00:00.8,0.001625061,0.000612259,0.001659393,0,
00:00.8,0.001636505,0.000617981,0.001653671,0,
00:00.8,0.001607895,0.000612259,0.001636505,0,
00:00.8,0.001636505,0.000623703,0.00170517,0,
00:00.8,0.001636505,0.000612259,0.001665115,0,
00:00.8,0.001619339,0.000606537,0.001653671,0,
00:00.8,0.001625061,0.000617981,0.001665115,0,
00:00.8,0.001636505,0.000617981,0.001653671,0,
00:00.8,0.001653671,0.000612259,0.001670837,0,
00:00.8,0.001653671,0.000612259,0.001647949,0,
00:00.8,0.001636505,0.000617981,0.001665115,0,
00:00.8,0.001636505,0.000623703,0.001670837,0,
00:00.9,0.001613617,0.000617981,0.001653671,0,
00:00.9,0.001659393,0.000623703,0.001636505,0,
00:00.9,0.001653671,0.000617981,0.001607895,0,
00:00.9,0.001619339,0.000606537,0.001676559,0,
00:00.9,0.001613617,0.000612259,0.001676559,0,
00:00.9,0.001630783,0.000617981,0.001682281,0,
00:00.9,0.001636505,0.000612259,0.001693726,0,
00:00.9,0.001630783,0.000629425,0.001676559,0,
00:00.9,0.001665115,0.000623703,0.001659393,0,
00:00.9,0.001602173,0.000617981,0.001688004,0,
00:00.9,0.001613617,0.000617981,0.001676559,0,
00:00.9,0.001647949,0.000623703,0.001670837,0,
00:00.9,0.001653671,0.000623703,0.001653671,0,
00:00.9,0.001579285,0.000612259,0.001676559,0,
00:00.9,0.001636505,0.000612259,0.00170517,0,
00:00.9,0.001613617,0.000623703,0.001682281,0,
00:00.9,0.001647949,0.000623703,0.001688004,0,
00:00.9,0.001659393,0.000623703,0.001682281,0,
00:00.9,0.001642227,0.000623703,0.001676559,0,
00:00.9,0.001642227,0.000629425,0.001665115,0,
00:00.9,0.001636505,0.000623703,0.001670837,0,
00:00.9,0.001647949,0.000635147,0.001665115,0,
00:00.9,0.001642227,0.000635147,0.001676559,0,
00:00.9,0.001579285,0.000623703,0.001699448,0,
00:00.9,0.001619339,0.000623703,0.001688004,0,
00:01.0,0.001688004,0.000635147,0.001676559,0,
00:01.0,0.001665115,0.000640869,0.001688004,0,
00:01.0,0.001630783,0.000623703,0.001710892,0,
00:01.0,0.001630783,0.000623703,0.001682281,0,
00:01.0,0.001619339,0.000623703,0.001688004,0,
00:01.0,0.001619339,0.000623703,0.001676559,0,
00:01.0,0.001579285,0.000629425,0.001682281,0,
00:01.0,0.001596451,0.000623703,0.001688004,0,
00:01.0,0.001659393,0.000623703,0.001693726,0,
00:01.0,0.001653671,0.000623703,0.001693726,0,
00:01.0,0.001613617,0.000629425,0.001699448,0,
00:01.0,0.001636505,0.000635147,0.001693726,0,
00:00:01,0.001682281,0.000640869,0.001670837,0,
00:01.0,0.001665115,0.000635147,0.001625061,0,
00:01.0,0.001619339,0.000635147,0.001688004,0,
00:01.0,0.001607895,0.000635147,0.00173378,0,
00:01.0,0.001625061,0.000635147,0.00173378,0,
00:01.0,0.001653671,0.000635147,0.001688004,0,
00:01.0,0.001653671,0.000640869,0.001670837,0,
00:01.0,0.001636505,0.000629425,0.001693726,0,
00:01.0,0.001642227,0.000629425,0.001699448,0,
00:01.0,0.001619339,0.000623703,0.001699448,0,
00:01.0,0.001625061,0.000635147,0.001670837,0,
00:01.0,0.001642227,0.000640869,0.001682281,0,
00:01.0,0.001642227,0.000635147,0.001710892,0,
00:01.1,0.001596451,0.000635147,0.001728058,0,
00:01.1,0.001613617,0.000635147,0.001693726,0,
00:01.1,0.001647949,0.000640869,0.001688004,0,
00:01.1,0.001625061,0.000640869,0.001688004,0,
00:01.1,0.001590729,0.000640869,0.001682281,0,
00:01.1,0.001613617,0.000640869,0.001676559,0,
00:01.1,0.001676559,0.000640869,0.001688004,0,
00:01.1,0.001659393,0.000635147,0.001699448,0,
00:01.1,0.001613617,0.000629425,0.001699448,0,
00:01.1,0.001665115,0.000640869,0.001676559,0,
00:01.1,0.001613617,0.000640869,0.001699448,0,
00:01.1,0.001642227,0.000635147,0.001682281,0,
00:01.1,0.001630783,0.000640869,0.001676559,0,
00:01.1,0.001665115,0.000646591,0.001682281,0,
00:01.1,0.001659393,0.000640869,0.001670837,0,
00:01.1,0.001665115,0.000640869,0.001728058,0,
00:01.1,0.001636505,0.000640869,0.001710892,0,
00:01.1,0.001682281,0.000646591,0.001688004,0,
00:01.1,0.001602173,0.000640869,0.001699448,0,
00:01.1,0.001625061,0.000640869,0.00170517,0,
00:01.1,0.001653671,0.000646591,0.001682281,0,
00:01.1,0.001647949,0.000646591,0.001676559,0,
00:01.1,0.001602173,0.000640869,0.001699448,0,
00:01.1,0.001596451,0.000640869,0.001693726,0,
00:01.1,0.001647949,0.000640869,0.00170517,0,
00:01.2,0.001682281,0.000646591,0.001693726,0,
00:01.2,0.001647949,0.000646591,0.001653671,0,
00:01.2,0.001607895,0.000635147,0.001710892,0,
00:01.2,0.001579285,0.000640869,0.001688004,0,
00:01.2,0.00170517,0.000652313,0.001682281,0,
00:01.2,0.001688004,0.000652313,0.001688004,0,
00:01.2,0.001642227,0.000640869,0.001676559,0,
00:01.2,0.001607895,0.000640869,0.001682281,0,
00:01.2,0.001665115,0.000646591,0.00170517,0,
00:01.2,0.001607895,0.000640869,0.00170517,0,
00:01.2,0.001642227,0.000640869,0.001699448,0,
00:01.2,0.001676559,0.000652313,0.001693726,0,
00:01.2,0.001665115,0.000652313,0.001693726,0,
00:01.2,0.001642227,0.000646591,0.001693726,0,
00:01.2,0.001647949,0.000646591,0.001699448,0,
00:01.2,0.001647949,0.000646591,0.001682281,0,
00:01.2,0.001636505,0.000652313,0.001699448,0,
00:01.2,0.001647949,0.000652313,0.001710892,0,
00:01.2,0.001642227,0.000658035,0.001670837,0,
00:01.2,0.001585007,0.000635147,0.001688004,0,
00:01.2,0.001665115,0.000635147,0.001710892,0,
00:01.2,0.001653671,0.000652313,0.001710892,0,
00:01.2,0.001647949,0.000658035,0.001699448,0,
00:01.2,0.001682281,0.000652313,0.001682281,0,
00:01.2,0.001676559,0.000640869,0.001693726,0,
00:01.3,0.001676559,0.000646591,0.001676559,0,
00:01.3,0.001659393,0.000646591,0.001659393,0,
00:01.3,0.001647949,0.000640869,0.00170517,0,
00:01.3,0.001647949,0.000635147,0.001710892,0,
00:01.3,0.001653671,0.000646591,0.001682281,0,
00:01.3,0.001642227,0.000652313,0.001693726,0,
00:01.3,0.001625061,0.000652313,0.001693726,0,
00:01.3,0.001653671,0.000658035,0.001716614,0,
00:01.3,0.001676559,0.000646591,0.001688004,0,
00:01.3,0.001682281,0.000652313,0.001676559,0,
00:01.3,0.001682281,0.000646591,0.001716614,0,
00:01.3,0.001670837,0.000646591,0.00170517,0,
00:01.3,0.001647949,0.000652313,0.001699448,0,
00:01.3,0.001659393,0.000652313,0.001716614,0,
00:01.3,0.001636505,0.000646591,0.001688004,0,
00:01.3,0.001642227,0.000646591,0.001670837,0,
00:01.3,0.001682281,0.000646591,0.001693726,0,
00:01.3,0.001665115,0.000646591,0.001699448,0,
00:01.3,0.001653671,0.000646591,0.001728058,0,
00:01.3,0.001642227,0.000646591,0.001699448,0,
00:01.3,0.001647949,0.000646591,0.001710892,0,
00:01.3,0.001693726,0.000652313,0.001716614,0,
00:01.3,0.001693726,0.000652313,0.001710892,0,
00:01.3,0.001676559,0.000646591,0.001693726,0,
00:01.3,0.001659393,0.000652313,0.001699448,0,
00:01.4,0.001613617,0.000646591,0.001728058,0,
00:01.4,0.001653671,0.000658035,0.00170517,0,
00:01.4,0.001682281,0.000646591,0.001682281,0,
00:01.4,0.001659393,0.000652313,0.00170517,0,
00:01.4,0.001659393,0.000658035,0.001710892,0,
00:01.4,0.001659393,0.000658035,0.001722336,0,
00:01.4,0.001699448,0.000658035,0.001693726,0,
00:01.4,0.001682281,0.000652313,0.001699448,0,
00:01.4,0.001665115,0.000658035,0.001722336,0,
00:01.4,0.001670837,0.000652313,0.001716614,0,
00:01.4,0.001710892,0.000658035,0.001682281,0,
00:01.4,0.001676559,0.000652313,0.001688004,0,
00:01.4,0.001625061,0.000646591,0.001710892,0,
00:01.4,0.001653671,0.000658035,0.001722336,0,
00:01.4,0.001693726,0.000658035,0.001716614,0,
00:01.4,0.001619339,0.000658035,0.001739502,0,
00:01.4,0.001619339,0.000658035,0.00173378,0,
00:01.4,0.001722336,0.000652313,0.001682281,0,
00:01.4,0.001676559,0.000658035,0.001699448,0,
00:01.4,0.001670837,0.000652313,0.001739502,0,
00:01.4,0.001653671,0.000652313,0.00176239,0,
00:01.4,0.001659393,0.000658035,0.001716614,0,
00:01.4,0.00170517,0.000658035,0.001693726,0,
00:01.4,0.001682281,0.000658035,0.00170517,0,
00:01.4,0.001676559,0.000663757,0.001710892,0,
00:01.5,0.001642227,0.000652313,0.001739502,0,
00:01.5,0.001602173,0.000652313,0.001722336,0,
00:01.5,0.001693726,0.000669479,0.001728058,0,
00:01.5,0.001716614,0.000652313,0.001728058,0,
00:01.5,0.001688004,0.000652313,0.00173378,0,
00:01.5,0.001665115,0.000658035,0.001722336,0,
00:01.5,0.001630783,0.000652313,0.001728058,0,
00:01.5,0.001636505,0.000652313,0.001750946,0,
00:01.5,0.001682281,0.000663757,0.001693726,0,
00:01.5,0.001688004,0.000680923,0.001682281,0,
00:01.5,0.001693726,0.000675201,0.001739502,0,
00:01.5,0.001670837,0.000663757,0.001693726,0,
00:01.5,0.001647949,0.000646591,0.001722336,0,
00:01.5,0.001688004,0.000652313,0.001773834,0,
00:01.5,0.001676559,0.000658035,0.00176239,0,
00:01.5,0.001676559,0.000658035,0.001739502,0,
00:01.5,0.001682281,0.000669479,0.00173378,0,
00:01.5,0.001670837,0.000663757,0.001728058,0,
00:01.5,0.001659393,0.000669479,0.001716614,0,
00:01.5,0.001613617,0.000669479,0.001722336,0,
00:01.5,0.001659393,0.000686646,0.00170517,0,
00:01.5,0.001710892,0.000669479,0.001688004,0,
00:01.5,0.001699448,0.000658035,0.001750946,0,
00:01.5,0.001688004,0.000658035,0.001739502,0,
00:01.5,0.001688004,0.000652313,0.001773834,0,
00:01.6,0.001693726,0.000658035,0.001745224,0,
00:01.6,0.001688004,0.000663757,0.001739502,0,
00:01.6,0.001676559,0.000663757,0.001739502,0,
00:01.6,0.001653671,0.000658035,0.001745224,0,
00:01.6,0.001613617,0.000663757,0.001728058,0,
00:01.6,0.001676559,0.000669479,0.00173378,0,
00:01.6,0.001670837,0.000663757,0.001739502,0,
00:01.6,0.001739502,0.000669479,0.001670837,0,
00:01.6,0.001676559,0.000675201,0.001710892,0,
00:01.6,0.001682281,0.000669479,0.001710892,0,
00:01.6,0.001699448,0.000663757,0.001773834,0,
00:01.6,0.001699448,0.000658035,0.001756668,0,
00:01.6,0.001688004,0.000658035,0.001756668,0,
00:01.6,0.001642227,0.000658035,0.001739502,0,
00:01.6,0.001630783,0.000658035,0.001739502,0,
00:01.6,0.001716614,0.000669479,0.00173378,0,
00:01.6,0.001710892,0.000675201,0.001745224,0,
00:01.6,0.001688004,0.000663757,0.001739502,0,
00:01.6,0.001693726,0.000663757,0.001722336,0,
00:01.6,0.001670837,0.000669479,0.00173378,0,
00:01.6,0.001682281,0.000669479,0.001745224,0,
00:01.6,0.00170517,0.000675201,0.00173378,0,
00:01.6,0.00170517,0.000663757,0.001739502,0,
00:01.6,0.001653671,0.000663757,0.001745224,0,
00:01.6,0.001630783,0.000663757,0.00176239,0,
00:01.7,0.001636505,0.000669479,0.001739502,0,
00:01.7,0.001710892,0.000675201,0.001728058,0,
00:01.7,0.001682281,0.000663757,0.001750946,0,
00:01.7,0.001688004,0.000669479,0.001728058,0,
00:01.7,0.001630783,0.000663757,0.001750946,0,
00:01.7,0.001739502,0.000663757,0.001750946,0,
00:01.7,0.001745224,0.000669479,0.001722336,0,
00:01.7,0.00170517,0.000669479,0.001750946,0,
00:01.7,0.001693726,0.000663757,0.001745224,0,
00:01.7,0.001688004,0.000669479,0.00176239,0,
00:01.7,0.001647949,0.000675201,0.001750946,0,
00:01.7,0.001665115,0.000669479,0.001739502,0,
00:01.7,0.001756668,0.000663757,0.001750946,0,
00:01.7,0.001710892,0.000669479,0.001756668,0,
00:01.7,0.001699448,0.000675201,0.001756668,0,
00:01.7,0.001682281,0.000669479,0.001750946,0,
00:01.7,0.001670837,0.000658035,0.001779556,0,
00:01.7,0.001693726,0.000658035,0.001745224,0,
00:01.7,0.001642227,0.000663757,0.001756668,0,
00:01.7,0.001607895,0.000663757,0.001768112,0,
00:01.7,0.001722336,0.000669479,0.00173378,0,
00:01.7,0.001750946,0.000663757,0.001745224,0,
00:01.7,0.00170517,0.000663757,0.001756668,0,
00:01.7,0.001722336,0.000675201,0.001750946,0,
00:01.7,0.001699448,0.000669479,0.00176239,0,
00:01.8,0.001688004,0.000675201,0.001768112,0,
00:01.8,0.001699448,0.000675201,0.001745224,0,
00:01.8,0.001665115,0.000669479,0.001722336,0,
00:01.8,0.001699448,0.000663757,0.001739502,0,
00:01.8,0.00170517,0.000663757,0.001802444,0,
00:01.8,0.001710892,0.000669479,0.001756668,0,
00:01.8,0.001699448,0.000669479,0.001756668,0,
00:01.8,0.001642227,0.000669479,0.001750946,0,
00:01.8,0.00170517,0.000669479,0.001750946,0,
00:01.8,0.001670837,0.000663757,0.001785278,0,
00:01.8,0.00170517,0.000669479,0.00176239,0,
00:01.8,0.001665115,0.000652313,0.001745224,0,
00:01.8,0.00170517,0.000658035,0.001745224,0,
00:01.8,0.001699448,0.000675201,0.001768112,0,
00:01.8,0.00170517,0.000675201,0.001739502,0,
00:01.8,0.001728058,0.000669479,0.001756668,0,
00:01.8,0.001710892,0.000663757,0.001785278,0,
00:01.8,0.001688004,0.000663757,0.001773834,0,
00:01.8,0.001693726,0.000669479,0.001745224,0,
00:01.8,0.001676559,0.000669479,0.00176239,0,
00:01.8,0.001682281,0.000669479,0.001773834,0,
00:01.8,0.00173378,0.000669479,0.001756668,0,
00:01.8,0.00170517,0.000663757,0.001756668,0,
00:01.8,0.001716614,0.000669479,0.00176239,0,
00:01.8,0.001688004,0.000663757,0.001773834,0,
00:01.9,0.001665115,0.000663757,0.001768112,0,
00:01.9,0.001693726,0.000658035,0.00176239,0,
00:01.9,0.00170517,0.000663757,0.001750946,0,
00:01.9,0.001693726,0.000669479,0.001773834,0,
00:01.9,0.001716614,0.000669479,0.001791,0,
00:01.9,0.001716614,0.000663757,0.00176239,0,
00:01.9,0.001688004,0.000663757,0.001745224,0,
00:01.9,0.001682281,0.000663757,0.001768112,0,
00:01.9,0.001653671,0.000663757,0.001791,0,
00:01.9,0.001699448,0.000658035,0.001773834,0,
00:01.9,0.001710892,0.000663757,0.001785278,0,
00:01.9,0.001728058,0.000658035,0.001773834,0,
00:01.9,0.001716614,0.000658035,0.001773834,0,
00:01.9,0.00170517,0.000652313,0.001768112,0,
00:01.9,0.001710892,0.000658035,0.001773834,0,
00:01.9,0.001699448,0.000663757,0.001779556,0,
00:01.9,0.001659393,0.000675201,0.001768112,0,
00:01.9,0.001636505,0.000663757,0.001779556,0,
00:01.9,0.001710892,0.000663757,0.001779556,0,
00:01.9,0.001728058,0.000652313,0.001779556,0,
00:01.9,0.001699448,0.000658035,0.001796722,0,
00:01.9,0.001676559,0.000658035,0.001773834,0,
00:01.9,0.00176239,0.000663757,0.001750946,0,
00:01.9,0.001716614,0.000652313,0.001813889,0,
00:01.9,0.001682281,0.000663757,0.00176239,0,
00:02.0,0.001642227,0.000669479,0.001785278,0,
00:02.0,0.001722336,0.000663757,0.001785278,0,
00:02.0,0.001728058,0.000663757,0.001785278,0,
00:02.0,0.001710892,0.000652313,0.001813889,0,
00:02.0,0.001699448,0.000658035,0.001802444,0,
00:02.0,0.001722336,0.000652313,0.001791,0,
00:02.0,0.001728058,0.000663757,0.001791,0,
00:02.0,0.001716614,0.000658035,0.001768112,0,
00:02.0,0.001710892,0.000646591,0.001796722,0,
00:02.0,0.001710892,0.000652313,0.001802444,0,
00:02.0,0.001682281,0.000669479,0.001768112,0,
00:02.0,0.001653671,0.000652313,0.001791,0,
00:00:02,0.00170517,0.000652313,0.001813889,0,
00:02.0,0.001688004,0.000658035,0.001808167,0,
00:02.0,0.001722336,0.000658035,0.001802444,0,
00:02.0,0.001716614,0.000663757,0.001796722,0,
00:02.0,0.001722336,0.000663757,0.001791,0,
00:02.0,0.001676559,0.000663757,0.001802444,0,
00:02.0,0.001596451,0.000658035,0.001796722,0,
00:02.0,0.001659393,0.000663757,0.001808167,0,
00:02.0,0.001785278,0.000652313,0.001779556,0,
00:02.0,0.001768112,0.000652313,0.001796722,0,
00:02.0,0.00170517,0.000652313,0.001785278,0,
00:02.0,0.001716614,0.000646591,0.001808167,0,
00:02.0,0.00173378,0.000652313,0.001813889,0,
00:02.1,0.001728058,0.000663757,0.001791,0,
00:02.1,0.001710892,0.000646591,0.001831055,0,
00:02.1,0.00170517,0.000646591,0.001819611,0,
00:02.1,0.00170517,0.000652313,0.001813889,0,
00:02.1,0.001699448,0.000663757,0.001813889,0,
00:02.1,0.001699448,0.000669479,0.001796722,0,
00:02.1,0.00170517,0.000663757,0.001791,0,
00:02.1,0.001688004,0.000640869,0.001825333,0,
00:02.1,0.001722336,0.000652313,0.001819611,0,
00:02.1,0.001693726,0.000658035,0.001813889,0,
00:02.1,0.001728058,0.000652313,0.001808167,0,
00:02.1,0.001722336,0.000652313,0.001796722,0,
00:02.1,0.001693726,0.000652313,0.001802444,0,
00:02.1,0.001693726,0.000646591,0.001791,0,
00:02.1,0.001693726,0.000652313,0.001825333,0,
00:02.1,0.001653671,0.000652313,0.001825333,0,
00:02.1,0.001670837,0.000652313,0.001836777,0,
00:02.1,0.001710892,0.000658035,0.001813889,0,
00:02.1,0.001728058,0.000652313,0.001796722,0,
00:02.1,0.001756668,0.000652313,0.001796722,0,
00:02.1,0.00170517,0.000652313,0.001813889,0,
00:02.1,0.001670837,0.000646591,0.001836777,0,
00:02.1,0.001710892,0.000646591,0.001836777,0,
00:02.1,0.00170517,0.000640869,0.001831055,0,
00:02.1,0.001688004,0.000646591,0.001825333,0,
00:02.2,0.001710892,0.000652313,0.001831055,0,
00:02.2,0.001728058,0.000646591,0.001802444,0,
00:02.2,0.001750946,0.000640869,0.001808167,0,
00:02.2,0.001693726,0.000635147,0.001813889,0,
00:02.2,0.001699448,0.000640869,0.001842499,0,
00:02.2,0.00170517,0.000646591,0.001825333,0,
00:02.2,0.00170517,0.000640869,0.001802444,0,
00:02.2,0.001710892,0.000640869,0.001825333,0,
00:02.2,0.001688004,0.000640869,0.001825333,0,
00:02.2,0.001722336,0.000652313,0.001802444,0,
00:02.2,0.001682281,0.000646591,0.001836777,0,
00:02.2,0.001676559,0.000640869,0.001842499,0,
00:02.2,0.001699448,0.000640869,0.001836777,0,
00:02.2,0.00173378,0.000635147,0.001836777,0,
00:02.2,0.001670837,0.000646591,0.001813889,0,
00:02.2,0.001659393,0.000640869,0.001825333,0,
00:02.2,0.001728058,0.000629425,0.001848221,0,
00:02.2,0.001716614,0.000640869,0.001825333,0,
00:02.2,0.001716614,0.000640869,0.001831055,0,
00:02.2,0.00173378,0.000640869,0.001842499,0,
00:02.2,0.001739502,0.000635147,0.001825333,0,
00:02.2,0.001688004,0.000646591,0.001808167,0,
00:02.2,0.001653671,0.000640869,0.001779556,0,
00:02.2,0.001693726,0.000635147,0.001819611,0,
00:02.2,0.001699448,0.000635147,0.001865387,0,
00:02.3,0.001699448,0.000635147,0.001865387,0,
00:02.3,0.001693726,0.000635147,0.001853943,0,
00:02.3,0.00173378,0.000629425,0.001842499,0,
00:02.3,0.001722336,0.000623703,0.001842499,0,
00:02.3,0.001716614,0.000635147,0.001853943,0,
00:02.3,0.001710892,0.000640869,0.001848221,0,
00:02.3,0.001659393,0.000640869,0.001808167,0,
00:02.3,0.001716614,0.000629425,0.001853943,0,
00:02.3,0.001716614,0.000623703,0.001848221,0,
00:02.3,0.001728058,0.000629425,0.001848221,0,
00:02.3,0.001710892,0.000629425,0.001836777,0,
00:02.3,0.001688004,0.000629425,0.001842499,0,
00:02.3,0.00170517,0.000623703,0.001871109,0,
00:02.3,0.001676559,0.000623703,0.001848221,0,
00:02.3,0.00170517,0.000635147,0.001808167,0,
00:02.3,0.001665115,0.000640869,0.001842499,0,
00:02.3,0.001670837,0.000623703,0.001893997,0,
00:02.3,0.001728058,0.000629425,0.001853943,0,
00:02.3,0.001739502,0.000617981,0.001853943,0,
00:02.3,0.001710892,0.000623703,0.001853943,0,
00:02.3,0.001665115,0.000623703,0.001859665,0,
00:02.3,0.001670837,0.000617981,0.001853943,0,
00:02.3,0.001745224,0.000629425,0.001831055,0,
00:02.3,0.001716614,0.000623703,0.001865387,0,
00:02.3,0.00170517,0.000623703,0.001853943,0,
00:02.4,0.001699448,0.000629425,0.001848221,0,
00:02.4,0.001676559,0.000623703,0.001871109,0,
00:02.4,0.001728058,0.000617981,0.001882553,0,
00:02.4,0.00170517,0.000617981,0.001859665,0,
00:02.4,0.001716614,0.000640869,0.001836777,0,
00:02.4,0.001647949,0.000629425,0.001853943,0,
00:02.4,0.001630783,0.000617981,0.001871109,0,
00:02.4,0.00176239,0.000623703,0.001871109,0,
00:02.4,0.001693726,0.000617981,0.001882553,0,
00:02.4,0.00173378,0.000617981,0.001876831,0,
00:02.4,0.001682281,0.000617981,0.001865387,0,
00:02.4,0.001716614,0.000617981,0.001848221,0,
00:02.4,0.00173378,0.000623703,0.001871109,0,
00:02.4,0.001682281,0.000617981,0.001859665,0,
00:02.4,0.001688004,0.000612259,0.001819611,0,
00:02.4,0.00170517,0.000623703,0.001871109,0,
00:02.4,0.00170517,0.000623703,0.001893997,0,
00:02.4,0.001699448,0.000617981,0.001871109,0,
00:02.4,0.001693726,0.000612259,0.001882553,0,
00:02.4,0.001676559,0.000617981,0.001871109,0,
00:02.4,0.001722336,0.000617981,0.001865387,0,
00:02.4,0.00170517,0.000617981,0.001893997,0,
00:02.4,0.00173378,0.000617981,0.001888275,0,
00:02.4,0.001682281,0.000617981,0.001882553,0,
00:02.4,0.001682281,0.000617981,0.001888275,0,
00:02.5,0.00173378,0.000629425,0.001848221,0,
00:02.5,0.001722336,0.000617981,0.001842499,0,
00:02.5,0.001676559,0.000606537,0.001893997,0,
00:02.5,0.001699448,0.000606537,0.001899719,0,
00:02.5,0.001716614,0.000606537,0.001876831,0,
00:02.5,0.001728058,0.000606537,0.001888275,0,
00:02.5,0.001693726,0.000617981,0.001871109,0,
00:02.5,0.001653671,0.000617981,0.001871109,0,
00:02.5,0.001710892,0.000612259,0.001882553,0,
00:02.5,0.00170517,0.000612259,0.001882553,0,
00:02.5,0.001688004,0.000612259,0.001899719,0,
00:02.5,0.001688004,0.000617981,0.001893997,0,
00:02.5,0.001745224,0.000606537,0.001905441,0,
00:02.5,0.001716614,0.000606537,0.001905441,0,
00:02.5,0.001728058,0.000612259,0.001905441,0,
00:02.5,0.001716614,0.000612259,0.001893997,0,
00:02.5,0.00170517,0.000623703,0.001911163,0,
00:02.5,0.001693726,0.000606537,0.001899719,0,
00:02.5,0.001613617,0.000612259,0.001871109,0,
00:02.5,0.001636505,0.000623703,0.001865387,0,
00:02.5,0.001785278,0.000606537,0.001882553,0,
00:02.5,0.001739502,0.000600815,0.001911163,0,
00:02.5,0.001716614,0.000606537,0.001899719,0,
00:02.5,0.001699448,0.000606537,0.001905441,0,
00:02.5,0.001722336,0.000606537,0.001888275,0,
00:02.6,0.00170517,0.000600815,0.001922607,0,
00:02.6,0.001710892,0.000600815,0.001916885,0,
00:02.6,0.00170517,0.000606537,0.001916885,0,
00:02.6,0.00170517,0.000606537,0.001905441,0,
00:02.6,0.001693726,0.000606537,0.001905441,0,
00:02.6,0.001665115,0.000606537,0.001905441,0,
00:02.6,0.001659393,0.000617981,0.001888275,0,
00:02.6,0.001688004,0.000606537,0.001888275,0,
00:02.6,0.001756668,0.000606537,0.001916885,0,
00:02.6,0.001750946,0.000612259,0.001893997,0,
00:02.6,0.001676559,0.000617981,0.001859665,0,
00:02.6,0.001647949,0.000600815,0.001916885,0,
00:02.6,0.001710892,0.000595093,0.001922607,0,
00:02.6,0.001756668,0.000595093,0.001934052,0,
00:02.6,0.001722336,0.000595093,0.001928329,0,
00:02.6,0.00170517,0.000595093,0.001945496,0,
00:02.6,0.001710892,0.000589371,0.001911163,0,
00:02.6,0.001710892,0.000595093,0.001916885,0,
00:02.6,0.001710892,0.000600815,0.001911163,0,
00:02.6,0.001699448,0.000595093,0.001911163,0,
00:02.6,0.001676559,0.000600815,0.001922607,0,
00:02.6,0.001693726,0.000612259,0.001905441,0,
00:02.6,0.001716614,0.000606537,0.001893997,0,
00:02.6,0.001710892,0.000595093,0.001922607,0,
00:02.6,0.001682281,0.000595093,0.001922607,0,
00:02.7,0.001665115,0.000595093,0.001916885,0,
00:02.7,0.001710892,0.000589371,0.001928329,0,
00:02.7,0.001670837,0.000589371,0.001945496,0,
00:02.7,0.001665115,0.000577927,0.00195694,0,
00:02.7,0.001750946,0.000595093,0.001916885,0,
00:02.7,0.001710892,0.000589371,0.001928329,0,
00:02.7,0.001722336,0.000589371,0.001922607,0,
00:02.7,0.001716614,0.000595093,0.001922607,0,
00:02.7,0.00170517,0.000595093,0.001928329,0,
00:02.7,0.001693726,0.000589371,0.001928329,0,
00:02.7,0.001682281,0.000595093,0.001951218,0,
00:02.7,0.001682281,0.000583649,0.001939774,0,
00:02.7,0.001756668,0.000583649,0.001905441,0,
00:02.7,0.00170517,0.000583649,0.001911163,0,
00:02.7,0.00170517,0.000583649,0.001928329,0,
00:02.7,0.001693726,0.000583649,0.001939774,0,
00:02.7,0.001688004,0.000589371,0.00195694,0,
00:02.7,0.001670837,0.000572205,0.001962662,0,
00:02.7,0.001642227,0.000583649,0.00195694,0,
00:02.7,0.001682281,0.000589371,0.001911163,0,
00:02.7,0.00173378,0.000577927,0.001939774,0,
00:02.7,0.001665115,0.000577927,0.001951218,0,
00:02.7,0.00173378,0.000577927,0.001934052,0,
00:02.7,0.001710892,0.000577927,0.001939774,0,
00:02.7,0.001688004,0.000577927,0.001939774,0,
00:02.8,0.001699448,0.000577927,0.001951218,0,
00:02.8,0.001716614,0.000572205,0.001939774,0,
00:02.8,0.00170517,0.000572205,0.001945496,0,
00:02.8,0.001670837,0.000583649,0.001939774,0,
00:02.8,0.001682281,0.000583649,0.001905441,0,
00:02.8,0.00170517,0.000577927,0.001922607,0,
00:02.8,0.001642227,0.000566483,0.00198555,0,
00:02.8,0.001693726,0.000572205,0.001968384,0,
00:02.8,0.001739502,0.000572205,0.001962662,0,
00:02.8,0.001739502,0.000566483,0.001945496,0,
00:02.8,0.001716614,0.000572205,0.001951218,0,
00:02.8,0.001682281,0.000572205,0.001939774,0,
00:02.8,0.00170517,0.000572205,0.00195694,0,
00:02.8,0.001693726,0.000577927,0.001951218,0,
00:02.8,0.001693726,0.000577927,0.001939774,0,
00:02.8,0.00173378,0.000566483,0.00195694,0,
00:02.8,0.001688004,0.000572205,0.001939774,0,
00:02.8,0.001653671,0.000572205,0.00195694,0,
00:02.8,0.00170517,0.000572205,0.001968384,0,
00:02.8,0.001716614,0.000572205,0.001939774,0,
00:02.8,0.001682281,0.00056076,0.001962662,0,
00:02.8,0.00170517,0.000572205,0.001945496,0,
00:02.8,0.001693726,0.000566483,0.001979828,0,
00:02.8,0.001688004,0.00056076,0.001974106,0,
00:02.8,0.001699448,0.000566483,0.001962662,0,
00:02.9,0.001636505,0.000566483,0.001968384,0,
00:02.9,0.001590729,0.000572205,0.001951218,0,
00:02.9,0.001739502,0.00056076,0.001951218,0,
00:02.9,0.001779556,0.000555038,0.001968384,0,
00:02.9,0.001722336,0.00056076,0.00198555,0,
00:02.9,0.001670837,0.00056076,0.001991272,0,
00:02.9,0.001665115,0.000566483,0.00195694,0,
00:02.9,0.001699448,0.000566483,0.001928329,0,
00:02.9,0.001716614,0.000577927,0.001962662,0,
00:02.9,0.001670837,0.000566483,0.001934052,0,
00:02.9,0.001688004,0.00056076,0.001939774,0,
00:02.9,0.001739502,0.00056076,0.00198555,0,
00:02.9,0.001722336,0.000555038,0.001991272,0,
00:02.9,0.001710892,0.00056076,0.00198555,0,
00:02.9,0.001699448,0.00056076,0.001968384,0,
00:02.9,0.001699448,0.00056076,0.00198555,0,
00:02.9,0.00170517,0.000566483,0.001974106,0,
00:02.9,0.001613617,0.000566483,0.001974106,0,
00:02.9,0.001636505,0.000572205,0.001945496,0,
00:02.9,0.001750946,0.000566483,0.001968384,0,
00:02.9,0.001745224,0.000555038,0.001996994,0,
00:02.9,0.00170517,0.000549316,0.00198555,0,
00:02.9,0.001693726,0.000549316,0.001991272,0,
00:02.9,0.001693726,0.000549316,0.00198555,0,
00:02.9,0.001693726,0.000555038,0.001962662,0,
00:03.0,0.001630783,0.00056076,0.00195694,0,
00:03.0,0.001659393,0.000555038,0.001974106,0,
00:03.0,0.001750946,0.000549316,0.001996994,0,
00:03.0,0.00170517,0.000549316,0.002002716,0,
00:03.0,0.001728058,0.000549316,0.00198555,0,
00:03.0,0.001710892,0.000555038,0.00198555,0,
00:03.0,0.00170517,0.000549316,0.001979828,0,
00:03.0,0.001693726,0.000549316,0.001968384,0,
00:03.0,0.001688004,0.000566483,0.001962662,0,
00:03.0,0.001642227,0.00056076,0.001934052,0,
00:03.0,0.00173378,0.000549316,0.002002716,0,
00:03.0,0.001716614,0.000549316,0.001991272,0,
00:00:03,0.001693726,0.000537872,0.001962662,0,
00:03.0,0.001688004,0.00053215,0.002019882,0,
00:03.0,0.001693726,0.000543594,0.002025604,0,
00:03.0,0.001682281,0.00056076,0.001996994,0,
00:03.0,0.001693726,0.000549316,0.001974106,0,
00:03.0,0.001699448,0.000549316,0.001974106,0,
00:03.0,0.001682281,0.000549316,0.002019882,0,
00:03.0,0.001722336,0.000549316,0.00198555,0,
00:03.0,0.001728058,0.000549316,0.001979828,0,
00:03.0,0.001688004,0.000537872,0.00201416,0,
00:03.0,0.001676559,0.00053215,0.002008438,0,
00:03.0,0.001722336,0.000543594,0.001968384,0,
00:03.0,0.001636505,0.000549316,0.001962662,0,
00:03.1,0.001642227,0.000549316,0.00198555,0,
00:03.1,0.001756668,0.000537872,0.001996994,0,
00:03.1,0.001739502,0.000537872,0.002002716,0,
00:03.1,0.001710892,0.000543594,0.00201416,0,
00:03.1,0.00170517,0.000549316,0.002002716,0,
00:03.1,0.001699448,0.000537872,0.001968384,0,
00:03.1,0.001653671,0.000543594,0.002008438,0,
00:03.1,0.001688004,0.000537872,0.001991272,0,
00:03.1,0.001699448,0.000537872,0.001991272,0,
00:03.1,0.001699448,0.000537872,0.002002716,0,
00:03.1,0.001710892,0.000537872,0.002008438,0,
00:03.1,0.001693726,0.00053215,0.001991272,0,
00:03.1,0.001688004,0.000537872,0.002008438,0,
00:03.1,0.001728058,0.000537872,0.002002716,0,
00:03.1,0.00170517,0.00053215,0.001996994,0,
00:03.1,0.001670837,0.00053215,0.002019882,0,
00:03.1,0.001653671,0.000537872,0.001996994,0,
00:03.1,0.001699448,0.00053215,0.001991272,0,
00:03.1,0.00170517,0.000537872,0.001968384,0,
00:03.1,0.001739502,0.000526428,0.001991272,0,
00:03.1,0.00173378,0.00053215,0.002031326,0,
00:03.1,0.00170517,0.000526428,0.002031326,0,
00:03.1,0.001716614,0.000526428,0.002019882,0,
00:03.1,0.001699448,0.000526428,0.002025604,0,
00:03.1,0.001699448,0.00053215,0.002025604,0,
00:03.2,0.001699448,0.00053215,0.00201416,0,
00:03.2,0.001682281,0.000537872,0.002002716,0,
00:03.2,0.001613617,0.000543594,0.001996994,0,
00:03.2,0.001636505,0.000537872,0.001996994,0,
00:03.2,0.00173378,0.000526428,0.002008438,0,
00:03.2,0.001739502,0.000520706,0.002031326,0,
00:03.2,0.001716614,0.000520706,0.002037048,0,
00:03.2,0.001716614,0.000526428,0.00201416,0,
00:03.2,0.001699448,0.000526428,0.00201416,0,
00:03.2,0.00170517,0.000526428,0.00201416,0,
00:03.2,0.001710892,0.00053215,0.002025604,0,
00:03.2,0.001693726,0.00053215,0.002019882,0,
00:03.2,0.001688004,0.00053215,0.002002716,0,
00:03.2,0.001630783,0.00053215,0.002008438,0,
00:03.2,0.001670837,0.00053215,0.001991272,0,
00:03.2,0.001722336,0.000537872,0.002025604,0,
00:03.2,0.00170517,0.000543594,0.002019882,0,
00:03.2,0.001716614,0.000520706,0.002019882,0,
00:03.2,0.001710892,0.000520706,0.002037048,0,
00:03.2,0.00170517,0.000520706,0.002037048,0,
00:03.2,0.001676559,0.000514984,0.002037048,0,
00:03.2,0.00170517,0.000526428,0.002031326,0,
00:03.2,0.00170517,0.000526428,0.002037048,0,
00:03.2,0.001670837,0.000526428,0.002031326,0,
00:03.2,0.00170517,0.000520706,0.002002716,0,
00:03.3,0.001722336,0.000537872,0.002002716,0,
00:03.3,0.001699448,0.000537872,0.00198555,0,
00:03.3,0.001699448,0.00053215,0.002048492,0,
00:03.3,0.001688004,0.00053215,0.002002716,0,
00:03.3,0.001682281,0.000514984,0.00204277,0,
00:03.3,0.001710892,0.000526428,0.002071381,0,
00:03.3,0.001676559,0.000514984,0.002054214,0,
00:03.3,0.001619339,0.000520706,0.002054214,0,
00:03.3,0.001699448,0.000520706,0.002025604,0,
00:03.3,0.001693726,0.000520706,0.002031326,0,
00:03.3,0.001670837,0.000520706,0.002037048,0,
00:03.3,0.00173378,0.000526428,0.002037048,0,
00:03.3,0.001728058,0.000526428,0.002025604,0,
00:03.3,0.001710892,0.000526428,0.002008438,0,
00:03.3,0.001659393,0.000526428,0.002037048,0,
00:03.3,0.001653671,0.000520706,0.002077103,0,
00:03.3,0.00170517,0.000509262,0.002031326,0,
00:03.3,0.001699448,0.000520706,0.002025604,0,
00:03.3,0.001693726,0.000520706,0.002031326,0,
00:03.3,0.001710892,0.000514984,0.002031326,0,
00:03.3,0.001710892,0.000520706,0.002031326,0,
00:03.3,0.00170517,0.000520706,0.002031326,0,
00:03.3,0.001693726,0.000509262,0.002065659,0,
00:03.3,0.001699448,0.000514984,0.002031326,0,
00:03.3,0.001710892,0.000509262,0.00204277,0,
00:03.4,0.001682281,0.000509262,0.002065659,0,
00:03.4,0.001670837,0.000509262,0.002037048,0,
00:03.4,0.001665115,0.000509262,0.002048492,0,
00:03.4,0.001756668,0.000520706,0.00201416,0,
00:03.4,0.001688004,0.000514984,0.002002716,0,
00:03.4,0.001653671,0.000514984,0.002059937,0,
00:03.4,0.001710892,0.000514984,0.002019882,0,
00:03.4,0.001693726,0.000497818,0.002054214,0,
00:03.4,0.001722336,0.00050354,0.002054214,0,
00:03.4,0.001699448,0.000514984,0.002059937,0,
00:03.4,0.001625061,0.000526428,0.00204277,0,
00:03.4,0.001659393,0.000509262,0.002054214,0,
00:03.4,0.001710892,0.000497818,0.002054214,0,
00:03.4,0.001670837,0.000497818,0.002031326,0,
00:03.4,0.00173378,0.00050354,0.002054214,0,
00:03.4,0.001745224,0.000509262,0.002037048,0,
00:03.4,0.001710892,0.000509262,0.002037048,0,
00:03.4,0.001682281,0.000509262,0.002019882,0,
00:03.4,0.001630783,0.00050354,0.002048492,0,
00:03.4,0.001682281,0.00050354,0.002037048,0,
00:03.4,0.001750946,0.00050354,0.002059937,0,
00:03.4,0.001728058,0.000497818,0.002048492,0,
00:03.4,0.001699448,0.000497818,0.002059937,0,
00:03.4,0.001659393,0.000497818,0.002065659,0,
00:03.4,0.001642227,0.000509262,0.002037048,0,
00:03.5,0.001688004,0.000509262,0.002048492,0,
00:03.5,0.001722336,0.00050354,0.002071381,0,
00:03.5,0.001716614,0.000497818,0.002048492,0,
00:03.5,0.001739502,0.000509262,0.002037048,0,
00:03.5,0.001659393,0.000497818,0.002065659,0,
00:03.5,0.001670837,0.000497818,0.002071381,0,
00:03.5,0.001710892,0.00050354,0.00201416,0,
00:03.5,0.001688004,0.000497818,0.002054214,0,
00:03.5,0.001676559,0.000497818,0.002054214,0,
00:03.5,0.001642227,0.00050354,0.002048492,0,
00:03.5,0.001699448,0.000497818,0.002065659,0,
00:03.5,0.001710892,0.000497818,0.002065659,0,
00:03.5,0.001670837,0.000492096,0.002071381,0,
00:03.5,0.001688004,0.000492096,0.002059937,0,
00:03.5,0.001693726,0.000492096,0.002048492,0,
00:03.5,0.001699448,0.000492096,0.002048492,0,
00:03.5,0.001642227,0.000492096,0.002071381,0,
00:03.5,0.001653671,0.000497818,0.00204277,0,
00:03.5,0.001716614,0.00050354,0.002048492,0,
00:03.5,0.001676559,0.000486374,0.002082825,0,
00:03.5,0.001682281,0.000497818,0.002065659,0,
00:03.5,0.001722336,0.000497818,0.002031326,0,
00:03.5,0.00170517,0.000492096,0.002071381,0,
00:03.5,0.001670837,0.000480652,0.002077103,0,
00:03.5,0.001728058,0.000492096,0.002059937,0,
00:03.6,0.001670837,0.000492096,0.002054214,0,
00:03.6,0.001653671,0.000486374,0.002071381,0,
00:03.6,0.001710892,0.000486374,0.002059937,0,
00:03.6,0.001699448,0.000480652,0.002077103,0,
00:03.6,0.001688004,0.000492096,0.002077103,0,
00:03.6,0.001665115,0.000486374,0.002059937,0,
00:03.6,0.001682281,0.000486374,0.002065659,0,
00:03.6,0.001693726,0.000486374,0.002054214,0,
00:03.6,0.001688004,0.000486374,0.002025604,0,
00:03.6,0.001676559,0.000480652,0.002059937,0,
00:03.6,0.001688004,0.000480652,0.002088547,0,
00:03.6,0.00170517,0.000486374,0.002088547,0,
00:03.6,0.001659393,0.000486374,0.002077103,0,
00:03.6,0.001653671,0.000480652,0.002065659,0,
00:03.6,0.001699448,0.000480652,0.002071381,0,
00:03.6,0.001699448,0.000480652,0.00204277,0,
00:03.6,0.001665115,0.000480652,0.002071381,0,
00:03.6,0.001665115,0.00047493,0.002088547,0,
00:03.6,0.001693726,0.000486374,0.002065659,0,
00:03.6,0.001688004,0.000480652,0.002071381,0,
00:03.6,0.001659393,0.00047493,0.002065659,0,
00:03.6,0.00173378,0.000486374,0.00204277,0,
00:03.6,0.001688004,0.000469208,0.002054214,0,
00:03.6,0.001670837,0.000469208,0.002088547,0,
00:03.6,0.001699448,0.000486374,0.002059937,0,
00:03.7,0.001710892,0.000480652,0.002054214,0,
00:03.7,0.001659393,0.000480652,0.002094269,0,
00:03.7,0.001682281,0.00047493,0.002088547,0,
00:03.7,0.00170517,0.00047493,0.002088547,0,
00:03.7,0.001682281,0.00047493,0.002077103,0,
00:03.7,0.001676559,0.000463486,0.002059937,0,
00:03.7,0.001665115,0.000463486,0.002071381,0,
00:03.7,0.00170517,0.00047493,0.002059937,0,
00:03.7,0.001665115,0.000463486,0.002071381,0,
00:03.7,0.001688004,0.00047493,0.002071381,0,
00:03.7,0.00170517,0.00047493,0.002082825,0,
00:03.7,0.001688004,0.000463486,0.002077103,0,
00:03.7,0.001682281,0.000469208,0.002082825,0,
00:03.7,0.001665115,0.000463486,0.002082825,0,
00:03.7,0.001590729,0.000469208,0.002088547,0,
00:03.7,0.001659393,0.000469208,0.00204277,0,
00:03.7,0.00173378,0.000469208,0.002037048,0,
00:03.7,0.00176239,0.000469208,0.002077103,0,
00:03.7,0.001745224,0.000469208,0.002065659,0,
00:03.7,0.001676559,0.000457764,0.002077103,0,
00:03.7,0.001647949,0.000463486,0.002082825,0,
00:03.7,0.001602173,0.000463486,0.002094269,0,
00:03.7,0.001659393,0.000463486,0.002077103,0,
00:03.7,0.00173378,0.000469208,0.002071381,0,
00:03.7,0.001716614,0.000463486,0.002059937,0,
00:03.8,0.001670837,0.000457764,0.002088547,0,
00:03.8,0.001665115,0.000463486,0.002117157,0,
00:03.8,0.001688004,0.000457764,0.002071381,0,
00:03.8,0.001699448,0.000457764,0.002048492,0,
00:03.8,0.001676559,0.000463486,0.002105713,0,
00:03.8,0.001653671,0.000457764,0.002077103,0,
00:03.8,0.001710892,0.000463486,0.002082825,0,
00:03.8,0.001693726,0.000457764,0.002094269,0,
00:03.8,0.001682281,0.000457764,0.002105713,0,
00:03.8,0.001676559,0.000457764,0.002088547,0,
00:03.8,0.001630783,0.00047493,0.002071381,0,
00:03.8,0.001642227,0.000469208,0.002094269,0,
00:03.8,0.001699448,0.000457764,0.002077103,0,
00:03.8,0.001728058,0.000463486,0.00204277,0,
00:03.8,0.001699448,0.000457764,0.002077103,0,
00:03.8,0.00170517,0.00044632,0.002117157,0,
00:03.8,0.00170517,0.000452042,0.002094269,0,
00:03.8,0.001682281,0.000452042,0.002088547,0,
00:03.8,0.001665115,0.000457764,0.002088547,0,
00:03.8,0.001647949,0.000463486,0.002059937,0,
00:03.8,0.001647949,0.000452042,0.002071381,0,
00:03.8,0.00173378,0.000457764,0.002059937,0,
00:03.8,0.001716614,0.000457764,0.002111435,0,
00:03.8,0.001676559,0.000457764,0.002128601,0,
00:03.8,0.001676559,0.00044632,0.002111435,0,
00:03.9,0.00170517,0.00044632,0.002071381,0,
00:03.9,0.001693726,0.000452042,0.002065659,0,
00:03.9,0.001647949,0.000463486,0.002065659,0,
00:03.9,0.001522064,0.00044632,0.002117157,0,
00:03.9,0.001670837,0.00044632,0.002105713,0,
00:03.9,0.00173378,0.000440598,0.002088547,0,
00:03.9,0.001739502,0.000452042,0.002094269,0,
00:03.9,0.00170517,0.000457764,0.002077103,0,
00:03.9,0.001682281,0.000452042,0.002088547,0,
00:03.9,0.001659393,0.000452042,0.002094269,0,
00:03.9,0.001630783,0.000452042,0.002088547,0,
00:03.9,0.001630783,0.000452042,0.002099991,0,
00:03.9,0.00173378,0.000463486,0.002071381,0,
00:03.9,0.001739502,0.000440598,0.002071381,0,
00:03.9,0.001710892,0.00044632,0.002117157,0,
00:03.9,0.001693726,0.00044632,0.002105713,0,
00:03.9,0.001676559,0.00044632,0.002111435,0,
00:03.9,0.001682281,0.00044632,0.002065659,0,
00:03.9,0.001653671,0.00044632,0.002054214,0,
00:03.9,0.001676559,0.000434875,0.002117157,0,
00:03.9,0.001710892,0.000434875,0.002111435,0,
00:03.9,0.001688004,0.000440598,0.002105713,0,
00:03.9,0.001676559,0.000440598,0.002105713,0,
00:03.9,0.001659393,0.000434875,0.002099991,0,
00:03.9,0.001682281,0.000440598,0.002082825,0,
00:04.0,0.001642227,0.00044632,0.002082825,0,
00:04.0,0.001647949,0.000440598,0.002082825,0,
00:04.0,0.001710892,0.000434875,0.002094269,0,
00:04.0,0.001688004,0.000440598,0.002105713,0,
00:04.0,0.001647949,0.00044632,0.002117157,0,
00:04.0,0.001670837,0.000434875,0.002111435,0,
00:04.0,0.001659393,0.000434875,0.002088547,0,
00:04.0,0.001619339,0.000434875,0.002082825,0,
00:04.0,0.001630783,0.000434875,0.002077103,0,
00:04.0,0.001722336,0.000440598,0.002099991,0,
00:04.0,0.001756668,0.00044632,0.002082825,0,
00:04.0,0.001682281,0.000434875,0.002105713,0,
00:00:04,0.001665115,0.000423431,0.002105713,0,
00:04.0,0.00173378,0.000429153,0.002071381,0,
00:04.0,0.001688004,0.000429153,0.002071381,0,
00:04.0,0.001670837,0.000429153,0.002122879,0,
00:04.0,0.001670837,0.000434875,0.002117157,0,
00:04.0,0.001670837,0.000434875,0.002105713,0,
00:04.0,0.001688004,0.00044632,0.002099991,0,
00:04.0,0.001670837,0.000440598,0.002099991,0,
00:04.0,0.001647949,0.000429153,0.002099991,0,
00:04.0,0.001693726,0.000429153,0.002088547,0,
00:04.0,0.001682281,0.000429153,0.002105713,0,
00:04.0,0.001682281,0.000434875,0.002105713,0,
00:04.0,0.001659393,0.000434875,0.002117157,0,
00:04.1,0.001596451,0.000434875,0.002117157,0,
00:04.1,0.001688004,0.000434875,0.002059937,0,
00:04.1,0.001693726,0.000429153,0.002077103,0,
00:04.1,0.001682281,0.000429153,0.002111435,0,
00:04.1,0.001682281,0.000434875,0.002111435,0,
00:04.1,0.001682281,0.000429153,0.002099991,0,
00:04.1,0.001607895,0.000423431,0.002105713,0,
00:04.1,0.001653671,0.000423431,0.002122879,0,
00:04.1,0.001699448,0.000429153,0.002105713,0,
00:04.1,0.001676559,0.000434875,0.002117157,0,
00:04.1,0.001676559,0.000429153,0.002111435,0,
00:04.1,0.001693726,0.000423431,0.002082825,0,
00:04.1,0.001699448,0.000423431,0.002094269,0,
00:04.1,0.001676559,0.000423431,0.002111435,0,
00:04.1,0.001688004,0.000423431,0.002111435,0,
00:04.1,0.001682281,0.000423431,0.002094269,0,
00:04.1,0.001642227,0.000417709,0.002094269,0,
00:04.1,0.001647949,0.000417709,0.002117157,0,
00:04.1,0.001688004,0.000423431,0.002117157,0,
00:04.1,0.001693726,0.000423431,0.002111435,0,
00:04.1,0.001676559,0.000429153,0.002111435,0,
00:04.1,0.001659393,0.000417709,0.002117157,0,
00:04.1,0.001659393,0.000417709,0.002094269,0,
00:04.1,0.001647949,0.000423431,0.002099991,0,
00:04.1,0.001619339,0.000423431,0.002117157,0,
00:04.2,0.001636505,0.000411987,0.002105713,0,
00:04.2,0.001688004,0.000417709,0.002117157,0,
00:04.2,0.00170517,0.000417709,0.002099991,0,
00:04.2,0.001699448,0.000417709,0.002111435,0,
00:04.2,0.001665115,0.000417709,0.002099991,0,
00:04.2,0.001676559,0.000417709,0.002105713,0,
00:04.2,0.001625061,0.000423431,0.002134323,0,
00:04.2,0.001585007,0.000417709,0.002105713,0,
00:04.2,0.001710892,0.000417709,0.002094269,0,
00:04.2,0.00170517,0.000417709,0.002122879,0,
00:04.2,0.001693726,0.000411987,0.002099991,0,
00:04.2,0.001676559,0.000411987,0.002122879,0,
00:04.2,0.001682281,0.000411987,0.002122879,0,
00:04.2,0.001699448,0.000417709,0.002111435,0,
00:04.2,0.001653671,0.000411987,0.002105713,0,
00:04.2,0.001636505,0.000411987,0.002122879,0,
00:04.2,0.001670837,0.000411987,0.002111435,0,
00:04.2,0.001659393,0.000411987,0.002111435,0,
00:04.2,0.001682281,0.000417709,0.002111435,0,
00:04.2,0.001670837,0.000411987,0.002111435,0,
00:04.2,0.001682281,0.000411987,0.002105713,0,
00:04.2,0.001659393,0.000406265,0.002117157,0,
00:04.2,0.001665115,0.000406265,0.002122879,0,
00:04.2,0.001659393,0.000411987,0.002117157,0,
00:04.2,0.001613617,0.000411987,0.002117157,0,
00:04.3,0.001562119,0.000406265,0.002134323,0,
00:04.3,0.001676559,0.000423431,0.002077103,0,
00:04.3,0.00176239,0.000411987,0.002088547,0,
00:04.3,0.00170517,0.000400543,0.002140045,0,
00:04.3,0.001665115,0.000400543,0.002128601,0,
00:04.3,0.001647949,0.000400543,0.002128601,0,
00:04.3,0.001688004,0.000411987,0.002117157,0,
00:04.3,0.001676559,0.000411987,0.002134323,0,
00:04.3,0.001636505,0.000406265,0.002134323,0,
00:04.3,0.001676559,0.000411987,0.002082825,0,
00:04.3,0.001659393,0.000400543,0.002099991,0,
00:04.3,0.001670837,0.000400543,0.002145767,0,
00:04.3,0.001670837,0.000406265,0.002151489,0,
00:04.3,0.001682281,0.000406265,0.002140045,0,
00:04.3,0.001670837,0.000406265,0.002134323,0,
00:04.3,0.001670837,0.000406265,0.002128601,0,
00:04.3,0.001665115,0.000411987,0.002128601,0,
00:04.3,0.001625061,0.000406265,0.002168655,0,
00:04.3,0.001676559,0.000406265,0.002088547,0,
00:04.3,0.001642227,0.000406265,0.002111435,0,
00:04.3,0.001596451,0.000406265,0.002151489,0,
00:04.3,0.001710892,0.000406265,0.002134323,0,
00:04.3,0.001676559,0.000394821,0.002128601,0,
00:04.3,0.001693726,0.000406265,0.002134323,0,
00:04.3,0.001699448,0.000400543,0.002128601,0,
00:04.4,0.001676559,0.000400543,0.002117157,0,
00:04.4,0.001665115,0.000406265,0.002094269,0,
00:04.4,0.001625061,0.000400543,0.002128601,0,
00:04.4,0.001636505,0.000400543,0.002122879,0,
00:04.4,0.001653671,0.000400543,0.002145767,0,
00:04.4,0.001699448,0.000389099,0.002082825,0,
00:04.4,0.001665115,0.000394821,0.002134323,0,
00:04.4,0.001619339,0.000389099,0.002174377,0,
00:04.4,0.001688004,0.000394821,0.002151489,0,
00:04.4,0.001693726,0.000406265,0.002134323,0,
00:04.4,0.001688004,0.000400543,0.002134323,0,
00:04.4,0.001693726,0.000400543,0.002140045,0,
00:04.4,0.001670837,0.000400543,0.002140045,0,
00:04.4,0.001653671,0.000400543,0.002157211,0,
00:04.4,0.001659393,0.000394821,0.002157211,0,
00:04.4,0.001619339,0.000400543,0.002157211,0,
00:04.4,0.001647949,0.000389099,0.002140045,0,
00:04.4,0.001670837,0.000389099,0.002151489,0,
00:04.4,0.001676559,0.000400543,0.002140045,0,
00:04.4,0.001676559,0.000400543,0.002140045,0,
00:04.4,0.001676559,0.000400543,0.002140045,0,
00:04.4,0.001653671,0.000389099,0.002151489,0,
00:04.4,0.001647949,0.000389099,0.002180099,0,
00:04.4,0.001659393,0.000400543,0.002145767,0,
00:04.4,0.001619339,0.000394821,0.002151489,0,
00:04.5,0.001613617,0.000400543,0.002157211,0,
00:04.5,0.001642227,0.000394821,0.002122879,0,
00:04.5,0.001699448,0.000394821,0.002117157,0,
00:04.5,0.00170517,0.000389099,0.002117157,0,
00:04.5,0.001665115,0.000400543,0.002157211,0,
00:04.5,0.001659393,0.000394821,0.002202988,0,
00:04.5,0.001682281,0.000394821,0.002180099,0,
00:04.5,0.001665115,0.000394821,0.002157211,0,
00:04.5,0.001665115,0.000394821,0.002168655,0,
00:04.5,0.001688004,0.000394821,0.002151489,0,
00:04.5,0.001625061,0.000389099,0.002168655,0,
00:04.5,0.001619339,0.000389099,0.002185822,0,
00:04.5,0.001665115,0.000389099,0.002134323,0,
00:04.5,0.001670837,0.000400543,0.002140045,0,
00:04.5,0.001682281,0.000400543,0.002174377,0,
00:04.5,0.001670837,0.000394821,0.002162933,0,
00:04.5,0.001659393,0.000394821,0.002145767,0,
00:04.5,0.001630783,0.000389099,0.002145767,0,
00:04.5,0.001653671,0.000389099,0.002185822,0,
00:04.5,0.001670837,0.000389099,0.002162933,0,
00:04.5,0.001653671,0.000394821,0.002157211,0,
00:04.5,0.001619339,0.000389099,0.002185822,0,
00:04.5,0.001642227,0.000383377,0.002180099,0,
00:04.5,0.001670837,0.000389099,0.002145767,0,
00:04.5,0.001682281,0.000389099,0.002168655,0,
00:04.6,0.001676559,0.000389099,0.002168655,0,
00:04.6,0.001642227,0.000383377,0.002157211,0,
00:04.6,0.001630783,0.000389099,0.002168655,0,
00:04.6,0.001665115,0.000389099,0.002145767,0,
00:04.6,0.001670837,0.000389099,0.002122879,0,
00:04.6,0.001630783,0.000389099,0.002134323,0,
00:04.6,0.001642227,0.000389099,0.002180099,0,
00:04.6,0.001659393,0.000389099,0.002197266,0,
00:04.6,0.001647949,0.000394821,0.002185822,0,
00:04.6,0.001659393,0.000394821,0.002174377,0,
00:04.6,0.001670837,0.000377655,0.002180099,0,
00:04.6,0.001693726,0.000383377,0.002162933,0,
00:04.6,0.001647949,0.000389099,0.002157211,0,
00:04.6,0.001619339,0.000400543,0.002168655,0,
00:04.6,0.001659393,0.000383377,0.002162933,0,
00:04.6,0.001642227,0.000371933,0.002180099,0,
00:04.6,0.001659393,0.000371933,0.002168655,0,
00:04.6,0.001676559,0.000383377,0.002180099,0,
00:04.6,0.001665115,0.000377655,0.002174377,0,
00:04.6,0.001670837,0.000389099,0.002174377,0,
00:04.6,0.001642227,0.000383377,0.002162933,0,
00:04.6,0.001647949,0.000383377,0.002162933,0,
00:04.6,0.001665115,0.000383377,0.002157211,0,
00:04.6,0.001642227,0.000389099,0.002151489,0,
00:04.6,0.001642227,0.000389099,0.002140045,0,
00:04.7,0.001670837,0.000389099,0.002157211,0,
00:04.7,0.001688004,0.000377655,0.002180099,0,
00:04.7,0.001619339,0.000377655,0.002197266,0,
00:04.7,0.001636505,0.000389099,0.00220871,0,
00:04.7,0.001670837,0.000389099,0.002174377,0,
00:04.7,0.001676559,0.000383377,0.002145767,0,
00:04.7,0.001688004,0.000389099,0.002151489,0,
00:04.7,0.001590729,0.000383377,0.002180099,0,
00:04.7,0.001573563,0.000377655,0.002214432,0,
00:04.7,0.001659393,0.000377655,0.002180099,0,
00:04.7,0.001653671,0.000371933,0.002174377,0,
00:04.7,0.001659393,0.000377655,0.002151489,0,
00:04.7,0.001670837,0.000383377,0.002157211,0,
00:04.7,0.001670837,0.000377655,0.002191544,0,
00:04.7,0.001630783,0.000383377,0.002191544,0,
00:04.7,0.001659393,0.000383377,0.002168655,0,
00:04.7,0.001676559,0.000383377,0.002180099,0,
00:04.7,0.001642227,0.000389099,0.002185822,0,
00:04.7,0.001527786,0.000377655,0.00223732,0,
00:04.7,0.001636505,0.000371933,0.002174377,0,
00:04.7,0.001647949,0.000371933,0.002168655,0,
00:04.7,0.001682281,0.000371933,0.002157211,0,
00:04.7,0.001636505,0.000371933,0.002191544,0,
00:04.7,0.001688004,0.000377655,0.002197266,0,
00:04.7,0.001665115,0.000377655,0.002180099,0,
00:04.8,0.001642227,0.000371933,0.002180099,0,
00:04.8,0.001659393,0.000383377,0.002145767,0,
00:04.8,0.001659393,0.000389099,0.002162933,0,
00:04.8,0.001665115,0.000377655,0.002202988,0,
00:04.8,0.001688004,0.000377655,0.002185822,0,
00:04.8,0.001630783,0.000371933,0.002168655,0,
00:04.8,0.001602173,0.000366211,0.002197266,0,
00:04.8,0.001665115,0.000383377,0.002174377,0,
00:04.8,0.001665115,0.000377655,0.002185822,0,
00:04.8,0.001647949,0.000366211,0.00220871,0,
00:04.8,0.001636505,0.000371933,0.002191544,0,
00:04.8,0.001607895,0.000366211,0.002174377,0,
00:04.8,0.001647949,0.000371933,0.002197266,0,
00:04.8,0.001619339,0.000371933,0.002202988,0,
00:04.8,0.001613617,0.000371933,0.00220871,0,
00:04.8,0.001642227,0.000371933,0.002191544,0,
00:04.8,0.001676559,0.000366211,0.002180099,0,
00:04.8,0.001665115,0.000366211,0.002174377,0,
00:04.8,0.001653671,0.000371933,0.002180099,0,
00:04.8,0.001642227,0.000371933,0.002191544,0,
00:04.8,0.001630783,0.000371933,0.002202988,0,
00:04.8,0.001642227,0.000371933,0.002202988,0,
00:04.8,0.001642227,0.000366211,0.002214432,0,
00:04.8,0.001676559,0.000371933,0.002185822,0,
00:04.8,0.001665115,0.000371933,0.002180099,0,
00:04.9,0.001653671,0.000366211,0.002197266,0,
00:04.9,0.001665115,0.000366211,0.002202988,0,
00:04.9,0.001665115,0.000366211,0.002202988,0,
00:04.9,0.001607895,0.000366211,0.002214432,0,
00:04.9,0.001636505,0.000371933,0.002202988,0,
00:04.9,0.001630783,0.000360489,0.002202988,0,
00:04.9,0.001642227,0.000360489,0.002191544,0,
00:04.9,0.001653671,0.000366211,0.002191544,0,
00:04.9,0.001630783,0.000371933,0.002197266,0,
00:04.9,0.001642227,0.000371933,0.002174377,0,
00:04.9,0.001619339,0.000377655,0.002197266,0,
00:04.9,0.001647949,0.000366211,0.002197266,0,
00:04.9,0.001665115,0.000366211,0.002231598,0,
00:04.9,0.001602173,0.000360489,0.002231598,0,
00:04.9,0.001665115,0.000366211,0.00220871,0,
00:04.9,0.001676559,0.000371933,0.002202988,0,
00:04.9,0.001636505,0.000354767,0.002197266,0,
00:04.9,0.001636505,0.000360489,0.002202988,0,
00:04.9,0.001625061,0.000371933,0.002220154,0,
00:04.9,0.001647949,0.000371933,0.002197266,0,
00:04.9,0.001653671,0.000360489,0.002168655,0,
00:04.9,0.001676559,0.000349045,0.002202988,0,
00:04.9,0.001653671,0.000349045,0.00223732,0,
00:04.9,0.001642227,0.000354767,0.002214432,0,
00:04.9,0.001630783,0.000360489,0.002214432,0,
00:05.0,0.001630783,0.000366211,0.002231598,0,
00:05.0,0.001659393,0.000360489,0.00220871,0,
00:05.0,0.001659393,0.000354767,0.002202988,0,
00:05.0,0.001642227,0.000360489,0.002214432,0,
00:05.0,0.001630783,0.000360489,0.00220871,0,
00:05.0,0.001647949,0.000360489,0.00220871,0,
00:05.0,0.001659393,0.000354767,0.00220871,0,
00:05.0,0.001642227,0.000360489,0.002225876,0,
00:05.0,0.001625061,0.000349045,0.00220871,0,
00:05.0,0.001602173,0.000354767,0.002202988,0,
00:05.0,0.001659393,0.000360489,0.00220871,0,
00:05.0,0.001670837,0.000349045,0.002220154,0,
00:00:05,0.001676559,0.000354767,0.002225876,0,
00:05.0,0.001647949,0.000360489,0.00220871,0,
00:05.0,0.001585007,0.000349045,0.002220154,0,
00:05.0,0.001573563,0.000354767,0.002225876,0,
00:05.0,0.001636505,0.000366211,0.002185822,0,
00:05.0,0.001665115,0.000349045,0.002225876,0,
00:05.0,0.001682281,0.000354767,0.002231598,0,
00:05.0,0.001659393,0.000349045,0.002225876,0,
00:05.0,0.001647949,0.000354767,0.00223732,0,
00:05.0,0.001659393,0.000349045,0.002220154,0,
00:05.0,0.001647949,0.000354767,0.002220154,0,
00:05.0,0.001642227,0.000354767,0.002214432,0,
00:05.0,0.001590729,0.000354767,0.002225876,0,
00:05.1,0.001596451,0.000371933,0.002214432,0,
00:05.1,0.001636505,0.000360489,0.002185822,0,
00:05.1,0.001665115,0.000343323,0.002220154,0,
00:05.1,0.001676559,0.000343323,0.002243042,0,
00:05.1,0.001619339,0.000343323,0.002225876,0,
00:05.1,0.001642227,0.000343323,0.002231598,0,
00:05.1,0.001659393,0.000343323,0.002225876,0,
00:05.1,0.001642227,0.000343323,0.002220154,0,
00:05.1,0.001630783,0.000349045,0.002220154,0,
00:05.1,0.001659393,0.000360489,0.002191544,0,
00:05.1,0.001636505,0.000354767,0.002214432,0,
00:05.1,0.001562119,0.000337601,0.002248764,0,
00:05.1,0.00153923,0.000326157,0.00223732,0,
00:05.1,0.001676559,0.000349045,0.002220154,0,
00:05.1,0.001613617,0.000343323,0.00223732,0,
00:05.1,0.001688004,0.000349045,0.002214432,0,
00:05.1,0.001659393,0.000337601,0.00223732,0,
00:05.1,0.001642227,0.000343323,0.002243042,0,
00:05.1,0.001670837,0.000349045,0.002214432,0,
00:05.1,0.001653671,0.000349045,0.002197266,0,
00:05.1,0.001625061,0.000343323,0.002225876,0,
00:05.1,0.001585007,0.000349045,0.002220154,0,
00:05.1,0.001527786,0.000337601,0.002260208,0,
00:05.1,0.001670837,0.000349045,0.002202988,0,
00:05.1,0.001699448,0.000337601,0.002185822,0,
00:05.2,0.001682281,0.000337601,0.002231598,0,
00:05.2,0.001647949,0.000337601,0.002231598,0,
00:05.2,0.001636505,0.000343323,0.002225876,0,
00:05.2,0.001636505,0.000343323,0.002220154,0,
00:05.2,0.001619339,0.000337601,0.002225876,0,
00:05.2,0.001636505,0.000337601,0.002202988,0,
00:05.2,0.001625061,0.000337601,0.002214432,0,
00:05.2,0.001619339,0.000331879,0.002220154,0,
00:05.2,0.001659393,0.000331879,0.002243042,0,
00:05.2,0.001647949,0.000326157,0.002231598,0,
00:05.2,0.001647949,0.000326157,0.002220154,0,
00:05.2,0.001642227,0.000326157,0.002220154,0,
00:05.2,0.001613617,0.000337601,0.00220871,0,
00:05.2,0.001573563,0.000331879,0.002254486,0,
00:05.2,0.001642227,0.000331879,0.002191544,0,
00:05.2,0.001676559,0.000337601,0.002220154,0,
00:05.2,0.001642227,0.000314713,0.002243042,0,
00:05.2,0.001619339,0.000320435,0.00223732,0,
00:05.2,0.001562119,0.000326157,0.002260208,0,
00:05.2,0.001659393,0.000331879,0.002197266,0,
00:05.2,0.001676559,0.000337601,0.002191544,0,
00:05.2,0.001625061,0.000331879,0.002197266,0,
00:05.2,0.001613617,0.000326157,0.002202988,0,
00:05.2,0.001647949,0.000314713,0.002254486,0,
00:05.2,0.001619339,0.000326157,0.002231598,0,
00:05.3,0.001647949,0.000326157,0.00223732,0,
00:05.3,0.001665115,0.000326157,0.002220154,0,
00:05.3,0.001636505,0.000320435,0.002220154,0,
00:05.3,0.001636505,0.000326157,0.002220154,0,
00:05.3,0.001585007,0.000314713,0.00223732,0,
00:05.3,0.001613617,0.000320435,0.002202988,0,
00:05.3,0.001676559,0.000326157,0.002214432,0,
00:05.3,0.001665115,0.000326157,0.00220871,0,
00:05.3,0.001613617,0.000320435,0.002225876,0,
00:05.3,0.001619339,0.000326157,0.002231598,0,
00:05.3,0.001556396,0.000320435,0.002248764,0,
00:05.3,0.001653671,0.000326157,0.00220871,0,
00:05.3,0.001693726,0.000331879,0.002231598,0,
00:05.3,0.001642227,0.000314713,0.00223732,0,
00:05.3,0.001607895,0.00030899,0.00223732,0,
00:05.3,0.001630783,0.000314713,0.002220154,0,
00:05.3,0.001625061,0.000320435,0.00220871,0,
00:05.3,0.001567841,0.000314713,0.002248764,0,
00:05.3,0.001636505,0.000326157,0.002220154,0,
00:05.3,0.001682281,0.000331879,0.002197266,0,
00:05.3,0.001642227,0.000320435,0.002231598,0,
00:05.3,0.001619339,0.000320435,0.002225876,0,
00:05.3,0.001585007,0.00030899,0.00223732,0,
00:05.3,0.001670837,0.000314713,0.00223732,0,
00:05.3,0.001647949,0.00030899,0.00223732,0,
00:05.4,0.001659393,0.000314713,0.002214432,0,
00:05.4,0.001642227,0.000331879,0.002191544,0,
00:05.4,0.001596451,0.000314713,0.002220154,0,
00:05.4,0.001607895,0.00030899,0.00226593,0,
00:05.4,0.001642227,0.000320435,0.00223732,0,
00:05.4,0.001636505,0.000320435,0.002197266,0,
00:05.4,0.001613617,0.00030899,0.002220154,0,
00:05.4,0.001607895,0.000297546,0.002283096,0,
00:05.4,0.001590729,0.00030899,0.002271652,0,
00:05.4,0.001659393,0.000314713,0.002185822,0,
00:05.4,0.001659393,0.000320435,0.002191544,0,
00:05.4,0.001642227,0.00030899,0.002231598,0,
00:05.4,0.001630783,0.000303268,0.002243042,0,
00:05.4,0.001636505,0.00030899,0.002243042,0,
00:05.4,0.001613617,0.00030899,0.002225876,0,
00:05.4,0.001619339,0.000314713,0.002220154,0,
00:05.4,0.001647949,0.000303268,0.002225876,0,
00:05.4,0.001647949,0.00030899,0.002220154,0,
00:05.4,0.001607895,0.00030899,0.002214432,0,
00:05.4,0.001585007,0.000303268,0.00223732,0,
00:05.4,0.001653671,0.000297546,0.002248764,0,
00:05.4,0.001619339,0.000303268,0.002248764,0,
00:05.4,0.001579285,0.000303268,0.002254486,0,
00:05.4,0.001653671,0.00030899,0.002220154,0,
00:05.4,0.001676559,0.000314713,0.002231598,0,
00:05.5,0.001636505,0.000314713,0.00223732,0,
00:05.5,0.001659393,0.00030899,0.002185822,0,
00:05.5,0.001625061,0.000303268,0.00220871,0,
00:05.5,0.001602173,0.000303268,0.002231598,0,
00:05.5,0.001613617,0.000303268,0.002254486,0,
00:05.5,0.001613617,0.000297546,0.002243042,0,
00:05.5,0.001630783,0.000303268,0.002220154,0,
00:05.5,0.001636505,0.000303268,0.002231598,0,
00:05.5,0.001607895,0.000297546,0.002277374,0,
00:05.5,0.001630783,0.00030899,0.002225876,0,
00:05.5,0.001653671,0.00030899,0.00220871,0,
00:05.5,0.001625061,0.000297546,0.002231598,0,
00:05.5,0.001619339,0.000297546,0.002248764,0,
00:05.5,0.001630783,0.000297546,0.002231598,0,
00:05.5,0.001613617,0.00030899,0.002231598,0,
00:05.5,0.001556396,0.000297546,0.00220871,0,
00:05.5,0.001602173,0.000297546,0.00223732,0,
00:05.5,0.001659393,0.000297546,0.002271652,0,
00:05.5,0.001699448,0.00030899,0.00223732,0,
00:05.5,0.001602173,0.000303268,0.002248764,0,
00:05.5,0.001516342,0.000297546,0.002288818,0,
00:05.5,0.001630783,0.000303268,0.002197266,0,
00:05.5,0.001699448,0.000291824,0.002214432,0,
00:05.5,0.001688004,0.000297546,0.002231598,0,
00:05.5,0.001625061,0.000291824,0.002260208,0,
00:05.6,0.001625061,0.000297546,0.002248764,0,
00:05.6,0.001625061,0.000297546,0.00223732,0,
00:05.6,0.001607895,0.000297546,0.002254486,0,
00:05.6,0.001625061,0.000297546,0.002260208,0,
00:05.6,0.001619339,0.000297546,0.00223732,0,
00:05.6,0.001653671,0.00030899,0.002220154,0,
00:05.6,0.001670837,0.00030899,0.002220154,0,
00:05.6,0.001613617,0.000286102,0.00223732,0,
00:05.6,0.001585007,0.000286102,0.002254486,0,
00:05.6,0.001625061,0.000291824,0.00223732,0,
00:05.6,0.001602173,0.000291824,0.002248764,0,
00:05.6,0.001665115,0.000297546,0.002231598,0,
00:05.6,0.001659393,0.000297546,0.002225876,0,
00:05.6,0.001636505,0.000303268,0.002231598,0,
00:05.6,0.001647949,0.000297546,0.002260208,0,
00:05.6,0.001607895,0.000291824,0.002277374,0,
00:05.6,0.001544952,0.00028038,0.002260208,0,
00:05.6,0.001619339,0.000297546,0.002231598,0,
00:05.6,0.001699448,0.000297546,0.00220871,0,
00:05.6,0.001682281,0.00028038,0.002202988,0,
00:05.6,0.001647949,0.000286102,0.002231598,0,
00:05.6,0.001607895,0.000291824,0.00226593,0,
00:05.6,0.001573563,0.000291824,0.002260208,0,
00:05.6,0.001567841,0.000286102,0.00226593,0,
00:05.6,0.001659393,0.000286102,0.002254486,0,
00:05.7,0.001693726,0.000297546,0.00223732,0,
00:05.7,0.001670837,0.000291824,0.002225876,0,
00:05.7,0.001647949,0.000291824,0.002254486,0,
00:05.7,0.001636505,0.000297546,0.002271652,0,
00:05.7,0.001596451,0.000291824,0.002231598,0,
00:05.7,0.001642227,0.000286102,0.002225876,0,
00:05.7,0.001653671,0.000291824,0.002271652,0,
00:05.7,0.001613617,0.000291824,0.002271652,0,
00:05.7,0.001613617,0.000291824,0.002277374,0,
00:05.7,0.001636505,0.000297546,0.002254486,0,
00:05.7,0.001670837,0.000297546,0.002202988,0,
00:05.7,0.001647949,0.000291824,0.002225876,0,
00:05.7,0.001642227,0.000286102,0.00223732,0,
00:05.7,0.001590729,0.000286102,0.002271652,0,
00:05.7,0.001579285,0.00028038,0.002248764,0,
00:05.7,0.001653671,0.000286102,0.002231598,0,
00:05.7,0.001573563,0.000286102,0.00223732,0,
00:05.7,0.001636505,0.000291824,0.002248764,0,
00:05.7,0.001716614,0.000291824,0.002260208,0,
00:05.7,0.001647949,0.00028038,0.002254486,0,
00:05.7,0.001619339,0.000286102,0.002254486,0,
00:05.7,0.001602173,0.00028038,0.002260208,0,
00:05.7,0.001636505,0.000286102,0.002271652,0,
00:05.7,0.001659393,0.000286102,0.00223732,0,
00:05.7,0.001647949,0.000286102,0.00223732,0,
00:05.8,0.001625061,0.000274658,0.002248764,0,
00:05.8,0.001647949,0.00028038,0.002220154,0,
00:05.8,0.001642227,0.000286102,0.002225876,0,
00:05.8,0.001636505,0.000286102,0.002248764,0,
00:05.8,0.001642227,0.000286102,0.002254486,0,
00:05.8,0.001636505,0.00028038,0.002254486,0,
00:05.8,0.001625061,0.000286102,0.002248764,0,
00:05.8,0.001556396,0.000274658,0.002300262,0,
00:05.8,0.001653671,0.000274658,0.00223732,0,
00:05.8,0.001676559,0.000286102,0.002231598,0,
00:05.8,0.001613617,0.000286102,0.002231598,0,
00:05.8,0.001567841,0.000286102,0.002260208,0,
00:05.8,0.001642227,0.000291824,0.002231598,0,
00:05.8,0.001619339,0.000286102,0.002260208,0,
00:05.8,0.001670837,0.00028038,0.002243042,0,
00:05.8,0.001670837,0.00028038,0.002248764,0,
00:05.8,0.001642227,0.00028038,0.002248764,0,
00:05.8,0.001665115,0.000286102,0.002214432,0,
00:05.8,0.001647949,0.00028038,0.002243042,0,
00:05.8,0.001625061,0.000274658,0.002271652,0,
00:05.8,0.001630783,0.00028038,0.002248764,0,
00:05.8,0.001653671,0.00028038,0.002248764,0,
00:05.8,0.001642227,0.000286102,0.002243042,0,
00:05.8,0.001647949,0.00028038,0.002231598,0,
00:05.8,0.001642227,0.00028038,0.00223732,0,
00:05.9,0.001647949,0.00028038,0.002248764,0,
00:05.9,0.001642227,0.000274658,0.002231598,0,
00:05.9,0.001630783,0.000274658,0.002231598,0,
00:05.9,0.001630783,0.00028038,0.002300262,0,
00:05.9,0.001625061,0.000286102,0.00226593,0,
00:05.9,0.001642227,0.00028038,0.002248764,0,
00:05.9,0.001647949,0.000274658,0.002243042,0,
00:05.9,0.001665115,0.00028038,0.002220154,0,
00:05.9,0.001625061,0.000286102,0.00220871,0,
00:05.9,0.001544952,0.00028038,0.002214432,0,
00:05.9,0.001636505,0.000286102,0.002248764,0,
00:05.9,0.001722336,0.000274658,0.002254486,0,
00:05.9,0.001682281,0.000268936,0.002243042,0,
00:05.9,0.001665115,0.00028038,0.002243042,0,
00:05.9,0.001636505,0.000274658,0.00226593,0,
00:05.9,0.001642227,0.000274658,0.002254486,0,
00:05.9,0.001625061,0.000268936,0.002248764,0,
00:05.9,0.001676559,0.000286102,0.002202988,0,
00:05.9,0.001619339,0.000274658,0.002243042,0,
00:05.9,0.001619339,0.000268936,0.002260208,0,
00:05.9,0.001619339,0.000274658,0.002277374,0,
00:05.9,0.001653671,0.000268936,0.002260208,0,
00:05.9,0.001653671,0.000268936,0.002248764,0,
00:05.9,0.001653671,0.000274658,0.002243042,0,
00:05.9,0.001653671,0.000274658,0.002243042,0,
00:06.0,0.001613617,0.000274658,0.002254486,0,
00:06.0,0.001613617,0.000268936,0.002202988,0,
00:06.0,0.001670837,0.000291824,0.002191544,0,
00:06.0,0.001625061,0.00028038,0.00226593,0,
00:06.0,0.001670837,0.000263214,0.00226593,0,
00:06.0,0.001647949,0.000268936,0.002260208,0,
00:06.0,0.001647949,0.000268936,0.00223732,0,
00:06.0,0.001625061,0.000263214,0.00226593,0,
00:06.0,0.001647949,0.000268936,0.002254486,0,
00:06.0,0.001642227,0.00028038,0.002231598,0,
00:06.0,0.001607895,0.00028038,0.002225876,0,
00:06.0,0.001676559,0.00028038,0.002243042,0,
00:00:06,0.001699448,0.000274658,0.002271652,0,
00:06.0,0.001636505,0.000263214,0.002248764,0,
00:06.0,0.001647949,0.000268936,0.002225876,0,
00:06.0,0.001647949,0.000268936,0.002260208,0,
00:06.0,0.001647949,0.000268936,0.002243042,0,
00:06.0,0.001647949,0.000263214,0.002243042,0,
00:06.0,0.001630783,0.000268936,0.00226593,0,
00:06.0,0.001590729,0.00028038,0.002254486,0,
00:06.0,0.001579285,0.000268936,0.00223732,0,
00:06.0,0.001665115,0.00028038,0.002231598,0,
00:06.0,0.001693726,0.000268936,0.002243042,0,
00:06.0,0.001676559,0.000263214,0.002260208,0,
00:06.0,0.001670837,0.000268936,0.002231598,0,
00:06.1,0.001659393,0.000268936,0.00223732,0,
00:06.1,0.001625061,0.000268936,0.002248764,0,
00:06.1,0.001607895,0.000263214,0.002231598,0,
00:06.1,0.001647949,0.000268936,0.002243042,0,
00:06.1,0.001699448,0.000274658,0.00223732,0,
00:06.1,0.001665115,0.00028038,0.002231598,0,
00:06.1,0.001647949,0.000274658,0.002214432,0,
00:06.1,0.001630783,0.000263214,0.002254486,0,
00:06.1,0.001659393,0.000268936,0.00226593,0,
00:06.1,0.001665115,0.000263214,0.002243042,0,
00:06.1,0.001665115,0.000263214,0.002231598,0,
00:06.1,0.001630783,0.000268936,0.002243042,0,
00:06.1,0.001642227,0.000268936,0.002243042,0,
00:06.1,0.001676559,0.000268936,0.002231598,0,
00:06.1,0.001653671,0.000263214,0.002225876,0,
00:06.1,0.001659393,0.000268936,0.002260208,0,
00:06.1,0.001630783,0.000263214,0.002248764,0,
00:06.1,0.001596451,0.000268936,0.002243042,0,
00:06.1,0.001653671,0.000268936,0.002220154,0,
00:06.1,0.001636505,0.000268936,0.002243042,0,
00:06.1,0.001619339,0.000268936,0.002254486,0,
00:06.1,0.001665115,0.000268936,0.002220154,0,
00:06.1,0.001665115,0.000268936,0.002231598,0,
00:06.1,0.001682281,0.000263214,0.002248764,0,
00:06.1,0.001665115,0.000263214,0.002214432,0,
00:06.2,0.001613617,0.000263214,0.002243042,0,
00:06.2,0.001659393,0.000268936,0.002243042,0,
00:06.2,0.001665115,0.000263214,0.002260208,0,
00:06.2,0.001653671,0.000263214,0.002231598,0,
00:06.2,0.001676559,0.000268936,0.00223732,0,
00:06.2,0.001676559,0.000268936,0.002248764,0,
00:06.2,0.001647949,0.000257492,0.002243042,0,
00:06.2,0.001625061,0.000263214,0.002243042,0,
00:06.2,0.001625061,0.000263214,0.002231598,0,
00:06.2,0.001636505,0.000268936,0.00226593,0,
00:06.2,0.001625061,0.000257492,0.00223732,0,
00:06.2,0.001642227,0.000263214,0.002277374,0,
00:06.2,0.001653671,0.000257492,0.00223732,0,
00:06.2,0.001619339,0.000263214,0.002231598,0,
00:06.2,0.001625061,0.000274658,0.002214432,0,
00:06.2,0.001722336,0.000263214,0.002202988,0,
00:06.2,0.001693726,0.000263214,0.002231598,0,
00:06.2,0.001647949,0.000257492,0.002254486,0,
00:06.2,0.001619339,0.00025177,0.002277374,0,
00:06.2,0.001670837,0.000268936,0.002248764,0,
00:06.2,0.001682281,0.000268936,0.002231598,0,
00:06.2,0.001659393,0.000257492,0.002243042,0,
00:06.2,0.001653671,0.000263214,0.002231598,0,
00:06.2,0.001625061,0.000268936,0.002248764,0,
00:06.2,0.001642227,0.000263214,0.002248764,0,
00:06.3,0.001670837,0.000257492,0.002214432,0,
00:06.3,0.001659393,0.000263214,0.00223732,0,
00:06.3,0.001653671,0.000263214,0.002248764,0,
00:06.3,0.001653671,0.000263214,0.00223732,0,
00:06.3,0.001647949,0.000263214,0.002231598,0,
00:06.3,0.001630783,0.000263214,0.002260208,0,
00:06.3,0.001613617,0.000257492,0.002248764,0,
00:06.3,0.001653671,0.000257492,0.002231598,0,
00:06.3,0.001670837,0.000263214,0.002243042,0,
00:06.3,0.001647949,0.000257492,0.002243042,0,
00:06.3,0.001659393,0.000257492,0.002214432,0,
00:06.3,0.001653671,0.000263214,0.002214432,0,
00:06.3,0.001699448,0.000257492,0.002220154,0,
00:06.3,0.001642227,0.000263214,0.002243042,0,
00:06.3,0.001625061,0.000263214,0.002271652,0,
00:06.3,0.001670837,0.000257492,0.00223732,0,
00:06.3,0.001659393,0.000257492,0.002231598,0,
00:06.3,0.001693726,0.000263214,0.002231598,0,
00:06.3,0.001659393,0.000257492,0.002243042,0,
00:06.3,0.001613617,0.000257492,0.002254486,0,
00:06.3,0.001625061,0.000263214,0.002254486,0,
00:06.3,0.001630783,0.00025177,0.002254486,0,
00:06.3,0.001670837,0.000257492,0.002254486,0,
00:06.3,0.001688004,0.000263214,0.002225876,0,
00:06.3,0.001670837,0.000263214,0.00220871,0,
00:06.4,0.001670837,0.000263214,0.002231598,0,
00:06.4,0.001642227,0.00025177,0.002260208,0,
00:06.4,0.001665115,0.000257492,0.00223732,0,
00:06.4,0.001665115,0.000257492,0.002225876,0,
00:06.4,0.001642227,0.00025177,0.00223732,0,
00:06.4,0.001670837,0.000257492,0.002214432,0,
00:06.4,0.001659393,0.000263214,0.002243042,0,
00:06.4,0.001607895,0.000257492,0.002260208,0,
00:06.4,0.001607895,0.00025177,0.002225876,0,
00:06.4,0.001665115,0.00025177,0.00223732,0,
00:06.4,0.001699448,0.000263214,0.00220871,0,
00:06.4,0.001659393,0.00025177,0.002231598,0,
00:06.4,0.001659393,0.000263214,0.002254486,0,
00:06.4,0.001613617,0.000246048,0.00226593,0,
00:06.4,0.001636505,0.000257492,0.002248764,0,
00:06.4,0.001665115,0.00025177,0.002248764,0,
00:06.4,0.001722336,0.00025177,0.002214432,0,
00:06.4,0.001670837,0.000240326,0.002243042,0,
00:06.4,0.001630783,0.00025177,0.00223732,0,
00:06.4,0.001670837,0.00025177,0.00223732,0,
00:06.4,0.001699448,0.00025177,0.002248764,0,
00:06.4,0.001659393,0.00025177,0.002231598,0,
00:06.4,0.001647949,0.00025177,0.002214432,0,
00:06.4,0.001647949,0.000246048,0.002231598,0,
00:06.4,0.001630783,0.00025177,0.00229454,0,
00:06.5,0.001636505,0.000246048,0.00226593,0,
00:06.5,0.001688004,0.00025177,0.002214432,0,
00:06.5,0.001682281,0.000257492,0.002231598,0,
00:06.5,0.001647949,0.000246048,0.002254486,0,
00:06.5,0.001625061,0.000246048,0.00223732,0,
00:06.5,0.001590729,0.00025177,0.002254486,0,
00:06.5,0.001642227,0.00025177,0.002214432,0,
00:06.5,0.001693726,0.000240326,0.002202988,0,
00:06.5,0.001676559,0.000240326,0.002243042,0,
00:06.5,0.001670837,0.00025177,0.002271652,0,
00:06.5,0.001630783,0.000246048,0.00226593,0,
00:06.5,0.001613617,0.000246048,0.002283096,0,
00:06.5,0.001688004,0.000257492,0.00220871,0,
00:06.5,0.001670837,0.000240326,0.00223732,0,
00:06.5,0.001619339,0.000234604,0.002260208,0,
00:06.5,0.001647949,0.00025177,0.00226593,0,
00:06.5,0.001699448,0.000240326,0.002260208,0,
00:06.5,0.001716614,0.000246048,0.002231598,0,
00:06.5,0.001670837,0.000246048,0.002220154,0,
00:06.5,0.001665115,0.00025177,0.00223732,0,
00:06.5,0.001653671,0.000246048,0.002243042,0,
00:06.5,0.001619339,0.000240326,0.002277374,0,
00:06.5,0.001653671,0.000246048,0.002243042,0,
00:06.5,0.001676559,0.00025177,0.002248764,0,
00:06.5,0.001665115,0.000246048,0.002248764,0,
00:06.6,0.001659393,0.000240326,0.002248764,0,
00:06.6,0.001647949,0.000240326,0.00223732,0,
00:06.6,0.001590729,0.00025177,0.00223732,0,
00:06.6,0.001544952,0.000246048,0.002225876,0,
00:06.6,0.001659393,0.000246048,0.002288818,0,
00:06.6,0.001745224,0.00025177,0.002260208,0,
00:06.6,0.001710892,0.000240326,0.002248764,0,
00:06.6,0.001670837,0.000240326,0.00223732,0,
00:06.6,0.001630783,0.000240326,0.002260208,0,
00:06.6,0.001653671,0.000246048,0.002254486,0,
00:06.6,0.001676559,0.00025177,0.002225876,0,
00:06.6,0.001659393,0.000240326,0.002248764,0,
00:06.6,0.001665115,0.000246048,0.002260208,0,
00:06.6,0.001682281,0.00025177,0.002248764,0,
00:06.6,0.001665115,0.000246048,0.002243042,0,
00:06.6,0.001665115,0.000257492,0.002231598,0,
00:06.6,0.001647949,0.000257492,0.002214432,0,
00:06.6,0.001688004,0.000246048,0.00226593,0,
00:06.6,0.001636505,0.000240326,0.002254486,0,
00:06.6,0.001636505,0.000240326,0.002260208,0,
00:06.6,0.001659393,0.000234604,0.002254486,0,
00:06.6,0.001642227,0.000240326,0.002277374,0,
00:06.6,0.001625061,0.000240326,0.002254486,0,
00:06.6,0.001625061,0.000257492,0.00223732,0,
00:06.6,0.001716614,0.000263214,0.002231598,0,
00:06.7,0.001665115,0.000246048,0.002254486,0,
00:06.7,0.001647949,0.000246048,0.002260208,0,
00:06.7,0.001670837,0.000246048,0.002248764,0,
00:06.7,0.001642227,0.000240326,0.002260208,0,
00:06.7,0.001676559,0.000240326,0.002225876,0,
00:06.7,0.001688004,0.000240326,0.002243042,0,
00:06.7,0.001699448,0.000240326,0.002254486,0,
00:06.7,0.001665115,0.000246048,0.002248764,0,
00:06.7,0.001642227,0.000246048,0.00223732,0,
00:06.7,0.001653671,0.000246048,0.002248764,0,
00:06.7,0.001647949,0.000240326,0.00226593,0,
00:06.7,0.001665115,0.000246048,0.002254486,0,
00:06.7,0.001647949,0.000240326,0.002254486,0,
00:06.7,0.001642227,0.000246048,0.002248764,0,
00:06.7,0.001670837,0.000240326,0.002248764,0,
00:06.7,0.001682281,0.000240326,0.002243042,0,
00:06.7,0.001636505,0.000234604,0.002260208,0,
00:06.7,0.001567841,0.00025177,0.002243042,0,
00:06.7,0.001544952,0.000240326,0.002243042,0,
00:06.7,0.001745224,0.000240326,0.002248764,0,
00:06.7,0.001728058,0.000234604,0.002271652,0,
00:06.7,0.001670837,0.000234604,0.002254486,0,
00:06.7,0.001619339,0.000240326,0.002288818,0,
00:06.7,0.001682281,0.000240326,0.002243042,0,
00:06.7,0.001693726,0.000257492,0.002254486,0,
00:06.8,0.001659393,0.000240326,0.00223732,0,
00:06.8,0.001688004,0.000234604,0.00223732,0,
00:06.8,0.001665115,0.000228882,0.002248764,0,
00:06.8,0.001653671,0.000228882,0.002277374,0,
00:06.8,0.001670837,0.000240326,0.002260208,0,
00:06.8,0.001670837,0.000240326,0.002254486,0,
00:06.8,0.001659393,0.000234604,0.002271652,0,
00:06.8,0.001659393,0.000240326,0.002254486,0,
00:06.8,0.001670837,0.000240326,0.002248764,0,
00:06.8,0.001676559,0.000246048,0.002248764,0,
00:06.8,0.001653671,0.000240326,0.002243042,0,
00:06.8,0.001619339,0.000234604,0.002243042,0,
00:06.8,0.001550674,0.000234604,0.002277374,0,
00:06.8,0.001613617,0.000228882,0.00223732,0,
00:06.8,0.001710892,0.000240326,0.002243042,0,
00:06.8,0.00170517,0.000234604,0.002260208,0,
00:06.8,0.001653671,0.000234604,0.002271652,0,
00:06.8,0.001659393,0.000240326,0.002248764,0,
00:06.8,0.001693726,0.000246048,0.002231598,0,
00:06.8,0.001619339,0.000246048,0.00220871,0,
00:06.8,0.001636505,0.000246048,0.002283096,0,
00:06.8,0.001682281,0.000234604,0.00226593,0,
00:06.8,0.001699448,0.000228882,0.002254486,0,
00:06.8,0.001676559,0.000234604,0.002243042,0,
00:06.8,0.001665115,0.000234604,0.002260208,0,
00:06.9,0.001659393,0.000228882,0.002271652,0,
00:06.9,0.001665115,0.000234604,0.002260208,0,
00:06.9,0.001665115,0.000240326,0.002231598,0,
00:06.9,0.001665115,0.000234604,0.002243042,0,
00:06.9,0.001653671,0.000234604,0.002243042,0,
00:06.9,0.001579285,0.000246048,0.002288818,0,
00:06.9,0.001625061,0.000228882,0.002283096,0,
00:06.9,0.001716614,0.000228882,0.002254486,0,
00:06.9,0.001670837,0.000228882,0.002260208,0,
00:06.9,0.001682281,0.000234604,0.002254486,0,
00:06.9,0.001665115,0.000234604,0.002243042,0,
00:06.9,0.001653671,0.000228882,0.002254486,0,
00:06.9,0.001619339,0.000234604,0.002260208,0,
00:06.9,0.001516342,0.000246048,0.002271652,0,
00:06.9,0.001665115,0.000240326,0.002220154,0,
00:06.9,0.001750946,0.000228882,0.00226593,0,
00:06.9,0.001682281,0.00022316,0.002260208,0,
00:06.9,0.001682281,0.000234604,0.002260208,0,
00:06.9,0.001670837,0.000234604,0.002243042,0,
00:06.9,0.001665115,0.000240326,0.002254486,0,
00:06.9,0.001693726,0.000240326,0.002214432,0,
00:06.9,0.001630783,0.000234604,0.00223732,0,
00:06.9,0.001636505,0.00022316,0.002288818,0,
00:06.9,0.001630783,0.000234604,0.002300262,0,
00:06.9,0.001607895,0.00022316,0.002260208,0,
00:07.0,0.001676559,0.000228882,0.002243042,0,
00:07.0,0.001693726,0.000240326,0.002231598,0,
00:07.0,0.001665115,0.000234604,0.00223732,0,
00:07.0,0.001642227,0.000234604,0.002277374,0,
00:07.0,0.001625061,0.000240326,0.002283096,0,
00:07.0,0.001659393,0.000234604,0.002271652,0,
00:07.0,0.001659393,0.00022316,0.002260208,0,
00:07.0,0.001630783,0.000228882,0.002260208,0,
00:07.0,0.001647949,0.000234604,0.002254486,0,
00:07.0,0.001659393,0.000240326,0.002260208,0,
00:07.0,0.001670837,0.000234604,0.00223732,0,
00:07.0,0.001653671,0.000240326,0.00226593,0,
00:00:07,0.001647949,0.000228882,0.002271652,0,
00:07.0,0.001590729,0.000228882,0.002254486,0,
00:07.0,0.001625061,0.000228882,0.002271652,0,
00:07.0,0.001693726,0.000240326,0.002254486,0,
00:07.0,0.001665115,0.000234604,0.002271652,0,
00:07.0,0.001659393,0.000234604,0.00226593,0,
00:07.0,0.001642227,0.000228882,0.002260208,0,
00:07.0,0.001630783,0.000228882,0.002271652,0,
00:07.0,0.001682281,0.000234604,0.002260208,0,
00:07.0,0.001670837,0.000234604,0.002260208,0,
00:07.0,0.001653671,0.000240326,0.002260208,0,
00:07.0,0.001642227,0.000228882,0.002248764,0,
00:07.0,0.001636505,0.000234604,0.002254486,0,
00:07.1,0.001630783,0.000228882,0.00226593,0,
00:07.1,0.001653671,0.000228882,0.002243042,0,
00:07.1,0.001665115,0.000234604,0.002271652,0,
00:07.1,0.001682281,0.000234604,0.002271652,0,
00:07.1,0.001630783,0.000240326,0.002260208,0,
00:07.1,0.001630783,0.000234604,0.002248764,0,
00:07.1,0.001625061,0.000228882,0.002243042,0,
00:07.1,0.001665115,0.000228882,0.002283096,0,
00:07.1,0.001642227,0.000240326,0.002288818,0,
00:07.1,0.001676559,0.000234604,0.002248764,0,
00:07.1,0.001647949,0.000228882,0.00226593,0,
00:07.1,0.001607895,0.000228882,0.002271652,0,
00:07.1,0.001613617,0.000234604,0.002277374,0,
00:07.1,0.001567841,0.000228882,0.002300262,0,
00:07.1,0.001688004,0.000240326,0.002243042,0,
00:07.1,0.001682281,0.00022316,0.002254486,0,
00:07.1,0.001722336,0.000228882,0.002254486,0,
00:07.1,0.001659393,0.000228882,0.002271652,0,
00:07.1,0.001642227,0.000234604,0.002277374,0,
00:07.1,0.001659393,0.000228882,0.002248764,0,
00:07.1,0.001642227,0.000228882,0.002260208,0,
00:07.1,0.001630783,0.000228882,0.002254486,0,
00:07.1,0.001636505,0.000228882,0.002243042,0,
00:07.1,0.001653671,0.00022316,0.002260208,0,
00:07.1,0.001636505,0.00022316,0.002300262,0,
00:07.2,0.001613617,0.00022316,0.002283096,0,
00:07.2,0.001653671,0.00022316,0.00226593,0,
00:07.2,0.001659393,0.000234604,0.00226593,0,
00:07.2,0.001659393,0.000234604,0.002248764,0,
00:07.2,0.001636505,0.000228882,0.002277374,0,
00:07.2,0.001607895,0.000234604,0.002277374,0,
00:07.2,0.001625061,0.000228882,0.002311707,0,
00:07.2,0.001653671,0.000228882,0.002271652,0,
00:07.2,0.001636505,0.00022316,0.002243042,0,
00:07.2,0.001647949,0.000234604,0.00226593,0,
00:07.2,0.001590729,0.000228882,0.002283096,0,
00:07.2,0.001670837,0.000240326,0.002231598,0,
00:07.2,0.001682281,0.000234604,0.002271652,0,
00:07.2,0.001676559,0.000217438,0.002277374,0,
00:07.2,0.001659393,0.00022316,0.002283096,0,
00:07.2,0.001659393,0.000228882,0.002277374,0,
00:07.2,0.001630783,0.000228882,0.002288818,0,
00:07.2,0.001642227,0.000228882,0.002271652,0,
00:07.2,0.001642227,0.000228882,0.002260208,0,
00:07.2,0.001670837,0.000234604,0.002243042,0,
00:07.2,0.001642227,0.000228882,0.00226593,0,
00:07.2,0.001647949,0.000234604,0.002271652,0,
00:07.2,0.001625061,0.00022316,0.00229454,0,
00:07.2,0.001642227,0.00022316,0.00229454,0,
00:07.2,0.001653671,0.000234604,0.00226593,0,
00:07.3,0.001642227,0.000234604,0.002248764,0,
00:07.3,0.001590729,0.000228882,0.00229454,0,
00:07.3,0.001630783,0.00022316,0.002283096,0,
00:07.3,0.001647949,0.000234604,0.002300262,0,
00:07.3,0.001665115,0.000234604,0.002248764,0,
00:07.3,0.001602173,0.000234604,0.002260208,0,
00:07.3,0.001562119,0.000234604,0.00229454,0,
00:07.3,0.001688004,0.000234604,0.002283096,0,
00:07.3,0.00170517,0.000234604,0.002248764,0,
00:07.3,0.001642227,0.000228882,0.002271652,0,
00:07.3,0.001625061,0.000228882,0.002283096,0,
00:07.3,0.001613617,0.000228882,0.002283096,0,
00:07.3,0.001619339,0.000228882,0.002277374,0,
00:07.3,0.001642227,0.000228882,0.002271652,0,
00:07.3,0.001670837,0.000234604,0.002248764,0,
00:07.3,0.001665115,0.000234604,0.002277374,0,
00:07.3,0.001653671,0.000228882,0.002311707,0,
00:07.3,0.001636505,0.000228882,0.002305984,0,
00:07.3,0.001630783,0.000228882,0.00226593,0,
00:07.3,0.001642227,0.000234604,0.00226593,0,
00:07.3,0.001647949,0.000234604,0.002243042,0,
00:07.3,0.001625061,0.000228882,0.002283096,0,
00:07.3,0.001613617,0.00022316,0.002288818,0,
00:07.3,0.001625061,0.000228882,0.002283096,0,
00:07.3,0.001630783,0.000228882,0.002271652,0,
00:07.4,0.001659393,0.000240326,0.002260208,0,
00:07.4,0.001647949,0.000234604,0.002277374,0,
00:07.4,0.001636505,0.000234604,0.002288818,0,
00:07.4,0.001642227,0.000234604,0.002288818,0,
00:07.4,0.001665115,0.00022316,0.002283096,0,
00:07.4,0.001636505,0.000217438,0.002277374,0,
00:07.4,0.001642227,0.000228882,0.002260208,0,
00:07.4,0.001630783,0.000234604,0.002271652,0,
00:07.4,0.001630783,0.000240326,0.002277374,0,
00:07.4,0.001504898,0.000234604,0.002305984,0,
00:07.4,0.001550674,0.000228882,0.002311707,0,
00:07.4,0.001699448,0.000234604,0.002248764,0,
00:07.4,0.001699448,0.000234604,0.002283096,0,
00:07.4,0.001653671,0.00022316,0.002288818,0,
00:07.4,0.001642227,0.000228882,0.002271652,0,
00:07.4,0.001625061,0.000234604,0.002277374,0,
00:07.4,0.001642227,0.000240326,0.00226593,0,
00:07.4,0.001585007,0.000240326,0.002283096,0,
00:07.4,0.001602173,0.000228882,0.00229454,0,
00:07.4,0.001665115,0.00022316,0.002271652,0,
00:07.4,0.001619339,0.00022316,0.002283096,0,
00:07.4,0.001630783,0.000240326,0.002305984,0,
00:07.4,0.001659393,0.000234604,0.002300262,0,
00:07.4,0.001630783,0.000228882,0.002277374,0,
00:07.4,0.001619339,0.000228882,0.002288818,0,
00:07.5,0.001596451,0.000234604,0.002271652,0,
00:07.5,0.001619339,0.000228882,0.00229454,0,
00:07.5,0.001653671,0.000234604,0.002305984,0,
00:07.5,0.001647949,0.000234604,0.002288818,0,
00:07.5,0.001636505,0.000228882,0.00226593,0,
00:07.5,0.001613617,0.00022316,0.00229454,0,
00:07.5,0.001613617,0.00022316,0.002300262,0,
00:07.5,0.001642227,0.000234604,0.002283096,0,
00:07.5,0.001613617,0.000228882,0.002300262,0,
00:07.5,0.001579285,0.000228882,0.002271652,0,
00:07.5,0.001567841,0.000240326,0.002288818,0,
00:07.5,0.001647949,0.000228882,0.002277374,0,
00:07.5,0.001659393,0.000228882,0.002277374,0,
00:07.5,0.001636505,0.000234604,0.002288818,0,
00:07.5,0.001579285,0.000234604,0.002311707,0,
00:07.5,0.001636505,0.000228882,0.002305984,0,
00:07.5,0.001670837,0.000228882,0.002305984,0,
00:07.5,0.001653671,0.000234604,0.002283096,0,
00:07.5,0.001613617,0.000228882,0.002283096,0,
00:07.5,0.001625061,0.000240326,0.002288818,0,
00:07.5,0.001647949,0.000228882,0.00229454,0,
00:07.5,0.001625061,0.000228882,0.002300262,0,
00:07.5,0.001619339,0.000228882,0.002305984,0,
00:07.5,0.001607895,0.000234604,0.002288818,0,
00:07.5,0.001579285,0.000234604,0.002288818,0,
00:07.6,0.001630783,0.000234604,0.002288818,0,
00:07.6,0.001659393,0.000234604,0.00229454,0,
00:07.6,0.001613617,0.00022316,0.002305984,0,
00:07.6,0.001625061,0.000234604,0.002288818,0,
00:07.6,0.001625061,0.000234604,0.002277374,0,
00:07.6,0.001619339,0.000228882,0.002283096,0,
00:07.6,0.001619339,0.000228882,0.002271652,0,
00:07.6,0.001562119,0.000228882,0.002305984,0,
00:07.6,0.001544952,0.000228882,0.002334595,0,
00:07.6,0.001728058,0.000246048,0.00229454,0,
00:07.6,0.001659393,0.000240326,0.002277374,0,
00:07.6,0.001562119,0.000228882,0.002328873,0,
00:07.6,0.001607895,0.000234604,0.002305984,0,
00:07.6,0.001619339,0.000228882,0.002311707,0,
00:07.6,0.001642227,0.000234604,0.002271652,0,
00:07.6,0.001636505,0.000240326,0.002277374,0,
00:07.6,0.001647949,0.000228882,0.002305984,0,
00:07.6,0.001647949,0.000234604,0.002311707,0,
00:07.6,0.001665115,0.000228882,0.002277374,0,
00:07.6,0.001636505,0.000228882,0.00229454,0,
00:07.6,0.001636505,0.000234604,0.002317429,0,
00:07.6,0.001699448,0.000228882,0.002305984,0,
00:07.6,0.001688004,0.00022316,0.002305984,0,
00:07.6,0.001682281,0.000234604,0.002300262,0,
00:07.6,0.001688004,0.000240326,0.002300262,0,
00:07.7,0.001665115,0.000234604,0.00229454,0,
00:07.7,0.001665115,0.000228882,0.002305984,0,
00:07.7,0.001699448,0.000240326,0.002283096,0,
00:07.7,0.001693726,0.000234604,0.002277374,0,
00:07.7,0.001693726,0.000228882,0.002277374,0,
00:07.7,0.001670837,0.000228882,0.002305984,0,
00:07.7,0.001665115,0.000228882,0.002317429,0,
00:07.7,0.001625061,0.000228882,0.002311707,0,
00:07.7,0.001642227,0.000240326,0.002288818,0,
00:07.7,0.001710892,0.000240326,0.002277374,0,
00:07.7,0.001716614,0.000228882,0.002311707,0,
00:07.7,0.001688004,0.000228882,0.002305984,0,
00:07.7,0.001647949,0.000234604,0.002311707,0,
00:07.7,0.001682281,0.000234604,0.00229454,0,
00:07.7,0.001647949,0.000217438,0.002300262,0,
00:07.7,0.001682281,0.00022316,0.002283096,0,
00:07.7,0.001682281,0.000228882,0.002311707,0,
00:07.7,0.001688004,0.000234604,0.002311707,0,
00:07.7,0.001665115,0.000234604,0.002311707,0,
00:07.7,0.001665115,0.000228882,0.002277374,0,
00:07.7,0.001653671,0.000234604,0.002288818,0,
00:07.7,0.001676559,0.000228882,0.002300262,0,
00:07.7,0.001693726,0.000217438,0.002288818,0,
00:07.7,0.001636505,0.00022316,0.002277374,0,
00:07.7,0.001688004,0.000234604,0.002300262,0,
00:07.8,0.001688004,0.000228882,0.002323151,0,
00:07.8,0.001665115,0.00022316,0.002317429,0,
00:07.8,0.001676559,0.000228882,0.002305984,0,
00:07.8,0.001670837,0.00022316,0.002305984,0,
00:07.8,0.001642227,0.000234604,0.002305984,0,
00:07.8,0.001682281,0.000234604,0.002283096,0,
00:07.8,0.001647949,0.00022316,0.00229454,0,
00:07.8,0.001670837,0.00022316,0.002305984,0,
00:07.8,0.001693726,0.00022316,0.002300262,0,
00:07.8,0.001653671,0.00022316,0.002288818,0,
00:07.8,0.001636505,0.000234604,0.002311707,0,
00:07.8,0.001682281,0.00022316,0.002340317,0,
00:07.8,0.001682281,0.00022316,0.00229454,0,
00:07.8,0.001693726,0.000228882,0.002277374,0,
00:07.8,0.001682281,0.00022316,0.00229454,0,
00:07.8,0.001670837,0.00022316,0.002305984,0,
00:07.8,0.001642227,0.00022316,0.002300262,0,
00:07.8,0.001647949,0.000228882,0.002323151,0,
00:07.8,0.001670837,0.000228882,0.002300262,0,
00:07.8,0.001688004,0.000234604,0.002260208,0,
00:07.8,0.001636505,0.00022316,0.002277374,0,
00:07.8,0.001665115,0.00022316,0.002305984,0,
00:07.8,0.001676559,0.000217438,0.002323151,0,
00:07.8,0.001659393,0.00022316,0.002317429,0,
00:07.8,0.001659393,0.00022316,0.002305984,0,
00:07.9,0.001665115,0.000217438,0.002323151,0,
00:07.9,0.001665115,0.000228882,0.002317429,0,
00:07.9,0.001613617,0.000228882,0.002311707,0,
00:07.9,0.001613617,0.00022316,0.00229454,0,
00:07.9,0.001676559,0.000234604,0.002305984,0,
00:07.9,0.001699448,0.00022316,0.002288818,0,
00:07.9,0.001682281,0.000217438,0.00229454,0,
00:07.9,0.001636505,0.000217438,0.002311707,0,
00:07.9,0.001693726,0.000228882,0.002300262,0,
00:07.9,0.001676559,0.000234604,0.002300262,0,
00:07.9,0.001585007,0.00022316,0.002317429,0,
00:07.9,0.001625061,0.00022316,0.002328873,0,
00:07.9,0.001682281,0.000217438,0.00229454,0,
00:07.9,0.001682281,0.00022316,0.002311707,0,
00:07.9,0.001688004,0.000211716,0.002305984,0,
00:07.9,0.001682281,0.000217438,0.002283096,0,
00:07.9,0.001676559,0.00022316,0.002288818,0,
00:07.9,0.001676559,0.000217438,0.002317429,0,
00:07.9,0.001682281,0.00022316,0.002317429,0,
00:07.9,0.001619339,0.00022316,0.002317429,0,
00:07.9,0.001516342,0.000228882,0.002305984,0,
00:07.9,0.001625061,0.000228882,0.002305984,0,
00:07.9,0.001653671,0.000228882,0.00229454,0,
00:07.9,0.001688004,0.00022316,0.002300262,0,
00:07.9,0.001688004,0.00022316,0.002300262,0,
00:08.0,0.001665115,0.00022316,0.00229454,0,
00:08.0,0.001636505,0.00022316,0.002288818,0,
00:08.0,0.001596451,0.000217438,0.002288818,0,
00:08.0,0.001739502,0.000234604,0.002288818,0,
00:08.0,0.001722336,0.000217438,0.002300262,0,
00:08.0,0.001659393,0.00022316,0.002300262,0,
00:08.0,0.001665115,0.000211716,0.002300262,0,
00:08.0,0.001676559,0.000211716,0.002288818,0,
00:08.0,0.001682281,0.000211716,0.002288818,0,
00:08.0,0.001693726,0.000217438,0.002283096,0,
00:08.0,0.001693726,0.000217438,0.002305984,0,
00:08.0,0.001699448,0.00022316,0.002288818,0,
00:00:08,0.001630783,0.000217438,0.002271652,0,
00:08.0,0.001602173,0.00022316,0.002271652,0,
00:08.0,0.001693726,0.000217438,0.002305984,0,
00:08.0,0.001699448,0.00022316,0.002305984,0,
00:08.0,0.001688004,0.000217438,0.002288818,0,
00:08.0,0.001665115,0.000217438,0.002288818,0,
00:08.0,0.001676559,0.00022316,0.002271652,0,
00:08.0,0.001722336,0.00022316,0.002271652,0,
00:08.0,0.001659393,0.000217438,0.002288818,0,
00:08.0,0.001659393,0.000211716,0.002300262,0,
00:08.0,0.001693726,0.000217438,0.002271652,0,
00:08.0,0.001670837,0.00022316,0.002277374,0,
00:08.0,0.001607895,0.000217438,0.002311707,0,
00:08.1,0.001625061,0.000211716,0.002300262,0,
00:08.1,0.001647949,0.00022316,0.00229454,0,
00:08.1,0.001636505,0.00022316,0.00229454,0,
00:08.1,0.001716614,0.000217438,0.002243042,0,
00:08.1,0.001739502,0.00022316,0.002271652,0,
00:08.1,0.001676559,0.000217438,0.00229454,0,
00:08.1,0.001642227,0.000217438,0.002277374,0,
00:08.1,0.001630783,0.00022316,0.002283096,0,
00:08.1,0.001647949,0.000217438,0.002277374,0,
00:08.1,0.001699448,0.000217438,0.00229454,0,
00:08.1,0.00173378,0.00022316,0.002305984,0,
00:08.1,0.00170517,0.00022316,0.002277374,0,
00:08.1,0.001699448,0.000217438,0.002311707,0,
00:08.1,0.001682281,0.000217438,0.002311707,0,
00:08.1,0.001670837,0.000211716,0.002300262,0,
00:08.1,0.001670837,0.000205994,0.002288818,0,
00:08.1,0.001670837,0.000217438,0.002288818,0,
00:08.1,0.001647949,0.000217438,0.002305984,0,
00:08.1,0.001630783,0.00022316,0.00229454,0,
00:08.1,0.001699448,0.000228882,0.00229454,0,
00:08.1,0.001710892,0.000217438,0.002277374,0,
00:08.1,0.001665115,0.00022316,0.002288818,0,
00:08.1,0.001670837,0.000217438,0.002283096,0,
00:08.1,0.001613617,0.000217438,0.002300262,0,
00:08.1,0.001642227,0.000228882,0.002283096,0,
00:08.2,0.001630783,0.00022316,0.002260208,0,
00:08.2,0.001653671,0.000228882,0.002300262,0,
00:08.2,0.001728058,0.00022316,0.002283096,0,
00:08.2,0.00170517,0.000217438,0.002260208,0,
00:08.2,0.001670837,0.000211716,0.002271652,0,
00:08.2,0.001688004,0.000211716,0.002277374,0,
00:08.2,0.001665115,0.000217438,0.00229454,0,
00:08.2,0.001659393,0.000211716,0.002334595,0,
00:08.2,0.00170517,0.000211716,0.002283096,0,
00:08.2,0.001670837,0.000211716,0.00229454,0,
00:08.2,0.001688004,0.000211716,0.002305984,0,
00:08.2,0.001682281,0.000217438,0.002300262,0,
00:08.2,0.001676559,0.000217438,0.002288818,0,
00:08.2,0.001670837,0.000211716,0.00229454,0,
00:08.2,0.001665115,0.000217438,0.002300262,0,
00:08.2,0.001642227,0.000217438,0.002283096,0,
00:08.2,0.001653671,0.000217438,0.002277374,0,
00:08.2,0.001642227,0.000211716,0.002277374,0,
00:08.2,0.001699448,0.00022316,0.002288818,0,
00:08.2,0.001693726,0.000217438,0.00229454,0,
00:08.2,0.001665115,0.000205994,0.002277374,0,
00:08.2,0.001659393,0.000205994,0.002283096,0,
00:08.2,0.001659393,0.000211716,0.002305984,0,
00:08.2,0.001665115,0.000211716,0.002300262,0,
00:08.2,0.001716614,0.00022316,0.002277374,0,
00:08.3,0.001625061,0.000211716,0.002300262,0,
00:08.3,0.001630783,0.000205994,0.002323151,0,
00:08.3,0.001659393,0.000205994,0.00229454,0,
00:08.3,0.001722336,0.000205994,0.002271652,0,
00:08.3,0.001716614,0.000211716,0.002260208,0,
00:08.3,0.001665115,0.000217438,0.002288818,0,
00:08.3,0.001688004,0.000211716,0.002277374,0,
00:08.3,0.001699448,0.000205994,0.002283096,0,
00:08.3,0.001670837,0.000205994,0.002311707,0,
00:08.3,0.001630783,0.000217438,0.00226593,0,
00:08.3,0.001567841,0.000205994,0.002300262,0,
00:08.3,0.001659393,0.000205994,0.002300262,0,
00:08.3,0.001722336,0.000205994,0.002283096,0,
00:08.3,0.001693726,0.000205994,0.00229454,0,
00:08.3,0.001693726,0.000211716,0.002305984,0,
00:08.3,0.001682281,0.000205994,0.002300262,0,
00:08.3,0.001670837,0.000205994,0.002311707,0,
00:08.3,0.001688004,0.000205994,0.00229454,0,
00:08.3,0.001659393,0.000205994,0.00229454,0,
00:08.3,0.001682281,0.000205994,0.00229454,0,
00:08.3,0.00170517,0.000205994,0.002288818,0,
00:08.3,0.001653671,0.00019455,0.002300262,0,
00:08.3,0.001647949,0.000200272,0.002305984,0,
00:08.3,0.001682281,0.000205994,0.002288818,0,
00:08.3,0.001665115,0.000205994,0.002283096,0,
00:08.4,0.001676559,0.000200272,0.002288818,0,
00:08.4,0.001636505,0.000211716,0.002288818,0,
00:08.4,0.001579285,0.000205994,0.002283096,0,
00:08.4,0.001722336,0.000205994,0.002300262,0,
00:08.4,0.001756668,0.000205994,0.002260208,0,
00:08.4,0.00170517,0.000205994,0.002271652,0,
00:08.4,0.001653671,0.000205994,0.002277374,0,
00:08.4,0.001665115,0.000200272,0.002317429,0,
00:08.4,0.001676559,0.000205994,0.002288818,0,
00:08.4,0.001670837,0.000211716,0.002283096,0,
00:08.4,0.001693726,0.000205994,0.00229454,0,
00:08.4,0.001636505,0.000205994,0.002305984,0,
00:08.4,0.001636505,0.000205994,0.002288818,0,
00:08.4,0.001665115,0.000205994,0.002305984,0,
00:08.4,0.001636505,0.000205994,0.00229454,0,
00:08.4,0.001665115,0.000205994,0.002288818,0,
00:08.4,0.001653671,0.000205994,0.002288818,0,
00:08.4,0.001670837,0.000205994,0.002288818,0,
00:08.4,0.001676559,0.000205994,0.002283096,0,
00:08.4,0.001642227,0.000200272,0.002288818,0,
00:08.4,0.00170517,0.00019455,0.002283096,0,
00:08.4,0.001693726,0.00019455,0.002271652,0,
00:08.4,0.001688004,0.00019455,0.002311707,0,
00:08.4,0.001676559,0.000211716,0.002277374,0,
00:08.4,0.001590729,0.000211716,0.002277374,0,
00:08.5,0.001579285,0.000200272,0.002283096,0,
00:08.5,0.001688004,0.000217438,0.002283096,0,
00:08.5,0.001728058,0.00019455,0.00229454,0,
00:08.5,0.001699448,0.00019455,0.002305984,0,
00:08.5,0.001642227,0.00019455,0.002288818,0,
00:08.5,0.001728058,0.000205994,0.00223732,0,
00:08.5,0.001722336,0.000200272,0.002260208,0,
00:08.5,0.001670837,0.000200272,0.002305984,0,
00:08.5,0.001688004,0.000200272,0.00229454,0,
00:08.5,0.001699448,0.000205994,0.002283096,0,
00:08.5,0.001665115,0.00019455,0.00229454,0,
00:08.5,0.001647949,0.00019455,0.002288818,0,
00:08.5,0.001642227,0.000205994,0.002288818,0,
00:08.5,0.001670837,0.00019455,0.002271652,0,
00:08.5,0.001688004,0.00019455,0.002271652,0,
00:08.5,0.001688004,0.000200272,0.002283096,0,
00:08.5,0.001676559,0.000200272,0.002277374,0,
00:08.5,0.001688004,0.00019455,0.002277374,0,
00:08.5,0.001676559,0.000188828,0.002288818,0,
00:08.5,0.001642227,0.000188828,0.002283096,0,
00:08.5,0.001659393,0.000188828,0.002283096,0,
00:08.5,0.001670837,0.00019455,0.002271652,0,
00:08.5,0.001682281,0.00019455,0.002288818,0,
00:08.5,0.001653671,0.000205994,0.00229454,0,
00:08.5,0.001647949,0.000200272,0.00226593,0,
00:08.6,0.001710892,0.000188828,0.002254486,0,
00:08.6,0.001710892,0.000188828,0.00229454,0,
00:08.6,0.001699448,0.00019455,0.00229454,0,
00:08.6,0.001693726,0.00019455,0.002283096,0,
00:08.6,0.001653671,0.000183105,0.002277374,0,
00:08.6,0.001596451,0.00019455,0.002288818,0,
00:08.6,0.001665115,0.00019455,0.002260208,0,
00:08.6,0.001682281,0.00019455,0.002248764,0,
00:08.6,0.001653671,0.00019455,0.002277374,0,
00:08.6,0.001699448,0.000188828,0.002311707,0,
00:08.6,0.001716614,0.000188828,0.002277374,0,
00:08.6,0.001682281,0.000183105,0.002300262,0,
00:08.6,0.001670837,0.000183105,0.00229454,0,
00:08.6,0.001699448,0.000188828,0.002300262,0,
00:08.6,0.001647949,0.000188828,0.002288818,0,
00:08.6,0.001607895,0.000188828,0.002277374,0,
00:08.6,0.001647949,0.000183105,0.002271652,0,
00:08.6,0.001670837,0.000188828,0.00226593,0,
00:08.6,0.001688004,0.000188828,0.00226593,0,
00:08.6,0.001693726,0.000183105,0.002260208,0,
00:08.6,0.001676559,0.000177383,0.002334595,0,
00:08.6,0.001659393,0.000171661,0.002328873,0,
00:08.6,0.001659393,0.000177383,0.002277374,0,
00:08.6,0.001647949,0.000183105,0.002288818,0,
00:08.6,0.001630783,0.000177383,0.002300262,0,
00:08.7,0.001659393,0.000177383,0.00226593,0,
00:08.7,0.001682281,0.000188828,0.002288818,0,
00:08.7,0.001676559,0.000183105,0.002283096,0,
00:08.7,0.001693726,0.000188828,0.00226593,0,
00:08.7,0.001682281,0.000188828,0.002260208,0,
00:08.7,0.001630783,0.000171661,0.00229454,0,
00:08.7,0.001670837,0.000165939,0.002305984,0,
00:08.7,0.00170517,0.000177383,0.002277374,0,
00:08.7,0.001682281,0.000177383,0.002300262,0,
00:08.7,0.001653671,0.000171661,0.002300262,0,
00:08.7,0.001596451,0.000165939,0.002300262,0,
00:08.7,0.001499176,0.000177383,0.00226593,0,
00:08.7,0.001613617,0.000177383,0.002248764,0,
00:08.7,0.001768112,0.000177383,0.002283096,0,
00:08.7,0.001688004,0.000171661,0.00229454,0,
00:08.7,0.001688004,0.000165939,0.002300262,0,
00:08.7,0.001676559,0.000165939,0.002300262,0,
00:08.7,0.001665115,0.000171661,0.002300262,0,
00:08.7,0.001642227,0.000177383,0.002300262,0,
00:08.7,0.001625061,0.000177383,0.002283096,0,
00:08.7,0.001602173,0.000171661,0.002271652,0,
00:08.7,0.001630783,0.000177383,0.002300262,0,
00:08.7,0.001688004,0.000171661,0.002271652,0,
00:08.7,0.00170517,0.000171661,0.00226593,0,
00:08.7,0.001682281,0.000165939,0.002283096,0,
00:08.8,0.001642227,0.000165939,0.00229454,0,
00:08.8,0.001653671,0.000165939,0.002300262,0,
00:08.8,0.001665115,0.000165939,0.00226593,0,
00:08.8,0.001619339,0.000177383,0.002271652,0,
00:08.8,0.001602173,0.000165939,0.002271652,0,
00:08.8,0.001596451,0.000171661,0.00229454,0,
00:08.8,0.001613617,0.000165939,0.002260208,0,
00:08.8,0.001710892,0.000171661,0.002202988,0,
00:08.8,0.001693726,0.000165939,0.002317429,0,
00:08.8,0.001647949,0.000165939,0.002305984,0,
00:08.8,0.001653671,0.000165939,0.002277374,0,
00:08.8,0.001653671,0.000160217,0.002288818,0,
00:08.8,0.001636505,0.000160217,0.002288818,0,
00:08.8,0.001636505,0.000160217,0.002283096,0,
00:08.8,0.001653671,0.000165939,0.002271652,0,
00:08.8,0.001630783,0.000171661,0.002277374,0,
00:08.8,0.001619339,0.000160217,0.002271652,0,
00:08.8,0.001665115,0.000171661,0.002271652,0,
00:08.8,0.001602173,0.000160217,0.002277374,0,
00:08.8,0.001613617,0.000160217,0.002277374,0,
00:08.8,0.001739502,0.000160217,0.002283096,0,
00:08.8,0.001659393,0.000154495,0.002288818,0,
00:08.8,0.001585007,0.000148773,0.002288818,0,
00:08.8,0.001533508,0.000154495,0.002305984,0,
00:08.8,0.001659393,0.000160217,0.002300262,0,
00:08.9,0.001676559,0.000165939,0.002243042,0,
00:08.9,0.001659393,0.000154495,0.002260208,0,
00:08.9,0.001636505,0.000160217,0.002271652,0,
00:08.9,0.001630783,0.000160217,0.002300262,0,
00:08.9,0.001630783,0.000154495,0.002277374,0,
00:08.9,0.001607895,0.000154495,0.002277374,0,
00:08.9,0.001659393,0.000148773,0.002277374,0,
00:08.9,0.001688004,0.000148773,0.002283096,0,
00:08.9,0.001665115,0.000154495,0.002277374,0,
00:08.9,0.001647949,0.000154495,0.002283096,0,
00:08.9,0.001619339,0.000154495,0.00226593,0,
00:08.9,0.001619339,0.000154495,0.002260208,0,
00:08.9,0.00151062,0.000143051,0.002271652,0,
00:08.9,0.001544952,0.000143051,0.002288818,0,
00:08.9,0.001745224,0.000143051,0.002277374,0,
00:08.9,0.001716614,0.000154495,0.002248764,0,
00:08.9,0.001613617,0.000143051,0.002283096,0,
00:08.9,0.001567841,0.000143051,0.002305984,0,
00:08.9,0.001665115,0.000143051,0.002283096,0,
00:08.9,0.001670837,0.000143051,0.00226593,0,
00:08.9,0.001607895,0.000143051,0.002260208,0,
00:08.9,0.001665115,0.000143051,0.00229454,0,
00:08.9,0.001636505,0.000143051,0.00226593,0,
00:08.9,0.001590729,0.000143051,0.00223732,0,
00:08.9,0.001625061,0.000143051,0.00229454,0,
00:09.0,0.001562119,0.000148773,0.00226593,0,
00:09.0,0.001693726,0.000137329,0.002260208,0,
00:09.0,0.001682281,0.000137329,0.002271652,0,
00:09.0,0.001636505,0.000143051,0.002288818,0,
00:09.0,0.001630783,0.000143051,0.002283096,0,
00:09.0,0.001653671,0.000137329,0.002277374,0,
00:09.0,0.001647949,0.000137329,0.002271652,0,
00:09.0,0.001642227,0.000143051,0.002277374,0,
00:09.0,0.001585007,0.000143051,0.002271652,0,
00:09.0,0.001527786,0.000143051,0.002260208,0,
00:09.0,0.001710892,0.000148773,0.00226593,0,
00:09.0,0.001693726,0.000137329,0.002271652,0,
00:00:09,0.001665115,0.000143051,0.002271652,0,
00:09.0,0.001653671,0.000137329,0.00226593,0,
00:09.0,0.001630783,0.000131607,0.002271652,0,
00:09.0,0.001625061,0.000137329,0.002271652,0,
00:09.0,0.001556396,0.000143051,0.002243042,0,
00:09.0,0.001527786,0.000137329,0.002254486,0,
00:09.0,0.001739502,0.000143051,0.002260208,0,
00:09.0,0.001682281,0.000137329,0.002260208,0,
00:09.0,0.001647949,0.000137329,0.002248764,0,
00:09.0,0.001676559,0.000137329,0.002283096,0,
00:09.0,0.001688004,0.000143051,0.002254486,0,
00:09.0,0.001607895,0.000143051,0.002254486,0,
00:09.0,0.001596451,0.000137329,0.002277374,0,
00:09.1,0.001630783,0.000137329,0.00226593,0,
00:09.1,0.001653671,0.000131607,0.002260208,0,
00:09.1,0.001630783,0.000143051,0.00226593,0,
00:09.1,0.001630783,0.000148773,0.002283096,0,
00:09.1,0.001653671,0.000143051,0.002277374,0,
00:09.1,0.001613617,0.000131607,0.002288818,0,
00:09.1,0.001619339,0.000137329,0.00226593,0,
00:09.1,0.001647949,0.000143051,0.002260208,0,
00:09.1,0.001619339,0.000143051,0.002254486,0,
00:09.1,0.001607895,0.000143051,0.002225876,0,
00:09.1,0.001665115,0.000137329,0.002288818,0,
00:09.1,0.001676559,0.000143051,0.002300262,0,
00:09.1,0.001642227,0.000131607,0.002271652,0,
00:09.1,0.001613617,0.000131607,0.002271652,0,
00:09.1,0.001630783,0.000137329,0.00226593,0,
00:09.1,0.001647949,0.000143051,0.002260208,0,
00:09.1,0.001636505,0.000131607,0.002271652,0,
00:09.1,0.001625061,0.000143051,0.00226593,0,
00:09.1,0.001556396,0.000143051,0.002243042,0,
00:09.1,0.001653671,0.000148773,0.002214432,0,
00:09.1,0.001659393,0.000131607,0.002288818,0,
00:09.1,0.001676559,0.000137329,0.002305984,0,
00:09.1,0.001665115,0.000137329,0.002277374,0,
00:09.1,0.001653671,0.000137329,0.002254486,0,
00:09.1,0.001625061,0.000131607,0.002277374,0,
00:09.2,0.001596451,0.000131607,0.00226593,0,
00:09.2,0.001625061,0.000137329,0.002254486,0,
00:09.2,0.001573563,0.000143051,0.002260208,0,
00:09.2,0.001693726,0.000148773,0.002260208,0,
00:09.2,0.001653671,0.000125885,0.002288818,0,
00:09.2,0.001647949,0.000131607,0.002277374,0,
00:09.2,0.001642227,0.000137329,0.002277374,0,
00:09.2,0.001636505,0.000125885,0.002260208,0,
00:09.2,0.001642227,0.000125885,0.002271652,0,
00:09.2,0.001636505,0.000137329,0.002288818,0,
00:09.2,0.001619339,0.000143051,0.002277374,0,
00:09.2,0.001607895,0.000143051,0.00226593,0,
00:09.2,0.001567841,0.000143051,0.00226593,0,
00:09.2,0.001653671,0.000154495,0.002260208,0,
00:09.2,0.001659393,0.000143051,0.002260208,0,
00:09.2,0.001676559,0.000125885,0.002271652,0,
00:09.2,0.001613617,0.000131607,0.002305984,0,
00:09.2,0.001647949,0.000143051,0.002277374,0,
00:09.2,0.001636505,0.000137329,0.002271652,0,
00:09.2,0.001653671,0.000131607,0.002277374,0,
00:09.2,0.001647949,0.000143051,0.002277374,0,
00:09.2,0.001636505,0.000137329,0.002277374,0,
00:09.2,0.001607895,0.000143051,0.002277374,0,
00:09.2,0.001544952,0.000148773,0.00223732,0,
00:09.2,0.001659393,0.000148773,0.002248764,0,
00:09.3,0.001688004,0.000137329,0.002260208,0,
00:09.3,0.001653671,0.000137329,0.002277374,0,
00:09.3,0.001676559,0.000148773,0.002243042,0,
00:09.3,0.001642227,0.000143051,0.002300262,0,
00:09.3,0.001619339,0.000131607,0.002288818,0,
00:09.3,0.001636505,0.000137329,0.00229454,0,
00:09.3,0.001636505,0.000143051,0.002288818,0,
00:09.3,0.001642227,0.000137329,0.002283096,0,
00:09.3,0.001630783,0.000137329,0.002271652,0,
00:09.3,0.001562119,0.000131607,0.002288818,0,
00:09.3,0.001602173,0.000131607,0.002283096,0,
00:09.3,0.001670837,0.000143051,0.002243042,0,
00:09.3,0.001642227,0.000154495,0.002243042,0,
00:09.3,0.001613617,0.000148773,0.002254486,0,
00:09.3,0.001676559,0.000148773,0.002248764,0,
00:09.3,0.001636505,0.000143051,0.002277374,0,
00:09.3,0.001647949,0.000137329,0.00226593,0,
00:09.3,0.001630783,0.000131607,0.002305984,0,
00:09.3,0.001653671,0.000131607,0.002283096,0,
00:09.3,0.001619339,0.000143051,0.002277374,0,
00:09.3,0.001619339,0.000143051,0.002277374,0,
00:09.3,0.001625061,0.000137329,0.002271652,0,
00:09.3,0.001613617,0.000143051,0.002271652,0,
00:09.3,0.001619339,0.000143051,0.00226593,0,
00:09.3,0.001682281,0.000143051,0.002254486,0,
00:09.4,0.001647949,0.000154495,0.00226593,0,
00:09.4,0.001642227,0.000148773,0.002283096,0,
00:09.4,0.001653671,0.000131607,0.002271652,0,
00:09.4,0.001613617,0.000131607,0.00226593,0,
00:09.4,0.001579285,0.000143051,0.002288818,0,
00:09.4,0.001625061,0.000137329,0.002277374,0,
00:09.4,0.001665115,0.000143051,0.002248764,0,
00:09.4,0.001670837,0.000137329,0.00226593,0,
00:09.4,0.001659393,0.000143051,0.002271652,0,
00:09.4,0.001619339,0.000137329,0.002283096,0,
00:09.4,0.001636505,0.000137329,0.002260208,0,
00:09.4,0.001665115,0.000143051,0.00223732,0,
00:09.4,0.001636505,0.000148773,0.002271652,0,
00:09.4,0.001579285,0.000137329,0.002283096,0,
00:09.4,0.001625061,0.000137329,0.00229454,0,
00:09.4,0.001642227,0.000137329,0.002283096,0,
00:09.4,0.001642227,0.000143051,0.002277374,0,
00:09.4,0.001688004,0.000143051,0.002271652,0,
00:09.4,0.001653671,0.000143051,0.00226593,0,
00:09.4,0.001619339,0.000137329,0.002288818,0,
00:09.4,0.001665115,0.000143051,0.00226593,0,
00:09.4,0.001670837,0.000148773,0.002260208,0,
00:09.4,0.001642227,0.000143051,0.002254486,0,
00:09.4,0.001636505,0.000148773,0.002271652,0,
00:09.4,0.001585007,0.000154495,0.002300262,0,
00:09.5,0.001630783,0.000143051,0.002254486,0,
00:09.5,0.001642227,0.000143051,0.00223732,0,
00:09.5,0.001670837,0.000137329,0.002271652,0,
00:09.5,0.001682281,0.000143051,0.002288818,0,
00:09.5,0.001676559,0.000148773,0.00226593,0,
00:09.5,0.001630783,0.000148773,0.00226593,0,
00:09.5,0.001585007,0.000148773,0.002260208,0,
00:09.5,0.001653671,0.000143051,0.002260208,0,
00:09.5,0.001602173,0.000137329,0.002288818,0,
00:09.5,0.001636505,0.000143051,0.00226593,0,
00:09.5,0.001688004,0.000143051,0.002254486,0,
00:09.5,0.001699448,0.000143051,0.002283096,0,
00:09.5,0.001676559,0.000143051,0.002283096,0,
00:09.5,0.001653671,0.000143051,0.00226593,0,
00:09.5,0.001636505,0.000148773,0.00226593,0,
00:09.5,0.001653671,0.000148773,0.002260208,0,
00:09.5,0.001642227,0.000154495,0.002248764,0,
00:09.5,0.001630783,0.000160217,0.002254486,0,
00:09.5,0.001642227,0.000154495,0.002254486,0,
00:09.5,0.001653671,0.000137329,0.002248764,0,
00:09.5,0.001670837,0.000137329,0.002271652,0,
00:09.5,0.001670837,0.000143051,0.00226593,0,
00:09.5,0.001653671,0.000143051,0.002248764,0,
00:09.5,0.001607895,0.000148773,0.002283096,0,
00:09.5,0.001642227,0.000154495,0.002277374,0,
00:09.6,0.001659393,0.000148773,0.002248764,0,
00:09.6,0.001647949,0.000148773,0.002231598,0,
00:09.6,0.001602173,0.000148773,0.00223732,0,
00:09.6,0.001642227,0.000154495,0.002248764,0,
00:09.6,0.001682281,0.000148773,0.00226593,0,
00:09.6,0.001670837,0.000143051,0.00226593,0,
00:09.6,0.001625061,0.000143051,0.002288818,0,
00:09.6,0.001676559,0.000148773,0.00226593,0,
00:09.6,0.001688004,0.000148773,0.002248764,0,
00:09.6,0.001665115,0.000154495,0.002214432,0,
00:09.6,0.001659393,0.000148773,0.002254486,0,
00:09.6,0.001676559,0.000154495,0.002271652,0,
00:09.6,0.001682281,0.000165939,0.002248764,0,
00:09.6,0.001647949,0.000154495,0.002214432,0,
00:09.6,0.001636505,0.000148773,0.00226593,0,
00:09.6,0.001670837,0.000148773,0.002300262,0,
00:09.6,0.001653671,0.000154495,0.002271652,0,
00:09.6,0.001619339,0.000154495,0.002271652,0,
00:09.6,0.001602173,0.000160217,0.00226593,0,
00:09.6,0.001659393,0.000160217,0.002260208,0,
00:09.6,0.001647949,0.000148773,0.002260208,0,
00:09.6,0.001710892,0.000154495,0.002225876,0,
00:09.6,0.001647949,0.000160217,0.002248764,0,
00:09.6,0.001630783,0.000160217,0.002260208,0,
00:09.6,0.001670837,0.000148773,0.002260208,0,
00:09.7,0.001710892,0.000154495,0.002248764,0,
00:09.7,0.00170517,0.000160217,0.00223732,0,
00:09.7,0.001682281,0.000154495,0.002231598,0,
00:09.7,0.001670837,0.000160217,0.002248764,0,
00:09.7,0.001659393,0.000160217,0.00226593,0,
00:09.7,0.001630783,0.000154495,0.002260208,0,
00:09.7,0.001653671,0.000160217,0.00226593,0,
00:09.7,0.001682281,0.000154495,0.002254486,0,
00:09.7,0.001625061,0.000148773,0.002271652,0,
00:09.7,0.001676559,0.000154495,0.002271652,0,
00:09.7,0.001699448,0.000171661,0.00223732,0,
00:09.7,0.001642227,0.000165939,0.002243042,0,
00:09.7,0.001613617,0.000154495,0.00226593,0,
00:09.7,0.001682281,0.000154495,0.002231598,0,
00:09.7,0.001670837,0.000160217,0.00223732,0,
00:09.7,0.001647949,0.000160217,0.002243042,0,
00:09.7,0.001630783,0.000165939,0.002243042,0,
00:09.7,0.001699448,0.000165939,0.002271652,0,
00:09.7,0.001728058,0.000165939,0.00223732,0,
00:09.7,0.001665115,0.000148773,0.002231598,0,
00:09.7,0.001665115,0.000154495,0.002271652,0,
00:09.7,0.001699448,0.000160217,0.002254486,0,
00:09.7,0.001688004,0.000160217,0.002225876,0,
00:09.7,0.001659393,0.000171661,0.002243042,0,
00:09.7,0.001659393,0.000165939,0.002248764,0,
00:09.8,0.001676559,0.000160217,0.002248764,0,
00:09.8,0.001647949,0.000165939,0.002260208,0,
00:09.8,0.001613617,0.000165939,0.002254486,0,
00:09.8,0.001693726,0.000154495,0.002254486,0,
00:09.8,0.001739502,0.000165939,0.002243042,0,
00:09.8,0.001699448,0.000165939,0.002243042,0,
00:09.8,0.001665115,0.000165939,0.002248764,0,
00:09.8,0.001625061,0.000165939,0.002260208,0,
00:09.8,0.001676559,0.000165939,0.002225876,0,
00:09.8,0.001682281,0.000165939,0.00223732,0,
00:09.8,0.001670837,0.000171661,0.002231598,0,
00:09.8,0.001653671,0.000171661,0.002231598,0,
00:09.8,0.001579285,0.000165939,0.002260208,0,
00:09.8,0.00173378,0.000171661,0.002243042,0,
00:09.8,0.00173378,0.000165939,0.002231598,0,
00:09.8,0.001699448,0.000160217,0.002231598,0,
00:09.8,0.001693726,0.000165939,0.002248764,0,
00:09.8,0.001647949,0.000165939,0.002260208,0,
00:09.8,0.001653671,0.000171661,0.002254486,0,
00:09.8,0.001670837,0.000171661,0.00226593,0,
00:09.8,0.001722336,0.000177383,0.002168655,0,
00:09.8,0.001647949,0.000165939,0.002231598,0,
00:09.8,0.001665115,0.000165939,0.00226593,0,
00:09.8,0.001682281,0.000165939,0.002254486,0,
00:09.8,0.001636505,0.000165939,0.00223732,0,
00:09.9,0.00170517,0.000165939,0.002225876,0,
00:09.9,0.001728058,0.000171661,0.002220154,0,
00:09.9,0.001699448,0.000171661,0.002180099,0,
00:09.9,0.001676559,0.000177383,0.002197266,0,
00:09.9,0.001625061,0.000171661,0.002288818,0,
00:09.9,0.001676559,0.000165939,0.002260208,0,
00:09.9,0.001716614,0.000171661,0.002248764,0,
00:09.9,0.001716614,0.000171661,0.002243042,0,
00:09.9,0.001693726,0.000177383,0.002225876,0,
00:09.9,0.001642227,0.000171661,0.002220154,0,
00:09.9,0.001602173,0.000165939,0.002248764,0,
00:09.9,0.00170517,0.000171661,0.002214432,0,
00:09.9,0.001710892,0.000183105,0.002231598,0,
00:09.9,0.001682281,0.000177383,0.002220154,0,
00:09.9,0.00170517,0.000177383,0.002231598,0,
00:09.9,0.001682281,0.000171661,0.00220871,0,
00:09.9,0.001670837,0.000171661,0.002231598,0,
00:09.9,0.001699448,0.000183105,0.002225876,0,
00:09.9,0.001682281,0.000171661,0.002220154,0,
00:09.9,0.001682281,0.000165939,0.002225876,0,
00:09.9,0.001693726,0.000177383,0.002225876,0,
00:09.9,0.001670837,0.000177383,0.00220871,0,
00:09.9,0.001630783,0.000188828,0.002185822,0,
00:09.9,0.001722336,0.000188828,0.002225876,0,
00:09.9,0.001756668,0.000177383,0.00223732,0,
00:10.0,0.001699448,0.000177383,0.002214432,0,
00:10.0,0.001670837,0.000177383,0.002202988,0,
00:10.0,0.001665115,0.000171661,0.002231598,0,
00:10.0,0.001630783,0.000177383,0.002220154,0,
00:10.0,0.001665115,0.000183105,0.002197266,0,
00:10.0,0.001670837,0.000183105,0.002225876,0,
00:10.0,0.00176239,0.000188828,0.00220871,0,
00:10.0,0.001722336,0.000183105,0.002202988,0,
00:10.0,0.001682281,0.000177383,0.002254486,0,
00:10.0,0.001688004,0.000183105,0.002220154,0,
00:10.0,0.001688004,0.000177383,0.002214432,0,
00:10.0,0.001659393,0.000183105,0.002214432,0,
00:00:10,0.001630783,0.000177383,0.002214432,0,
00:10.0,0.001682281,0.000188828,0.002214432,0,
00:10.0,0.001785278,0.000183105,0.002128601,0,
00:10.0,0.001699448,0.000177383,0.002220154,0,
00:10.0,0.001693726,0.000177383,0.00223732,0,
00:10.0,0.001716614,0.000183105,0.002225876,0,
00:10.0,0.001693726,0.000183105,0.002220154,0,
00:10.0,0.001693726,0.000177383,0.00220871,0,
00:10.0,0.001699448,0.000188828,0.002197266,0,
00:10.0,0.001710892,0.000183105,0.002197266,0,
00:10.0,0.001670837,0.000188828,0.002197266,0,
00:10.0,0.001659393,0.000200272,0.002185822,0,
00:10.0,0.001710892,0.000183105,0.002180099,0,
00:10.1,0.001693726,0.000165939,0.002231598,0,
00:10.1,0.001716614,0.000183105,0.002214432,0,
00:10.1,0.001710892,0.000188828,0.002220154,0,
00:10.1,0.001682281,0.000188828,0.002220154,0,
00:10.1,0.001665115,0.000188828,0.002225876,0,
00:10.1,0.001670837,0.00019455,0.00220871,0,
00:10.1,0.001722336,0.00019455,0.002191544,0,
00:10.1,0.001688004,0.00019455,0.002191544,0,
00:10.1,0.00173378,0.00019455,0.002157211,0,
00:10.1,0.00170517,0.000188828,0.002180099,0,
00:10.1,0.001642227,0.000183105,0.002214432,0,
00:10.1,0.001710892,0.00019455,0.002220154,0,
00:10.1,0.001745224,0.00019455,0.002214432,0,
00:10.1,0.00173378,0.00019455,0.002197266,0,
00:10.1,0.00170517,0.000188828,0.002197266,0,
00:10.1,0.001693726,0.000188828,0.00220871,0,
00:10.1,0.001619339,0.00019455,0.002202988,0,
00:10.1,0.001670837,0.000200272,0.002180099,0,
00:10.1,0.001728058,0.000188828,0.002185822,0,
00:10.1,0.001768112,0.000188828,0.002225876,0,
00:10.1,0.001722336,0.000188828,0.002214432,0,
00:10.1,0.00170517,0.000183105,0.002214432,0,
00:10.1,0.001710892,0.00019455,0.002214432,0,
00:10.1,0.00170517,0.00019455,0.002214432,0,
00:10.1,0.001693726,0.00019455,0.00220871,0,
00:10.2,0.001728058,0.000200272,0.002174377,0,
00:10.2,0.001710892,0.00019455,0.002185822,0,
00:10.2,0.001693726,0.000200272,0.002202988,0,
00:10.2,0.001647949,0.000205994,0.002180099,0,
00:10.2,0.001653671,0.000200272,0.002185822,0,
00:10.2,0.001722336,0.00019455,0.002145767,0,
00:10.2,0.001808167,0.000205994,0.002168655,0,
00:10.2,0.00176239,0.000200272,0.002220154,0,
00:10.2,0.001710892,0.00019455,0.002202988,0,
00:10.2,0.001676559,0.00019455,0.002225876,0,
00:10.2,0.001659393,0.00019455,0.002214432,0,
00:10.2,0.001716614,0.000188828,0.002202988,0,
00:10.2,0.001728058,0.000205994,0.002185822,0,
00:10.2,0.001716614,0.000205994,0.002185822,0,
00:10.2,0.001728058,0.000205994,0.002162933,0,
00:10.2,0.001728058,0.000205994,0.002168655,0,
00:10.2,0.001716614,0.000205994,0.002185822,0,
00:10.2,0.001739502,0.000217438,0.002220154,0,
00:10.2,0.001710892,0.000200272,0.002197266,0,
00:10.2,0.001693726,0.00019455,0.002191544,0,
00:10.2,0.00170517,0.00019455,0.002191544,0,
00:10.2,0.001710892,0.000200272,0.002191544,0,
00:10.2,0.001710892,0.000211716,0.002191544,0,
00:10.2,0.00170517,0.000205994,0.002197266,0,
00:10.2,0.001659393,0.000205994,0.002157211,0,
00:10.3,0.001750946,0.000211716,0.002162933,0,
00:10.3,0.001768112,0.000205994,0.002174377,0,
00:10.3,0.001688004,0.000211716,0.002191544,0,
