Elapsed_Time,EMG1,EMG2,EMG3,BioRadio Event,Unnamed: 5
00:00:00,0.002168655,-0.000108719,0.008628845,0,
00:00.0,0.002174377,-0.000102997,0.008623123,0,
00:00.0,0.002174377,-0.000102997,0.008617401,0,
00:00.0,0.002168655,-0.000108719,0.008617401,0,
00:00.0,0.002174377,-0.000108719,0.008617401,0,
00:00.0,0.002168655,-0.000114441,0.008623123,0,
00:00.0,0.002174377,-0.000102997,0.008623123,0,
00:00.0,0.002174377,-9.73E-05,0.008617401,0,
00:00.0,0.002168655,-0.000102997,0.008611679,0,
00:00.0,0.002174377,-9.73E-05,0.008617401,0,
00:00.0,0.002168655,-0.000102997,0.008617401,0,
00:00.0,0.002168655,-0.000114441,0.008623123,0,
00:00.0,0.002174377,-0.000108719,0.008617401,0,
00:00.1,0.002168655,-0.000125885,0.008623123,0,
00:00.1,0.002162933,-0.000143051,0.008617401,0,
00:00.1,0.002168655,-0.000125885,0.008617401,0,
00:00.1,0.002174377,-9.16E-05,0.008611679,0,
00:00.1,0.002174377,-8.58E-05,0.008617401,0,
00:00.1,0.002174377,-0.000102997,0.008623123,0,
00:00.1,0.002168655,-0.000114441,0.008611679,0,
00:00.1,0.002180099,-9.73E-05,0.008623123,0,
00:00.1,0.002180099,-9.73E-05,0.008611679,0,
00:00.1,0.002180099,-0.000114441,0.008605957,0,
00:00.1,0.002162933,-0.000108719,0.008605957,0,
00:00.1,0.002162933,-0.000102997,0.008600235,0,
00:00.1,0.002180099,-0.000102997,0.008605957,0,
00:00.1,0.002174377,-0.000114441,0.008640289,0,
00:00.1,0.002168655,-0.000108719,0.008640289,0,
00:00.1,0.002174377,-0.000108719,0.008634567,0,
00:00.1,0.002174377,-0.000108719,0.008628845,0,
00:00.1,0.002168655,-0.000120163,0.008628845,0,
00:00.1,0.002157211,-0.000125885,0.008623123,0,
00:00.1,0.002157211,-0.000131607,0.008623123,0,
00:00.1,0.002162933,-0.000131607,0.008623123,0,
00:00.1,0.002168655,-0.000120163,0.008623123,0,
00:00.1,0.002174377,-9.16E-05,0.008617401,0,
00:00.1,0.002174377,-9.16E-05,0.008623123,0,
00:00.1,0.002174377,-0.000114441,0.008623123,0,
00:00.2,0.002168655,-0.000120163,0.008623123,0,
00:00.2,0.002168655,-0.000108719,0.008611679,0,
00:00.2,0.002162933,-0.000102997,0.008600235,0,
00:00.2,0.002168655,-0.000120163,0.008600235,0,
00:00.2,0.002168655,-0.000125885,0.008623123,0,
00:00.2,0.002162933,-0.000108719,0.008634567,0,
00:00.2,0.002168655,-0.000102997,0.008628845,0,
00:00.2,0.002174377,-0.000102997,0.008628845,0,
00:00.2,0.002168655,-0.000102997,0.008628845,0,
00:00.2,0.002162933,-0.000108719,0.008628845,0,
00:00.2,0.002162933,-0.000120163,0.008623123,0,
00:00.2,0.002174377,-0.000120163,0.008617401,0,
00:00.2,0.002168655,-0.000120163,0.008605957,0,
00:00.2,0.002168655,-0.000114441,0.008617401,0,
00:00.2,0.002157211,-0.000114441,0.008628845,0,
00:00.2,0.002168655,-0.000114441,0.008634567,0,
00:00.2,0.002168655,-0.000108719,0.008628845,0,
00:00.2,0.002168655,-0.000108719,0.008628845,0,
00:00.2,0.002168655,-0.000108719,0.008623123,0,
00:00.2,0.002162933,-0.000120163,0.008617401,0,
00:00.2,0.002157211,-0.000120163,0.008605957,0,
00:00.2,0.002162933,-0.000120163,0.008611679,0,
00:00.2,0.002168655,-0.000120163,0.008628845,0,
00:00.2,0.002162933,-0.000125885,0.008628845,0,
00:00.2,0.002168655,-0.000120163,0.008634567,0,
00:00.3,0.002168655,-0.000108719,0.008628845,0,
00:00.3,0.002168655,-0.000102997,0.008623123,0,
00:00.3,0.002174377,-0.000108719,0.008623123,0,
00:00.3,0.002168655,-0.000125885,0.008617401,0,
00:00.3,0.002151489,-0.000154495,0.008623123,0,
00:00.3,0.002168655,-0.000108719,0.008617401,0,
00:00.3,0.002180099,-0.000102997,0.008617401,0,
00:00.3,0.002168655,-0.000108719,0.008623123,0,
00:00.3,0.002168655,-0.000108719,0.008628845,0,
00:00.3,0.002157211,-0.000125885,0.008623123,0,
00:00.3,0.002162933,-0.000120163,0.008623123,0,
00:00.3,0.002168655,-0.000114441,0.008628845,0,
00:00.3,0.002162933,-0.000125885,0.008623123,0,
00:00.3,0.002162933,-0.000137329,0.008623123,0,
00:00.3,0.002162933,-0.000131607,0.008628845,0,
00:00.3,0.002162933,-0.000102997,0.008623123,0,
00:00.3,0.002162933,-9.16E-05,0.008623123,0,
00:00.3,0.002162933,-0.000102997,0.008623123,0,
00:00.3,0.002168655,-0.000108719,0.008617401,0,
00:00.3,0.002162933,-0.000102997,0.008611679,0,
00:00.3,0.002168655,-0.000125885,0.008623123,0,
00:00.3,0.002162933,-0.000137329,0.008628845,0,
00:00.3,0.002168655,-0.000120163,0.008617401,0,
00:00.3,0.002168655,-0.000108719,0.008605957,0,
00:00.3,0.002162933,-0.000102997,0.008623123,0,
00:00.4,0.002168655,-0.000120163,0.008623123,0,
00:00.4,0.002162933,-0.000137329,0.008623123,0,
00:00.4,0.002157211,-0.000137329,0.008634567,0,
00:00.4,0.002162933,-0.000114441,0.008634567,0,
00:00.4,0.002168655,-0.000114441,0.008634567,0,
00:00.4,0.002157211,-0.000125885,0.008623123,0,
00:00.4,0.002162933,-0.000125885,0.008623123,0,
00:00.4,0.002162933,-0.000120163,0.008623123,0,
00:00.4,0.002168655,-0.000114441,0.008617401,0,
00:00.4,0.002162933,-0.000120163,0.008611679,0,
00:00.4,0.002168655,-0.000108719,0.008611679,0,
00:00.4,0.002162933,-0.000120163,0.008628845,0,
00:00.4,0.002157211,-0.000137329,0.008628845,0,
00:00.4,0.002162933,-0.000125885,0.008623123,0,
00:00.4,0.002157211,-0.000125885,0.008623123,0,
00:00.4,0.002157211,-0.000131607,0.008617401,0,
00:00.4,0.002162933,-0.000114441,0.008623123,0,
00:00.4,0.002162933,-0.000102997,0.008628845,0,
00:00.4,0.002157211,-0.000131607,0.008628845,0,
00:00.4,0.002162933,-0.000125885,0.008634567,0,
00:00.4,0.002168655,-0.000120163,0.008628845,0,
00:00.4,0.002162933,-0.000125885,0.008628845,0,
00:00.4,0.002162933,-0.000125885,0.008628845,0,
00:00.4,0.002157211,-0.000137329,0.008628845,0,
00:00.4,0.002157211,-0.000137329,0.008623123,0,
00:00.5,0.002157211,-0.000125885,0.008623123,0,
00:00.5,0.002162933,-0.000125885,0.008623123,0,
00:00.5,0.002174377,-0.000114441,0.008623123,0,
00:00.5,0.002162933,-0.000114441,0.008623123,0,
00:00.5,0.002157211,-0.000120163,0.008623123,0,
00:00.5,0.002157211,-0.000131607,0.008623123,0,
00:00.5,0.002157211,-0.000131607,0.008611679,0,
00:00.5,0.002151489,-0.000114441,0.008594513,0,
00:00.5,0.002145767,-0.000114441,0.008600235,0,
00:00.5,0.002180099,-0.000120163,0.008611679,0,
00:00.5,0.002168655,-0.000131607,0.008651733,0,
00:00.5,0.002168655,-0.000131607,0.008646011,0,
00:00.5,0.002162933,-0.000137329,0.008634567,0,
00:00.5,0.002157211,-0.000143051,0.008640289,0,
00:00.5,0.002157211,-0.000131607,0.008634567,0,
00:00.5,0.002162933,-0.000137329,0.008628845,0,
00:00.5,0.002151489,-0.000148773,0.008623123,0,
00:00.5,0.002151489,-0.000143051,0.008623123,0,
00:00.5,0.002174377,-0.000108719,0.008623123,0,
00:00.5,0.002168655,-0.000108719,0.008628845,0,
00:00.5,0.002162933,-0.000120163,0.008628845,0,
00:00.5,0.002168655,-0.000120163,0.008628845,0,
00:00.5,0.002162933,-0.000125885,0.008628845,0,
00:00.5,0.002168655,-0.000125885,0.008623123,0,
00:00.5,0.002162933,-0.000120163,0.008611679,0,
00:00.6,0.002157211,-0.000125885,0.008617401,0,
00:00.6,0.002157211,-0.000148773,0.008634567,0,
00:00.6,0.002157211,-0.000143051,0.008634567,0,
00:00.6,0.002157211,-0.000137329,0.008628845,0,
00:00.6,0.002157211,-0.000143051,0.008628845,0,
00:00.6,0.002162933,-0.000137329,0.008628845,0,
00:00.6,0.002157211,-0.000137329,0.008628845,0,
00:00.6,0.002157211,-0.000131607,0.008623123,0,
00:00.6,0.002157211,-0.000125885,0.008617401,0,
00:00.6,0.002162933,-0.000143051,0.008617401,0,
00:00.6,0.002168655,-0.000114441,0.008617401,0,
00:00.6,0.002162933,-0.000125885,0.008628845,0,
00:00.6,0.002162933,-0.000125885,0.008634567,0,
00:00.6,0.002168655,-0.000125885,0.008634567,0,
00:00.6,0.002162933,-0.000131607,0.008628845,0,
00:00.6,0.002162933,-0.000137329,0.008634567,0,
00:00.6,0.002162933,-0.000137329,0.008634567,0,
00:00.6,0.002162933,-0.000137329,0.008628845,0,
00:00.6,0.002162933,-0.000131607,0.008628845,0,
00:00.6,0.002157211,-0.000131607,0.008628845,0,
00:00.6,0.002157211,-0.000131607,0.008628845,0,
00:00.6,0.002162933,-0.000131607,0.008628845,0,
00:00.6,0.002162933,-0.000137329,0.008628845,0,
00:00.6,0.002162933,-0.000148773,0.008634567,0,
00:00.6,0.002157211,-0.000143051,0.008634567,0,
00:00.7,0.002162933,-0.000137329,0.008628845,0,
00:00.7,0.002162933,-0.000137329,0.008628845,0,
00:00.7,0.002162933,-0.000131607,0.008628845,0,
00:00.7,0.002162933,-0.000114441,0.008628845,0,
00:00.7,0.002162933,-0.000125885,0.008623123,0,
00:00.7,0.002162933,-0.000125885,0.008617401,0,
00:00.7,0.002151489,-0.000137329,0.008623123,0,
00:00.7,0.002151489,-0.000143051,0.008634567,0,
00:00.7,0.002162933,-0.000143051,0.008628845,0,
00:00.7,0.002168655,-0.000131607,0.008600235,0,
00:00.7,0.002162933,-0.000143051,0.008623123,0,
00:00.7,0.002162933,-0.000143051,0.008634567,0,
00:00.7,0.002162933,-0.000120163,0.008634567,0,
00:00.7,0.002162933,-0.000120163,0.008634567,0,
00:00.7,0.002162933,-0.000131607,0.008640289,0,
00:00.7,0.002157211,-0.000137329,0.008640289,0,
00:00.7,0.002151489,-0.000148773,0.008640289,0,
00:00.7,0.002157211,-0.000143051,0.008628845,0,
00:00.7,0.002162933,-0.000131607,0.008634567,0,
00:00.7,0.002157211,-0.000137329,0.008634567,0,
00:00.7,0.002162933,-0.000137329,0.008634567,0,
00:00.7,0.002162933,-0.000131607,0.008634567,0,
00:00.7,0.002162933,-0.000137329,0.008634567,0,
00:00.7,0.002157211,-0.000143051,0.008628845,0,
00:00.7,0.002151489,-0.000148773,0.008628845,0,
00:00.8,0.002162933,-0.000143051,0.008628845,0,
00:00.8,0.002162933,-0.000137329,0.008628845,0,
00:00.8,0.002151489,-0.000137329,0.008628845,0,
00:00.8,0.002157211,-0.000125885,0.008634567,0,
00:00.8,0.002162933,-0.000131607,0.008628845,0,
00:00.8,0.002157211,-0.000143051,0.008623123,0,
00:00.8,0.002157211,-0.000131607,0.008617401,0,
00:00.8,0.002157211,-0.000125885,0.008617401,0,
00:00.8,0.002157211,-0.000125885,0.008623123,0,
00:00.8,0.002157211,-0.000137329,0.008623123,0,
00:00.8,0.002162933,-0.000131607,0.008623123,0,
00:00.8,0.002168655,-0.000143051,0.008646011,0,
00:00.8,0.002168655,-0.000137329,0.008646011,0,
00:00.8,0.002157211,-0.000143051,0.008628845,0,
00:00.8,0.002162933,-0.000137329,0.008623123,0,
00:00.8,0.002151489,-0.000143051,0.008623123,0,
00:00.8,0.002151489,-0.000148773,0.008640289,0,
00:00.8,0.002151489,-0.000148773,0.008640289,0,
00:00.8,0.002162933,-0.000125885,0.008628845,0,
00:00.8,0.002157211,-0.000131607,0.008634567,0,
00:00.8,0.002162933,-0.000137329,0.008628845,0,
00:00.8,0.002151489,-0.000131607,0.008634567,0,
00:00.8,0.002151489,-0.000137329,0.008634567,0,
00:00.8,0.002168655,-0.000137329,0.008634567,0,
00:00.8,0.002162933,-0.000143051,0.008634567,0,
00:00.9,0.002151489,-0.000148773,0.008628845,0,
00:00.9,0.002157211,-0.000148773,0.008623123,0,
00:00.9,0.002157211,-0.000143051,0.008617401,0,
00:00.9,0.002162933,-0.000137329,0.008623123,0,
00:00.9,0.002162933,-0.000131607,0.008640289,0,
00:00.9,0.002162933,-0.000131607,0.008634567,0,
00:00.9,0.002162933,-0.000131607,0.008628845,0,
00:00.9,0.002162933,-0.000137329,0.008628845,0,
00:00.9,0.002151489,-0.000137329,0.008617401,0,
00:00.9,0.002145767,-0.000148773,0.008600235,0,
00:00.9,0.002174377,-0.000131607,0.008640289,0,
00:00.9,0.002174377,-0.000125885,0.008651733,0,
00:00.9,0.002162933,-0.000131607,0.008646011,0,
00:00.9,0.002162933,-0.000125885,0.008640289,0,
00:00.9,0.002162933,-0.000125885,0.008634567,0,
00:00.9,0.002157211,-0.000131607,0.008628845,0,
00:00.9,0.002162933,-0.000131607,0.008617401,0,
00:00.9,0.002145767,-0.000143051,0.008623123,0,
00:00.9,0.002157211,-0.000148773,0.008640289,0,
00:00.9,0.002168655,-0.000137329,0.008646011,0,
00:00.9,0.002162933,-0.000137329,0.008640289,0,
00:00.9,0.002157211,-0.000143051,0.008634567,0,
00:00.9,0.002157211,-0.000137329,0.008634567,0,
00:00.9,0.002162933,-0.000137329,0.008640289,0,
00:00.9,0.002162933,-0.000137329,0.008634567,0,
00:01.0,0.002157211,-0.000143051,0.008634567,0,
00:01.0,0.002151489,-0.000137329,0.008623123,0,
00:01.0,0.002151489,-0.000137329,0.008605957,0,
00:01.0,0.002157211,-0.000148773,0.008623123,0,
00:01.0,0.002162933,-0.000137329,0.008651733,0,
00:01.0,0.002157211,-0.000137329,0.008646011,0,
00:01.0,0.002157211,-0.000120163,0.008634567,0,
00:01.0,0.002157211,-0.000137329,0.008634567,0,
00:01.0,0.002157211,-0.000143051,0.008634567,0,
00:01.0,0.002162933,-0.000131607,0.008623123,0,
00:01.0,0.002151489,-0.000131607,0.008600235,0,
00:01.0,0.002145767,-0.000154495,0.008623123,0,
00:00:01,0.002162933,-0.000154495,0.008640289,0,
00:01.0,0.002151489,-0.000154495,0.008651733,0,
00:01.0,0.002157211,-0.000137329,0.008657455,0,
00:01.0,0.002162933,-0.000125885,0.008646011,0,
00:01.0,0.002162933,-0.000125885,0.008640289,0,
00:01.0,0.002162933,-0.000125885,0.008640289,0,
00:01.0,0.002162933,-0.000125885,0.008634567,0,
00:01.0,0.002157211,-0.000131607,0.008628845,0,
00:01.0,0.002157211,-0.000131607,0.008623123,0,
00:01.0,0.002157211,-0.000131607,0.008623123,0,
00:01.0,0.002145767,-0.000143051,0.008646011,0,
00:01.0,0.002151489,-0.000154495,0.008646011,0,
00:01.0,0.002151489,-0.000165939,0.008640289,0,
00:01.1,0.002145767,-0.000148773,0.008634567,0,
00:01.1,0.002162933,-0.000120163,0.008623123,0,
00:01.1,0.002162933,-0.000114441,0.008623123,0,
00:01.1,0.002157211,-0.000131607,0.008651733,0,
00:01.1,0.002157211,-0.000143051,0.008646011,0,
00:01.1,0.002157211,-0.000143051,0.008640289,0,
00:01.1,0.002157211,-0.000131607,0.008634567,0,
00:01.1,0.002151489,-0.000131607,0.008628845,0,
00:01.1,0.002145767,-0.000143051,0.008646011,0,
00:01.1,0.002145767,-0.000154495,0.008651733,0,
00:01.1,0.002162933,-0.000154495,0.008640289,0,
00:01.1,0.002162933,-0.000137329,0.008640289,0,
00:01.1,0.002157211,-0.000131607,0.008640289,0,
00:01.1,0.002157211,-0.000120163,0.008640289,0,
00:01.1,0.002157211,-0.000125885,0.008628845,0,
00:01.1,0.002157211,-0.000137329,0.008646011,0,
00:01.1,0.002157211,-0.000143051,0.008651733,0,
00:01.1,0.002151489,-0.000143051,0.008640289,0,
00:01.1,0.002151489,-0.000148773,0.008640289,0,
00:01.1,0.002151489,-0.000160217,0.008640289,0,
00:01.1,0.002162933,-0.000148773,0.008646011,0,
00:01.1,0.002157211,-0.000131607,0.008640289,0,
00:01.1,0.002151489,-0.000125885,0.008640289,0,
00:01.1,0.002157211,-0.000125885,0.008640289,0,
00:01.1,0.002151489,-0.000143051,0.008640289,0,
00:01.2,0.002151489,-0.000154495,0.008640289,0,
00:01.2,0.002157211,-0.000143051,0.008640289,0,
00:01.2,0.002157211,-0.000137329,0.008646011,0,
00:01.2,0.002157211,-0.000143051,0.008657455,0,
00:01.2,0.002151489,-0.000137329,0.008646011,0,
00:01.2,0.002157211,-0.000143051,0.008640289,0,
00:01.2,0.002157211,-0.000131607,0.008640289,0,
00:01.2,0.002157211,-0.000125885,0.008640289,0,
00:01.2,0.002151489,-0.000137329,0.008634567,0,
00:01.2,0.002145767,-0.000148773,0.008646011,0,
00:01.2,0.002151489,-0.000143051,0.008651733,0,
00:01.2,0.002151489,-0.000125885,0.008646011,0,
00:01.2,0.002157211,-0.000125885,0.008651733,0,
00:01.2,0.002157211,-0.000131607,0.008646011,0,
00:01.2,0.002157211,-0.000131607,0.008651733,0,
00:01.2,0.002151489,-0.000131607,0.008651733,0,
00:01.2,0.002151489,-0.000143051,0.008646011,0,
00:01.2,0.002145767,-0.000143051,0.008640289,0,
00:01.2,0.002151489,-0.000143051,0.008640289,0,
00:01.2,0.002157211,-0.000143051,0.008646011,0,
00:01.2,0.002162933,-0.000125885,0.008640289,0,
00:01.2,0.002162933,-0.000114441,0.008651733,0,
00:01.2,0.002157211,-0.000125885,0.008657455,0,
00:01.2,0.002151489,-0.000137329,0.008651733,0,
00:01.2,0.002151489,-0.000137329,0.008646011,0,
00:01.3,0.002140045,-0.000148773,0.008646011,0,
00:01.3,0.002151489,-0.000137329,0.008640289,0,
00:01.3,0.002157211,-0.000125885,0.008634567,0,
00:01.3,0.002151489,-0.000120163,0.008651733,0,
00:01.3,0.002157211,-0.000131607,0.008651733,0,
00:01.3,0.002151489,-0.000148773,0.008651733,0,
00:01.3,0.002151489,-0.000137329,0.008657455,0,
00:01.3,0.002151489,-0.000120163,0.008657455,0,
00:01.3,0.002151489,-0.000125885,0.008657455,0,
00:01.3,0.002151489,-0.000125885,0.008651733,0,
00:01.3,0.002145767,-0.000137329,0.008646011,0,
00:01.3,0.002151489,-0.000143051,0.008651733,0,
00:01.3,0.002151489,-0.000120163,0.008657455,0,
00:01.3,0.002151489,-0.000120163,0.008646011,0,
00:01.3,0.002151489,-0.000120163,0.008651733,0,
00:01.3,0.002151489,-0.000131607,0.008663177,0,
00:01.3,0.002151489,-0.000143051,0.008663177,0,
00:01.3,0.002151489,-0.000131607,0.008651733,0,
00:01.3,0.002145767,-0.000125885,0.008646011,0,
00:01.3,0.002145767,-0.000154495,0.008657455,0,
00:01.3,0.002145767,-0.000154495,0.008663177,0,
00:01.3,0.002151489,-0.000125885,0.008657455,0,
00:01.3,0.002157211,-0.000114441,0.0086689,0,
00:01.3,0.002151489,-0.000114441,0.008663177,0,
00:01.3,0.002145767,-0.000114441,0.008663177,0,
00:01.4,0.002151489,-0.000114441,0.008657455,0,
00:01.4,0.002151489,-0.000131607,0.008657455,0,
00:01.4,0.002151489,-0.000125885,0.008657455,0,
00:01.4,0.002151489,-0.000114441,0.008651733,0,
00:01.4,0.002145767,-0.000125885,0.008651733,0,
00:01.4,0.002140045,-0.000137329,0.0086689,0,
00:01.4,0.002145767,-0.000137329,0.008663177,0,
00:01.4,0.002151489,-0.000131607,0.008663177,0,
00:01.4,0.002145767,-0.000131607,0.008674622,0,
00:01.4,0.002145767,-0.000131607,0.0086689,0,
00:01.4,0.002145767,-0.000137329,0.008663177,0,
00:01.4,0.002134323,-0.000143051,0.0086689,0,
00:01.4,0.002145767,-0.000131607,0.008663177,0,
00:01.4,0.002151489,-0.000120163,0.008651733,0,
00:01.4,0.002145767,-0.000114441,0.008640289,0,
00:01.4,0.002151489,-0.000137329,0.008674622,0,
00:01.4,0.002145767,-0.000131607,0.008680344,0,
00:01.4,0.002145767,-0.000125885,0.008674622,0,
00:01.4,0.002145767,-0.000120163,0.008674622,0,
00:01.4,0.002140045,-0.000125885,0.0086689,0,
00:01.4,0.002134323,-0.000143051,0.0086689,0,
00:01.4,0.002140045,-0.000131607,0.008663177,0,
00:01.4,0.002151489,-0.000114441,0.0086689,0,
00:01.4,0.002151489,-0.000102997,0.008657455,0,
00:01.4,0.002145767,-0.000114441,0.008651733,0,
00:01.5,0.002140045,-0.000120163,0.008663177,0,
00:01.5,0.002140045,-0.000125885,0.008674622,0,
00:01.5,0.002140045,-0.000137329,0.008691788,0,
00:01.5,0.002140045,-0.000131607,0.008691788,0,
00:01.5,0.002140045,-0.000125885,0.008674622,0,
00:01.5,0.002145767,-0.000125885,0.008651733,0,
00:01.5,0.002134323,-0.000160217,0.0086689,0,
00:01.5,0.002134323,-0.000143051,0.008686066,0,
00:01.5,0.002145767,-0.000125885,0.008686066,0,
00:01.5,0.002145767,-0.000120163,0.008691788,0,
00:01.5,0.002145767,-0.000120163,0.008680344,0,
00:01.5,0.002140045,-0.000137329,0.008680344,0,
00:01.5,0.002145767,-0.000131607,0.008680344,0,
00:01.5,0.002140045,-0.000120163,0.008680344,0,
00:01.5,0.002140045,-0.000125885,0.008680344,0,
00:01.5,0.002140045,-0.000131607,0.008680344,0,
00:01.5,0.002140045,-0.000125885,0.0086689,0,
00:01.5,0.002140045,-0.000108719,0.008657455,0,
00:01.5,0.002145767,-0.000120163,0.0086689,0,
00:01.5,0.002140045,-0.000131607,0.008691788,0,
00:01.5,0.002140045,-0.000131607,0.008691788,0,
00:01.5,0.002151489,-0.000131607,0.008680344,0,
00:01.5,0.002145767,-0.000125885,0.008663177,0,
00:01.5,0.002145767,-0.000143051,0.008663177,0,
00:01.5,0.002117157,-0.000137329,0.008680344,0,
00:01.6,0.002117157,-0.000143051,0.008691788,0,
00:01.6,0.002145767,-0.000137329,0.008703232,0,
00:01.6,0.002140045,-0.000143051,0.00869751,0,
00:01.6,0.002140045,-0.000148773,0.008691788,0,
00:01.6,0.002145767,-0.000120163,0.008686066,0,
00:01.6,0.002145767,-0.000108719,0.008691788,0,
00:01.6,0.002145767,-0.000120163,0.008686066,0,
00:01.6,0.002140045,-0.000120163,0.008691788,0,
00:01.6,0.002134323,-0.000131607,0.008686066,0,
00:01.6,0.002140045,-0.000143051,0.008691788,0,
00:01.6,0.002145767,-0.000131607,0.00869751,0,
00:01.6,0.002140045,-0.000131607,0.008686066,0,
00:01.6,0.002140045,-0.000131607,0.008686066,0,
00:01.6,0.002140045,-0.000131607,0.008691788,0,
00:01.6,0.002140045,-0.000131607,0.008691788,0,
00:01.6,0.002140045,-0.000125885,0.008680344,0,
00:01.6,0.002140045,-0.000125885,0.008657455,0,
00:01.6,0.002140045,-0.000131607,0.0086689,0,
00:01.6,0.002134323,-0.000143051,0.00869751,0,
00:01.6,0.002145767,-0.000120163,0.008708954,0,
00:01.6,0.002134323,-0.000137329,0.008708954,0,
00:01.6,0.002140045,-0.000131607,0.008691788,0,
00:01.6,0.002134323,-0.000143051,0.008680344,0,
00:01.6,0.002134323,-0.000160217,0.008691788,0,
00:01.6,0.002128601,-0.000143051,0.008708954,0,
00:01.7,0.002157211,-0.000114441,0.00869751,0,
00:01.7,0.002145767,-0.000120163,0.008686066,0,
00:01.7,0.002145767,-0.000125885,0.008691788,0,
00:01.7,0.002134323,-0.000125885,0.008691788,0,
00:01.7,0.002134323,-0.000131607,0.008703232,0,
00:01.7,0.002134323,-0.000125885,0.008703232,0,
00:01.7,0.002134323,-0.000125885,0.008703232,0,
00:01.7,0.002134323,-0.000143051,0.008703232,0,
00:01.7,0.002134323,-0.000154495,0.008703232,0,
00:01.7,0.002134323,-0.000131607,0.00869751,0,
00:01.7,0.002140045,-0.000125885,0.008686066,0,
00:01.7,0.002140045,-0.000120163,0.00869751,0,
00:01.7,0.002140045,-0.000125885,0.008691788,0,
00:01.7,0.002140045,-0.000125885,0.008708954,0,
00:01.7,0.002140045,-0.000131607,0.008691788,0,
00:01.7,0.002134323,-0.000143051,0.008674622,0,
00:01.7,0.002134323,-0.000131607,0.008703232,0,
00:01.7,0.002134323,-0.000125885,0.008708954,0,
00:01.7,0.002134323,-0.000143051,0.008703232,0,
00:01.7,0.002128601,-0.000137329,0.00869751,0,
00:01.7,0.002122879,-0.000125885,0.008708954,0,
00:01.7,0.002145767,-0.000131607,0.008714676,0,
00:01.7,0.002122879,-0.000154495,0.008714676,0,
00:01.7,0.002134323,-0.000154495,0.008708954,0,
00:01.7,0.002145767,-0.000131607,0.008708954,0,
00:01.8,0.002145767,-0.000125885,0.008708954,0,
00:01.8,0.002145767,-0.000120163,0.008703232,0,
00:01.8,0.002140045,-0.000108719,0.00869751,0,
00:01.8,0.002140045,-0.000125885,0.008703232,0,
00:01.8,0.002134323,-0.000131607,0.008708954,0,
00:01.8,0.002134323,-0.000137329,0.00869751,0,
00:01.8,0.002140045,-0.000125885,0.00869751,0,
00:01.8,0.002140045,-0.000120163,0.008703232,0,
00:01.8,0.002128601,-0.000143051,0.008691788,0,
00:01.8,0.002122879,-0.000148773,0.008703232,0,
00:01.8,0.002134323,-0.000131607,0.008708954,0,
00:01.8,0.002134323,-0.000131607,0.008708954,0,
00:01.8,0.002140045,-0.000131607,0.008714676,0,
00:01.8,0.002134323,-0.000131607,0.008708954,0,
00:01.8,0.002128601,-0.000137329,0.00869751,0,
00:01.8,0.002140045,-0.000131607,0.008708954,0,
00:01.8,0.002140045,-0.000120163,0.008703232,0,
00:01.8,0.002140045,-0.000131607,0.008703232,0,
00:01.8,0.002128601,-0.000137329,0.008714676,0,
00:01.8,0.002134323,-0.000125885,0.008714676,0,
00:01.8,0.002128601,-0.000125885,0.008708954,0,
00:01.8,0.002140045,-0.000120163,0.00869751,0,
00:01.8,0.002134323,-0.000125885,0.008703232,0,
00:01.8,0.002134323,-0.000120163,0.008703232,0,
00:01.8,0.002140045,-0.000125885,0.008686066,0,
00:01.9,0.002134323,-0.000131607,0.008680344,0,
00:01.9,0.002134323,-0.000154495,0.00872612,0,
00:01.9,0.002134323,-0.000143051,0.00872612,0,
00:01.9,0.002134323,-0.000131607,0.00872612,0,
00:01.9,0.002134323,-0.000125885,0.008720398,0,
00:01.9,0.002134323,-0.000125885,0.008714676,0,
00:01.9,0.002134323,-0.000137329,0.008714676,0,
00:01.9,0.002134323,-0.000143051,0.008708954,0,
00:01.9,0.002128601,-0.000143051,0.008708954,0,
00:01.9,0.002128601,-0.000148773,0.008714676,0,
00:01.9,0.002134323,-0.000143051,0.008708954,0,
00:01.9,0.002128601,-0.000125885,0.008720398,0,
00:01.9,0.002134323,-0.000125885,0.008720398,0,
00:01.9,0.002140045,-0.000120163,0.008714676,0,
00:01.9,0.002140045,-0.000131607,0.008708954,0,
00:01.9,0.002128601,-0.000137329,0.008708954,0,
00:01.9,0.002134323,-0.000125885,0.008680344,0,
00:01.9,0.002128601,-0.000143051,0.00869751,0,
00:01.9,0.002122879,-0.000125885,0.00872612,0,
00:01.9,0.002128601,-0.000148773,0.008720398,0,
00:01.9,0.002128601,-0.000160217,0.008731842,0,
00:01.9,0.002128601,-0.000143051,0.008720398,0,
00:01.9,0.002128601,-0.000143051,0.008720398,0,
00:01.9,0.002128601,-0.000143051,0.008720398,0,
00:01.9,0.002128601,-0.000143051,0.008720398,0,
00:02.0,0.002128601,-0.000143051,0.008714676,0,
00:02.0,0.002128601,-0.000148773,0.008714676,0,
00:02.0,0.002128601,-0.000137329,0.008708954,0,
00:02.0,0.002128601,-0.000125885,0.008708954,0,
00:02.0,0.002128601,-0.000137329,0.008720398,0,
00:02.0,0.002128601,-0.000143051,0.008720398,0,
00:02.0,0.002128601,-0.000131607,0.008714676,0,
00:02.0,0.002128601,-0.000125885,0.008720398,0,
00:02.0,0.002128601,-0.000131607,0.008720398,0,
00:02.0,0.002128601,-0.000137329,0.008714676,0,
00:02.0,0.002122879,-0.000131607,0.008708954,0,
00:02.0,0.002105713,-0.000137329,0.008714676,0,
00:00:02,0.002122879,-0.000143051,0.008720398,0,
00:02.0,0.002140045,-0.000137329,0.00869751,0,
00:02.0,0.002134323,-0.000148773,0.008714676,0,
00:02.0,0.002128601,-0.000154495,0.008731842,0,
00:02.0,0.002128601,-0.000148773,0.00872612,0,
00:02.0,0.002134323,-0.000143051,0.008720398,0,
00:02.0,0.002134323,-0.000137329,0.008708954,0,
00:02.0,0.002122879,-0.000131607,0.008703232,0,
00:02.0,0.002122879,-0.000143051,0.00872612,0,
00:02.0,0.002122879,-0.000154495,0.008731842,0,
00:02.0,0.002122879,-0.000154495,0.008731842,0,
00:02.0,0.002128601,-0.000143051,0.008720398,0,
00:02.0,0.002128601,-0.000143051,0.00872612,0,
00:02.1,0.002128601,-0.000148773,0.00872612,0,
00:02.1,0.002128601,-0.000148773,0.008720398,0,
00:02.1,0.002128601,-0.000148773,0.008720398,0,
00:02.1,0.002128601,-0.000148773,0.008720398,0,
00:02.1,0.002128601,-0.000148773,0.008720398,0,
00:02.1,0.002122879,-0.000160217,0.008720398,0,
00:02.1,0.002122879,-0.000154495,0.008714676,0,
00:02.1,0.002128601,-0.000137329,0.008708954,0,
00:02.1,0.002122879,-0.000160217,0.00872612,0,
00:02.1,0.002128601,-0.000143051,0.008731842,0,
00:02.1,0.002134323,-0.000137329,0.008720398,0,
00:02.1,0.002134323,-0.000143051,0.008714676,0,
00:02.1,0.002128601,-0.000143051,0.008703232,0,
00:02.1,0.002122879,-0.000143051,0.008691788,0,
00:02.1,0.002122879,-0.000137329,0.008703232,0,
00:02.1,0.002122879,-0.000148773,0.008737564,0,
00:02.1,0.002128601,-0.000148773,0.008737564,0,
00:02.1,0.002128601,-0.000143051,0.00872612,0,
00:02.1,0.002134323,-0.000131607,0.008703232,0,
00:02.1,0.002111435,-0.000160217,0.008731842,0,
00:02.1,0.002111435,-0.000165939,0.008737564,0,
00:02.1,0.002128601,-0.000165939,0.008737564,0,
00:02.1,0.002128601,-0.000171661,0.008731842,0,
00:02.1,0.002128601,-0.000165939,0.00872612,0,
00:02.1,0.002122879,-0.000154495,0.008720398,0,
00:02.2,0.002128601,-0.000143051,0.00872612,0,
00:02.2,0.002128601,-0.000143051,0.00872612,0,
00:02.2,0.002122879,-0.000154495,0.00872612,0,
00:02.2,0.002111435,-0.000160217,0.00872612,0,
00:02.2,0.002117157,-0.000160217,0.008720398,0,
00:02.2,0.002122879,-0.000160217,0.008720398,0,
00:02.2,0.002122879,-0.000154495,0.008720398,0,
00:02.2,0.002128601,-0.000143051,0.008720398,0,
00:02.2,0.002128601,-0.000125885,0.008714676,0,
00:02.2,0.002128601,-0.000143051,0.008720398,0,
00:02.2,0.002128601,-0.000148773,0.008720398,0,
00:02.2,0.002128601,-0.000148773,0.008708954,0,
00:02.2,0.002117157,-0.000183105,0.008720398,0,
00:02.2,0.002117157,-0.000177383,0.00872612,0,
00:02.2,0.002122879,-0.000154495,0.008720398,0,
00:02.2,0.002122879,-0.000154495,0.00872612,0,
00:02.2,0.002122879,-0.000160217,0.008737564,0,
00:02.2,0.002128601,-0.000143051,0.008731842,0,
00:02.2,0.002128601,-0.000148773,0.00872612,0,
00:02.2,0.002117157,-0.000165939,0.00872612,0,
00:02.2,0.002117157,-0.000171661,0.00872612,0,
00:02.2,0.002111435,-0.000177383,0.008720398,0,
00:02.2,0.002122879,-0.000177383,0.00872612,0,
00:02.2,0.002128601,-0.000154495,0.008720398,0,
00:02.2,0.002128601,-0.000143051,0.008720398,0,
00:02.3,0.002128601,-0.000137329,0.00872612,0,
00:02.3,0.002128601,-0.000143051,0.008720398,0,
00:02.3,0.002122879,-0.000154495,0.008714676,0,
00:02.3,0.002122879,-0.000154495,0.008714676,0,
00:02.3,0.002122879,-0.000148773,0.008703232,0,
00:02.3,0.002117157,-0.000171661,0.008714676,0,
00:02.3,0.002117157,-0.000188828,0.008743286,0,
00:02.3,0.002128601,-0.000154495,0.008731842,0,
00:02.3,0.002134323,-0.000143051,0.008720398,0,
00:02.3,0.002128601,-0.000148773,0.00872612,0,
00:02.3,0.002128601,-0.000148773,0.008720398,0,
00:02.3,0.002122879,-0.000154495,0.008720398,0,
00:02.3,0.002122879,-0.000160217,0.008720398,0,
00:02.3,0.002111435,-0.000165939,0.008720398,0,
00:02.3,0.002122879,-0.000165939,0.00872612,0,
00:02.3,0.002122879,-0.000160217,0.00872612,0,
00:02.3,0.002122879,-0.000160217,0.008720398,0,
00:02.3,0.002122879,-0.000154495,0.00872612,0,
00:02.3,0.002128601,-0.000137329,0.00872612,0,
00:02.3,0.002134323,-0.000143051,0.008720398,0,
00:02.3,0.002122879,-0.000143051,0.008720398,0,
00:02.3,0.002117157,-0.000160217,0.008720398,0,
00:02.3,0.002122879,-0.000165939,0.008720398,0,
00:02.3,0.002122879,-0.000154495,0.008714676,0,
00:02.3,0.002122879,-0.000160217,0.008720398,0,
00:02.4,0.002122879,-0.000154495,0.008714676,0,
00:02.4,0.002122879,-0.000154495,0.00872612,0,
00:02.4,0.002122879,-0.000160217,0.00872612,0,
00:02.4,0.002128601,-0.000148773,0.008720398,0,
00:02.4,0.002122879,-0.000165939,0.00872612,0,
00:02.4,0.002128601,-0.000148773,0.008714676,0,
00:02.4,0.002117157,-0.000148773,0.008720398,0,
00:02.4,0.002128601,-0.000143051,0.008720398,0,
00:02.4,0.002122879,-0.000154495,0.00872612,0,
00:02.4,0.002122879,-0.000148773,0.00872612,0,
00:02.4,0.002122879,-0.000148773,0.00872612,0,
00:02.4,0.002122879,-0.000154495,0.00872612,0,
00:02.4,0.002122879,-0.000154495,0.008714676,0,
00:02.4,0.002122879,-0.000165939,0.008720398,0,
00:02.4,0.002122879,-0.000160217,0.008731842,0,
00:02.4,0.002122879,-0.000148773,0.00872612,0,
00:02.4,0.002122879,-0.000148773,0.00872612,0,
00:02.4,0.002128601,-0.000143051,0.008731842,0,
00:02.4,0.002128601,-0.000137329,0.008720398,0,
00:02.4,0.002128601,-0.000143051,0.008731842,0,
00:02.4,0.002128601,-0.000143051,0.008731842,0,
00:02.4,0.002117157,-0.000154495,0.00872612,0,
00:02.4,0.002117157,-0.000160217,0.008708954,0,
00:02.4,0.002122879,-0.000154495,0.008708954,0,
00:02.4,0.002122879,-0.000160217,0.008731842,0,
00:02.5,0.002117157,-0.000154495,0.008737564,0,
00:02.5,0.002128601,-0.000137329,0.008731842,0,
00:02.5,0.002122879,-0.000143051,0.008731842,0,
00:02.5,0.002128601,-0.000143051,0.008737564,0,
00:02.5,0.002122879,-0.000143051,0.008743286,0,
00:02.5,0.002122879,-0.000148773,0.008737564,0,
00:02.5,0.002122879,-0.000148773,0.008731842,0,
00:02.5,0.002128601,-0.000125885,0.008731842,0,
00:02.5,0.002122879,-0.000131607,0.008714676,0,
00:02.5,0.002128601,-0.000143051,0.008720398,0,
00:02.5,0.002122879,-0.000143051,0.008737564,0,
00:02.5,0.002122879,-0.000137329,0.008737564,0,
00:02.5,0.002122879,-0.000143051,0.008731842,0,
00:02.5,0.002122879,-0.000148773,0.008743286,0,
00:02.5,0.002122879,-0.000148773,0.008737564,0,
00:02.5,0.002122879,-0.000143051,0.00872612,0,
00:02.5,0.002128601,-0.000137329,0.008737564,0,
00:02.5,0.002128601,-0.000137329,0.008737564,0,
00:02.5,0.002122879,-0.000143051,0.008737564,0,
00:02.5,0.002117157,-0.000143051,0.008743286,0,
00:02.5,0.002122879,-0.000143051,0.008743286,0,
00:02.5,0.002122879,-0.000137329,0.008737564,0,
00:02.5,0.002117157,-0.000143051,0.008737564,0,
00:02.5,0.002117157,-0.000154495,0.008737564,0,
00:02.5,0.002134323,-0.000131607,0.008731842,0,
00:02.6,0.002128601,-0.000120163,0.008731842,0,
00:02.6,0.002122879,-0.000120163,0.008743286,0,
00:02.6,0.002128601,-0.000120163,0.008749008,0,
00:02.6,0.002128601,-0.000120163,0.008749008,0,
00:02.6,0.002128601,-0.000125885,0.008749008,0,
00:02.6,0.002128601,-0.000137329,0.008743286,0,
00:02.6,0.002122879,-0.000131607,0.008743286,0,
00:02.6,0.002117157,-0.000120163,0.008743286,0,
00:02.6,0.002128601,-0.000120163,0.008743286,0,
00:02.6,0.002122879,-0.000131607,0.008737564,0,
00:02.6,0.002128601,-0.000125885,0.008737564,0,
00:02.6,0.002128601,-0.000114441,0.008760452,0,
00:02.6,0.002122879,-0.000125885,0.008760452,0,
00:02.6,0.002122879,-0.000125885,0.00875473,0,
00:02.6,0.002122879,-0.000131607,0.00875473,0,
00:02.6,0.002122879,-0.000125885,0.008760452,0,
00:02.6,0.002122879,-0.000125885,0.008760452,0,
00:02.6,0.002122879,-0.000125885,0.008760452,0,
00:02.6,0.002122879,-0.000120163,0.008766174,0,
00:02.6,0.002117157,-0.000125885,0.008760452,0,
00:02.6,0.002122879,-0.000131607,0.008760452,0,
00:02.6,0.002122879,-0.000114441,0.00875473,0,
00:02.6,0.002122879,-0.000114441,0.008749008,0,
00:02.6,0.002128601,-0.000114441,0.008766174,0,
00:02.6,0.002128601,-0.000108719,0.008766174,0,
00:02.7,0.002122879,-0.000120163,0.008766174,0,
00:02.7,0.002128601,-0.000108719,0.008766174,0,
00:02.7,0.002122879,-0.000102997,0.00875473,0,
00:02.7,0.002122879,-0.000108719,0.00875473,0,
00:02.7,0.002117157,-0.000125885,0.008771896,0,
00:02.7,0.002111435,-0.000143051,0.008777618,0,
00:02.7,0.002117157,-0.000131607,0.008777618,0,
00:02.7,0.002128601,-0.000108719,0.00878334,0,
00:02.7,0.002122879,-0.000102997,0.008777618,0,
00:02.7,0.002122879,-0.000108719,0.008777618,0,
00:02.7,0.002122879,-0.000108719,0.00878334,0,
00:02.7,0.002122879,-0.000108719,0.008777618,0,
00:02.7,0.002122879,-0.000108719,0.008777618,0,
00:02.7,0.002122879,-0.000108719,0.008777618,0,
00:02.7,0.002122879,-0.000108719,0.00878334,0,
00:02.7,0.002117157,-0.000102997,0.00878334,0,
00:02.7,0.002111435,-0.000108719,0.00878334,0,
00:02.7,0.002122879,-0.000108719,0.008789063,0,
00:02.7,0.002122879,-0.000102997,0.008789063,0,
00:02.7,0.002122879,-0.000102997,0.008789063,0,
00:02.7,0.002122879,-9.73E-05,0.008789063,0,
00:02.7,0.002117157,-0.000102997,0.008789063,0,
00:02.7,0.002122879,-9.73E-05,0.008789063,0,
00:02.7,0.002117157,-0.000102997,0.008766174,0,
00:02.7,0.002117157,-0.000102997,0.00875473,0,
00:02.8,0.002111435,-0.000114441,0.008811951,0,
00:02.8,0.002122879,-0.000102997,0.008817673,0,
00:02.8,0.002117157,-0.000114441,0.008811951,0,
00:02.8,0.002122879,-9.16E-05,0.008811951,0,
00:02.8,0.002122879,-8.01E-05,0.008806229,0,
00:02.8,0.002122879,-9.16E-05,0.008806229,0,
00:02.8,0.002117157,-9.73E-05,0.008794785,0,
00:02.8,0.002117157,-9.73E-05,0.008806229,0,
00:02.8,0.002117157,-0.000108719,0.008800507,0,
00:02.8,0.002111435,-0.000120163,0.008811951,0,
00:02.8,0.002111435,-0.000108719,0.008817673,0,
00:02.8,0.002117157,-8.58E-05,0.008811951,0,
00:02.8,0.002122879,-7.44E-05,0.008817673,0,
00:02.8,0.002122879,-8.01E-05,0.008823395,0,
00:02.8,0.002122879,-8.58E-05,0.008823395,0,
00:02.8,0.002122879,-8.58E-05,0.008817673,0,
00:02.8,0.002117157,-9.16E-05,0.008823395,0,
00:02.8,0.002117157,-9.16E-05,0.008823395,0,
00:02.8,0.002117157,-9.16E-05,0.008829117,0,
00:02.8,0.002117157,-9.16E-05,0.008829117,0,
00:02.8,0.002111435,-9.73E-05,0.008823395,0,
00:02.8,0.002099991,-0.000108719,0.008811951,0,
00:02.8,0.002099991,-0.000114441,0.008823395,0,
00:02.8,0.002122879,-9.16E-05,0.008834839,0,
00:02.8,0.002122879,-6.29E-05,0.008840561,0,
00:02.9,0.002122879,-6.87E-05,0.008840561,0,
00:02.9,0.002117157,-8.58E-05,0.008840561,0,
00:02.9,0.002117157,-8.58E-05,0.008840561,0,
00:02.9,0.002117157,-8.58E-05,0.008852005,0,
00:02.9,0.002122879,-8.01E-05,0.008840561,0,
00:02.9,0.002111435,-8.58E-05,0.008817673,0,
00:02.9,0.002099991,-0.000114441,0.008834839,0,
00:02.9,0.002117157,-9.16E-05,0.008857727,0,
00:02.9,0.002122879,-6.87E-05,0.008852005,0,
00:02.9,0.002117157,-7.44E-05,0.008852005,0,
00:02.9,0.002117157,-8.01E-05,0.008857727,0,
00:02.9,0.002122879,-8.01E-05,0.008863449,0,
00:02.9,0.002117157,-7.44E-05,0.008863449,0,
00:02.9,0.002111435,-8.01E-05,0.008857727,0,
00:02.9,0.002111435,-8.58E-05,0.008857727,0,
00:02.9,0.002111435,-9.16E-05,0.008863449,0,
00:02.9,0.002111435,-9.73E-05,0.008857727,0,
00:02.9,0.002105713,-9.16E-05,0.008857727,0,
00:02.9,0.002111435,-8.01E-05,0.008869171,0,
00:02.9,0.002117157,-7.44E-05,0.008869171,0,
00:02.9,0.002117157,-6.29E-05,0.008869171,0,
00:02.9,0.002111435,-7.44E-05,0.008863449,0,
00:02.9,0.002111435,-8.01E-05,0.008863449,0,
00:02.9,0.002105713,-9.16E-05,0.008869171,0,
00:02.9,0.002105713,-8.58E-05,0.008886337,0,
00:03.0,0.002111435,-8.01E-05,0.008863449,0,
00:03.0,0.002117157,-7.44E-05,0.008874893,0,
00:03.0,0.002117157,-5.72E-05,0.008897781,0,
00:03.0,0.002117157,-6.87E-05,0.008886337,0,
00:03.0,0.002117157,-6.87E-05,0.008874893,0,
00:03.0,0.002105713,-8.01E-05,0.008886337,0,
00:03.0,0.002105713,-8.58E-05,0.008903503,0,
00:03.0,0.002111435,-8.01E-05,0.008897781,0,
00:03.0,0.002111435,-7.44E-05,0.008897781,0,
00:03.0,0.002111435,-6.29E-05,0.008897781,0,
00:03.0,0.002111435,-6.29E-05,0.008892059,0,
00:03.0,0.002105713,-7.44E-05,0.008880615,0,
00:00:03,0.002111435,-9.73E-05,0.008897781,0,
00:03.0,0.002111435,-8.01E-05,0.008903503,0,
00:03.0,0.002105713,-6.87E-05,0.008903503,0,
00:03.0,0.002105713,-8.01E-05,0.008897781,0,
00:03.0,0.002111435,-7.44E-05,0.008897781,0,
00:03.0,0.002117157,-7.44E-05,0.008909225,0,
00:03.0,0.002117157,-6.29E-05,0.008909225,0,
00:03.0,0.002111435,-6.87E-05,0.008897781,0,
00:03.0,0.002111435,-6.87E-05,0.008903503,0,
00:03.0,0.002111435,-7.44E-05,0.008909225,0,
00:03.0,0.002111435,-8.01E-05,0.008909225,0,
00:03.0,0.002111435,-8.01E-05,0.008909225,0,
00:03.0,0.002111435,-7.44E-05,0.00892067,0,
00:03.1,0.002111435,-8.01E-05,0.008914948,0,
00:03.1,0.002111435,-7.44E-05,0.008909225,0,
00:03.1,0.002117157,-6.87E-05,0.008914948,0,
00:03.1,0.002111435,-6.29E-05,0.00892067,0,
00:03.1,0.002111435,-6.29E-05,0.00892067,0,
00:03.1,0.002111435,-6.29E-05,0.008914948,0,
00:03.1,0.002105713,-7.44E-05,0.008914948,0,
00:03.1,0.002105713,-8.58E-05,0.008926392,0,
00:03.1,0.002105713,-7.44E-05,0.008926392,0,
00:03.1,0.002105713,-6.87E-05,0.00892067,0,
00:03.1,0.002111435,-7.44E-05,0.00892067,0,
00:03.1,0.002111435,-7.44E-05,0.008926392,0,
00:03.1,0.002105713,-8.01E-05,0.008926392,0,
00:03.1,0.002099991,-8.01E-05,0.008914948,0,
00:03.1,0.002111435,-6.29E-05,0.00892067,0,
00:03.1,0.002105713,-8.01E-05,0.008926392,0,
00:03.1,0.002105713,-8.58E-05,0.008926392,0,
00:03.1,0.002111435,-6.87E-05,0.008932114,0,
00:03.1,0.002111435,-5.72E-05,0.008932114,0,
00:03.1,0.002117157,-6.29E-05,0.008932114,0,
00:03.1,0.002111435,-6.87E-05,0.008943558,0,
00:03.1,0.002111435,-8.01E-05,0.008937836,0,
00:03.1,0.002105713,-9.16E-05,0.008932114,0,
00:03.1,0.002105713,-8.58E-05,0.008932114,0,
00:03.1,0.002105713,-8.01E-05,0.008932114,0,
00:03.2,0.002111435,-6.87E-05,0.008937836,0,
00:03.2,0.002117157,-5.72E-05,0.008932114,0,
00:03.2,0.002111435,-7.44E-05,0.008932114,0,
00:03.2,0.002111435,-8.58E-05,0.008932114,0,
00:03.2,0.002111435,-7.44E-05,0.008937836,0,
00:03.2,0.002111435,-8.58E-05,0.008937836,0,
00:03.2,0.002105713,-9.16E-05,0.008937836,0,
00:03.2,0.002105713,-8.01E-05,0.008937836,0,
00:03.2,0.002105713,-6.87E-05,0.008932114,0,
00:03.2,0.002111435,-6.87E-05,0.008932114,0,
00:03.2,0.002117157,-8.01E-05,0.008937836,0,
00:03.2,0.002111435,-8.01E-05,0.008932114,0,
00:03.2,0.002117157,-8.01E-05,0.008932114,0,
00:03.2,0.002111435,-8.01E-05,0.008932114,0,
00:03.2,0.002111435,-8.01E-05,0.008937836,0,
00:03.2,0.002117157,-7.44E-05,0.008943558,0,
00:03.2,0.002111435,-8.01E-05,0.008932114,0,
00:03.2,0.002105713,-9.16E-05,0.008932114,0,
00:03.2,0.002111435,-8.58E-05,0.008932114,0,
00:03.2,0.002111435,-8.01E-05,0.008937836,0,
00:03.2,0.002111435,-8.01E-05,0.008937836,0,
00:03.2,0.002111435,-9.16E-05,0.008937836,0,
00:03.2,0.002111435,-9.73E-05,0.008937836,0,
00:03.2,0.002117157,-8.58E-05,0.008937836,0,
00:03.2,0.002111435,-8.58E-05,0.008926392,0,
00:03.3,0.002111435,-8.01E-05,0.008914948,0,
00:03.3,0.002105713,-8.58E-05,0.008926392,0,
00:03.3,0.002111435,-8.01E-05,0.008943558,0,
00:03.3,0.002105713,-9.16E-05,0.008926392,0,
00:03.3,0.002105713,-8.58E-05,0.008932114,0,
00:03.3,0.002111435,-0.000102997,0.008937836,0,
00:03.3,0.002111435,-8.01E-05,0.008926392,0,
00:03.3,0.002105713,-8.01E-05,0.008926392,0,
00:03.3,0.002117157,-8.01E-05,0.008943558,0,
00:03.3,0.002111435,-8.01E-05,0.008932114,0,
00:03.3,0.002117157,-8.01E-05,0.008932114,0,
00:03.3,0.002117157,-8.58E-05,0.008932114,0,
00:03.3,0.002117157,-9.16E-05,0.008932114,0,
00:03.3,0.002117157,-8.58E-05,0.008926392,0,
00:03.3,0.002111435,-9.73E-05,0.008926392,0,
00:03.3,0.002111435,-0.000108719,0.008926392,0,
00:03.3,0.002111435,-0.000102997,0.008932114,0,
00:03.3,0.002117157,-9.16E-05,0.008926392,0,
00:03.3,0.002117157,-8.01E-05,0.008914948,0,
00:03.3,0.002117157,-8.01E-05,0.008914948,0,
00:03.3,0.002111435,-9.73E-05,0.008932114,0,
00:03.3,0.002111435,-9.73E-05,0.008926392,0,
00:03.3,0.002111435,-9.73E-05,0.00892067,0,
00:03.3,0.002111435,-9.16E-05,0.008914948,0,
00:03.3,0.002105713,-9.73E-05,0.008903503,0,
00:03.4,0.002099991,-0.000108719,0.008892059,0,
00:03.4,0.002099991,-8.58E-05,0.008874893,0,
00:03.4,0.002111435,-8.01E-05,0.008874893,0,
00:03.4,0.002122879,-8.58E-05,0.00892067,0,
00:03.4,0.002111435,-9.16E-05,0.008943558,0,
00:03.4,0.002111435,-9.73E-05,0.00892067,0,
00:03.4,0.002111435,-9.73E-05,0.008909225,0,
00:03.4,0.002111435,-9.73E-05,0.008892059,0,
00:03.4,0.002117157,-9.73E-05,0.008914948,0,
00:03.4,0.002111435,-9.73E-05,0.00892067,0,
00:03.4,0.002105713,-9.73E-05,0.008903503,0,
00:03.4,0.002111435,-9.73E-05,0.008903503,0,
00:03.4,0.002111435,-0.000102997,0.008897781,0,
00:03.4,0.002111435,-9.73E-05,0.008897781,0,
00:03.4,0.002111435,-9.16E-05,0.008892059,0,
00:03.4,0.002105713,-9.73E-05,0.008886337,0,
00:03.4,0.002105713,-0.000108719,0.008886337,0,
00:03.4,0.002105713,-0.000114441,0.008886337,0,
00:03.4,0.002105713,-0.000120163,0.008886337,0,
00:03.4,0.002105713,-0.000120163,0.008880615,0,
00:03.4,0.002105713,-0.000108719,0.008874893,0,
00:03.4,0.002105713,-9.73E-05,0.008869171,0,
00:03.4,0.002105713,-8.58E-05,0.008857727,0,
00:03.4,0.002111435,-8.01E-05,0.008874893,0,
00:03.4,0.002111435,-8.01E-05,0.008863449,0,
00:03.5,0.002111435,-0.000102997,0.008852005,0,
00:03.5,0.002099991,-0.000137329,0.008874893,0,
00:03.5,0.002094269,-0.000131607,0.008880615,0,
00:03.5,0.002088547,-0.000108719,0.008869171,0,
00:03.5,0.002111435,-0.000102997,0.008874893,0,
00:03.5,0.002122879,-8.58E-05,0.008869171,0,
00:03.5,0.002117157,-9.16E-05,0.008863449,0,
00:03.5,0.002117157,-0.000102997,0.008857727,0,
00:03.5,0.002117157,-0.000102997,0.008857727,0,
00:03.5,0.002117157,-0.000102997,0.008852005,0,
00:03.5,0.002111435,-0.000102997,0.008846283,0,
00:03.5,0.002117157,-0.000108719,0.008846283,0,
00:03.5,0.002117157,-0.000114441,0.008840561,0,
00:03.5,0.002117157,-0.000114441,0.008840561,0,
00:03.5,0.002117157,-0.000102997,0.008834839,0,
00:03.5,0.002122879,-9.73E-05,0.008829117,0,
00:03.5,0.002122879,-8.58E-05,0.008800507,0,
00:03.5,0.002117157,-9.16E-05,0.008806229,0,
00:03.5,0.002111435,-0.000120163,0.008823395,0,
00:03.5,0.002111435,-0.000131607,0.008823395,0,
00:03.5,0.002111435,-0.000137329,0.008829117,0,
00:03.5,0.002111435,-0.000131607,0.008834839,0,
00:03.5,0.002117157,-0.000102997,0.008817673,0,
00:03.5,0.002122879,-8.58E-05,0.008800507,0,
00:03.5,0.002111435,-9.73E-05,0.008800507,0,
00:03.6,0.002117157,-9.73E-05,0.008811951,0,
00:03.6,0.002117157,-0.000102997,0.008811951,0,
00:03.6,0.002105713,-0.000120163,0.008811951,0,
00:03.6,0.002105713,-0.000125885,0.008806229,0,
00:03.6,0.002122879,-0.000114441,0.008800507,0,
00:03.6,0.002117157,-0.000108719,0.008800507,0,
00:03.6,0.002122879,-0.000108719,0.008794785,0,
00:03.6,0.002117157,-0.000108719,0.008789063,0,
00:03.6,0.002122879,-0.000102997,0.008789063,0,
00:03.6,0.002122879,-0.000102997,0.00878334,0,
00:03.6,0.002122879,-9.73E-05,0.008777618,0,
00:03.6,0.002122879,-9.73E-05,0.008766174,0,
00:03.6,0.002111435,-0.000108719,0.008760452,0,
00:03.6,0.002111435,-0.000120163,0.008760452,0,
00:03.6,0.002117157,-0.000125885,0.008771896,0,
00:03.6,0.002117157,-0.000114441,0.008771896,0,
00:03.6,0.002122879,-0.000102997,0.00875473,0,
00:03.6,0.002128601,-9.16E-05,0.00875473,0,
00:03.6,0.002128601,-8.58E-05,0.008760452,0,
00:03.6,0.002122879,-9.73E-05,0.00875473,0,
00:03.6,0.002122879,-9.73E-05,0.008743286,0,
00:03.6,0.002122879,-9.16E-05,0.00872612,0,
00:03.6,0.002117157,-0.000114441,0.008714676,0,
00:03.6,0.002117157,-0.000125885,0.00872612,0,
00:03.6,0.002111435,-0.000125885,0.00875473,0,
00:03.7,0.002122879,-9.73E-05,0.008749008,0,
00:03.7,0.002128601,-9.73E-05,0.008737564,0,
00:03.7,0.002122879,-0.000102997,0.008737564,0,
00:03.7,0.002122879,-9.73E-05,0.008737564,0,
00:03.7,0.002128601,-9.16E-05,0.008731842,0,
00:03.7,0.002128601,-9.73E-05,0.00872612,0,
00:03.7,0.002128601,-0.000102997,0.008720398,0,
00:03.7,0.002122879,-0.000108719,0.008714676,0,
00:03.7,0.002128601,-0.000102997,0.008714676,0,
00:03.7,0.002128601,-0.000114441,0.008703232,0,
00:03.7,0.002122879,-0.000114441,0.008703232,0,
00:03.7,0.002128601,-9.16E-05,0.008708954,0,
00:03.7,0.002134323,-9.16E-05,0.008703232,0,
00:03.7,0.002134323,-8.01E-05,0.008686066,0,
00:03.7,0.002140045,-6.29E-05,0.0086689,0,
00:03.7,0.002134323,-9.73E-05,0.00869751,0,
00:03.7,0.002134323,-0.000102997,0.00869751,0,
00:03.7,0.002134323,-8.58E-05,0.008691788,0,
00:03.7,0.002134323,-0.000102997,0.00869751,0,
00:03.7,0.002134323,-0.000102997,0.00869751,0,
00:03.7,0.002134323,-0.000114441,0.008686066,0,
00:03.7,0.002134323,-0.000114441,0.008674622,0,
00:03.7,0.002134323,-9.73E-05,0.008674622,0,
00:03.7,0.002140045,-8.58E-05,0.008674622,0,
00:03.7,0.002140045,-8.58E-05,0.0086689,0,
00:03.8,0.002140045,-8.58E-05,0.008663177,0,
00:03.8,0.002140045,-9.73E-05,0.008663177,0,
00:03.8,0.002140045,-8.58E-05,0.008657455,0,
00:03.8,0.002134323,-9.16E-05,0.008651733,0,
00:03.8,0.002122879,-0.000108719,0.008646011,0,
00:03.8,0.002134323,-0.000102997,0.008628845,0,
00:03.8,0.002151489,-9.16E-05,0.008611679,0,
00:03.8,0.002140045,-0.000114441,0.008634567,0,
00:03.8,0.002145767,-9.73E-05,0.008657455,0,
00:03.8,0.002145767,-8.01E-05,0.008651733,0,
00:03.8,0.002151489,-9.73E-05,0.008651733,0,
00:03.8,0.002140045,-9.16E-05,0.008634567,0,
00:03.8,0.002145767,-7.44E-05,0.008628845,0,
00:03.8,0.002151489,-8.01E-05,0.008634567,0,
00:03.8,0.002140045,-9.73E-05,0.008628845,0,
00:03.8,0.002140045,-0.000102997,0.008623123,0,
00:03.8,0.002140045,-0.000108719,0.008617401,0,
00:03.8,0.002145767,-9.73E-05,0.008628845,0,
00:03.8,0.002151489,-8.58E-05,0.008617401,0,
00:03.8,0.002151489,-8.58E-05,0.008617401,0,
00:03.8,0.002151489,-9.16E-05,0.008605957,0,
00:03.8,0.002145767,-8.58E-05,0.008605957,0,
00:03.8,0.002151489,-8.58E-05,0.008605957,0,
00:03.8,0.002145767,-9.16E-05,0.008594513,0,
00:03.8,0.002145767,-9.16E-05,0.008594513,0,
00:03.9,0.002151489,-9.16E-05,0.008588791,0,
00:03.9,0.002140045,-0.000102997,0.008594513,0,
00:03.9,0.002145767,-9.73E-05,0.008594513,0,
00:03.9,0.002157211,-6.87E-05,0.008583069,0,
00:03.9,0.002157211,-6.87E-05,0.008577347,0,
00:03.9,0.002157211,-6.87E-05,0.008577347,0,
00:03.9,0.002157211,-7.44E-05,0.008571625,0,
00:03.9,0.002157211,-8.58E-05,0.008571625,0,
00:03.9,0.002157211,-7.44E-05,0.008583069,0,
00:03.9,0.002162933,-6.87E-05,0.008565903,0,
00:03.9,0.002157211,-8.01E-05,0.008565903,0,
00:03.9,0.002162933,-6.29E-05,0.008560181,0,
00:03.9,0.002162933,-6.29E-05,0.008565903,0,
00:03.9,0.002162933,-7.44E-05,0.008577347,0,
00:03.9,0.002162933,-7.44E-05,0.008565903,0,
00:03.9,0.002157211,-6.87E-05,0.008548737,0,
00:03.9,0.002162933,-6.87E-05,0.008560181,0,
00:03.9,0.002162933,-6.87E-05,0.008560181,0,
00:03.9,0.002157211,-7.44E-05,0.008560181,0,
00:03.9,0.002157211,-7.44E-05,0.008554459,0,
00:03.9,0.002162933,-6.87E-05,0.008543015,0,
00:03.9,0.002162933,-5.15E-05,0.008543015,0,
00:03.9,0.002157211,-5.72E-05,0.008548737,0,
00:03.9,0.002168655,-5.15E-05,0.008537292,0,
00:03.9,0.002174377,-2.86E-05,0.008520126,0,
00:04.0,0.002162933,-5.72E-05,0.008520126,0,
00:04.0,0.002162933,-6.87E-05,0.008548737,0,
00:04.0,0.002168655,-6.29E-05,0.008543015,0,
00:04.0,0.002168655,-5.15E-05,0.008537292,0,
00:04.0,0.002168655,-5.15E-05,0.00853157,0,
00:04.0,0.002162933,-6.29E-05,0.008525848,0,
00:04.0,0.002168655,-5.72E-05,0.008520126,0,
00:04.0,0.002162933,-5.72E-05,0.008520126,0,
00:04.0,0.002162933,-4.58E-05,0.00850296,0,
00:04.0,0.002157211,-4.58E-05,0.00847435,0,
00:04.0,0.002162933,-6.29E-05,0.008508682,0,
00:04.0,0.002162933,-6.29E-05,0.008508682,0,
00:00:04,0.002174377,-5.72E-05,0.008525848,0,
00:04.0,0.002174377,-5.15E-05,0.008520126,0,
00:04.0,0.002174377,-4.58E-05,0.008508682,0,
00:04.0,0.002168655,-4.58E-05,0.008508682,0,
00:04.0,0.002168655,-5.72E-05,0.008508682,0,
00:04.0,0.002162933,-5.72E-05,0.00850296,0,
00:04.0,0.002168655,-5.15E-05,0.008491516,0,
00:04.0,0.002185822,-3.43E-05,0.00847435,0,
00:04.0,0.002180099,-2.86E-05,0.00847435,0,
00:04.0,0.002168655,-4.01E-05,0.008491516,0,
00:04.0,0.002180099,-4.58E-05,0.00850296,0,
00:04.0,0.002168655,-5.15E-05,0.008497238,0,
00:04.0,0.002174377,-5.15E-05,0.008497238,0,
00:04.1,0.002174377,-5.15E-05,0.008491516,0,
00:04.1,0.002168655,-5.72E-05,0.008485794,0,
00:04.1,0.002168655,-5.72E-05,0.008480072,0,
00:04.1,0.002174377,-4.58E-05,0.008480072,0,
00:04.1,0.002174377,-4.01E-05,0.008480072,0,
00:04.1,0.002174377,-4.01E-05,0.00847435,0,
00:04.1,0.002174377,-4.58E-05,0.008468628,0,
00:04.1,0.002174377,-3.43E-05,0.008462906,0,
00:04.1,0.002180099,-2.29E-05,0.008440018,0,
00:04.1,0.002174377,-4.58E-05,0.008457184,0,
00:04.1,0.002174377,-5.72E-05,0.008480072,0,
00:04.1,0.002174377,-5.15E-05,0.008468628,0,
00:04.1,0.002174377,-3.43E-05,0.008462906,0,
00:04.1,0.002180099,-3.43E-05,0.008462906,0,
00:04.1,0.002174377,-3.43E-05,0.008462906,0,
00:04.1,0.002174377,-4.01E-05,0.008451462,0,
00:04.1,0.002174377,-4.58E-05,0.00844574,0,
00:04.1,0.002174377,-5.72E-05,0.008451462,0,
00:04.1,0.002168655,-5.15E-05,0.00844574,0,
00:04.1,0.002162933,-4.01E-05,0.00844574,0,
00:04.1,0.002174377,-3.43E-05,0.008440018,0,
00:04.1,0.002180099,-3.43E-05,0.008434296,0,
00:04.1,0.002180099,-2.86E-05,0.008434296,0,
00:04.1,0.002180099,-1.72E-05,0.008428574,0,
00:04.1,0.002180099,-2.86E-05,0.008434296,0,
00:04.2,0.002180099,-2.86E-05,0.00844574,0,
00:04.2,0.002180099,-3.43E-05,0.008440018,0,
00:04.2,0.002185822,-2.86E-05,0.008428574,0,
00:04.2,0.002174377,-2.86E-05,0.008428574,0,
00:04.2,0.002174377,-2.86E-05,0.008428574,0,
00:04.2,0.002174377,-4.58E-05,0.008422852,0,
00:04.2,0.002174377,-5.72E-05,0.008422852,0,
00:04.2,0.002174377,-3.43E-05,0.00841713,0,
00:04.2,0.002180099,-2.29E-05,0.008399963,0,
00:04.2,0.002168655,-1.72E-05,0.008382797,0,
00:04.2,0.002174377,-3.43E-05,0.008411407,0,
00:04.2,0.002180099,-2.29E-05,0.00841713,0,
00:04.2,0.002180099,-1.72E-05,0.00841713,0,
00:04.2,0.002174377,-2.86E-05,0.008422852,0,
00:04.2,0.002174377,-3.43E-05,0.008422852,0,
00:04.2,0.002174377,-2.86E-05,0.00841713,0,
00:04.2,0.002174377,-2.86E-05,0.008411407,0,
00:04.2,0.002168655,-4.58E-05,0.008411407,0,
00:04.2,0.002168655,-4.58E-05,0.008399963,0,
00:04.2,0.002174377,-1.72E-05,0.008394241,0,
00:04.2,0.002180099,-5.72E-06,0.008405685,0,
00:04.2,0.002185822,0,0.008411407,0,
00:04.2,0.002180099,-1.14E-05,0.008399963,0,
00:04.2,0.002180099,-1.72E-05,0.008399963,0,
00:04.2,0.002180099,-1.72E-05,0.008405685,0,
00:04.3,0.002180099,-1.72E-05,0.008399963,0,
00:04.3,0.002174377,-2.29E-05,0.008399963,0,
00:04.3,0.002174377,-3.43E-05,0.008394241,0,
00:04.3,0.002174377,-2.86E-05,0.008394241,0,
00:04.3,0.002180099,-1.14E-05,0.008382797,0,
00:04.3,0.002180099,-5.72E-06,0.008388519,0,
00:04.3,0.002180099,-1.72E-05,0.008377075,0,
00:04.3,0.002174377,-3.43E-05,0.008388519,0,
00:04.3,0.002180099,-1.14E-05,0.008388519,0,
00:04.3,0.002168655,-2.86E-05,0.008394241,0,
00:04.3,0.002180099,-1.72E-05,0.008388519,0,
00:04.3,0.002180099,-1.14E-05,0.008388519,0,
00:04.3,0.002180099,-1.72E-05,0.008377075,0,
00:04.3,0.002180099,-2.29E-05,0.008377075,0,
00:04.3,0.002174377,-2.86E-05,0.008377075,0,
00:04.3,0.002185822,-5.72E-06,0.008388519,0,
00:04.3,0.002191544,5.72E-06,0.008377075,0,
00:04.3,0.002185822,0,0.008377075,0,
00:04.3,0.002180099,-5.72E-06,0.008371353,0,
00:04.3,0.002168655,-1.14E-05,0.008377075,0,
00:04.3,0.002174377,-5.72E-06,0.008377075,0,
00:04.3,0.002180099,-1.14E-05,0.008371353,0,
00:04.3,0.002174377,-1.14E-05,0.008371353,0,
00:04.3,0.002145767,-1.14E-05,0.008365631,0,
00:04.3,0.002117157,0,0.008348465,0,
00:04.4,0.002191544,0,0.008354187,0,
00:04.4,0.002202988,-5.72E-06,0.008365631,0,
00:04.4,0.002191544,-5.72E-06,0.008359909,0,
00:04.4,0.002191544,5.72E-06,0.008359909,0,
00:04.4,0.002191544,1.72E-05,0.008348465,0,
00:04.4,0.002191544,5.72E-06,0.008337021,0,
00:04.4,0.002168655,-1.72E-05,0.008365631,0,
00:04.4,0.002180099,-1.14E-05,0.008382797,0,
00:04.4,0.002174377,-5.72E-06,0.008377075,0,
00:04.4,0.002180099,0,0.008371353,0,
00:04.4,0.002185822,-5.72E-06,0.008365631,0,
00:04.4,0.002180099,-1.14E-05,0.008354187,0,
00:04.4,0.002180099,-1.14E-05,0.008348465,0,
00:04.4,0.002180099,-1.14E-05,0.008359909,0,
00:04.4,0.002185822,1.14E-05,0.008359909,0,
00:04.4,0.002180099,1.14E-05,0.008354187,0,
00:04.4,0.002174377,0,0.008359909,0,
00:04.4,0.002180099,0,0.008354187,0,
00:04.4,0.002180099,0,0.008348465,0,
00:04.4,0.002180099,-5.72E-06,0.008354187,0,
00:04.4,0.002174377,-5.72E-06,0.008348465,0,
00:04.4,0.002180099,0,0.008354187,0,
00:04.4,0.002180099,5.72E-06,0.008348465,0,
00:04.4,0.002174377,2.29E-05,0.008337021,0,
00:04.4,0.002174377,0,0.008337021,0,
00:04.5,0.002168655,-2.86E-05,0.008337021,0,
00:04.5,0.002168655,-1.14E-05,0.008348465,0,
00:04.5,0.002174377,0,0.008348465,0,
00:04.5,0.002174377,1.14E-05,0.008342743,0,
00:04.5,0.002168655,1.14E-05,0.008331299,0,
00:04.5,0.002180099,2.29E-05,0.008325577,0,
00:04.5,0.002174377,2.29E-05,0.008314133,0,
00:04.5,0.002168655,1.14E-05,0.008302689,0,
00:04.5,0.002180099,0,0.008331299,0,
00:04.5,0.002180099,5.72E-06,0.008354187,0,
00:04.5,0.002174377,0,0.008342743,0,
00:04.5,0.002168655,-5.72E-06,0.008348465,0,
00:04.5,0.002174377,5.72E-06,0.008342743,0,
00:04.5,0.002174377,5.72E-06,0.008337021,0,
00:04.5,0.002168655,5.72E-06,0.008337021,0,
00:04.5,0.002168655,0,0.008331299,0,
00:04.5,0.002168655,0,0.008325577,0,
00:04.5,0.002168655,0,0.008325577,0,
00:04.5,0.002174377,5.72E-06,0.008325577,0,
00:04.5,0.002174377,1.72E-05,0.008319855,0,
00:04.5,0.002174377,1.72E-05,0.008325577,0,
00:04.5,0.002174377,5.72E-06,0.008331299,0,
00:04.5,0.002168655,-5.72E-06,0.008325577,0,
00:04.5,0.002168655,-5.72E-06,0.008331299,0,
00:04.5,0.002174377,0,0.008325577,0,
00:04.6,0.002168655,1.14E-05,0.008314133,0,
00:04.6,0.002162933,5.72E-06,0.008308411,0,
00:04.6,0.002174377,1.14E-05,0.008314133,0,
00:04.6,0.002174377,5.72E-06,0.008319855,0,
00:04.6,0.002162933,0,0.008319855,0,
00:04.6,0.002162933,5.72E-06,0.008331299,0,
00:04.6,0.002162933,5.72E-06,0.008325577,0,
00:04.6,0.002180099,1.14E-05,0.008319855,0,
00:04.6,0.002145767,1.14E-05,0.008319855,0,
00:04.6,0.002111435,1.14E-05,0.008319855,0,
00:04.6,0.002099991,5.72E-06,0.008308411,0,
00:04.6,0.002037048,-1.14E-05,0.008314133,0,
00:04.6,0.001934052,-1.14E-05,0.008319855,0,
00:04.6,0.002260208,1.72E-05,0.008314133,0,
00:04.6,0.002260208,2.29E-05,0.008302689,0,
00:04.6,0.002180099,0,0.008296967,0,
00:04.6,0.002145767,-5.72E-06,0.008308411,0,
00:04.6,0.002191544,1.14E-05,0.008314133,0,
00:04.6,0.002220154,3.43E-05,0.008308411,0,
00:04.6,0.002185822,1.72E-05,0.008302689,0,
00:04.6,0.002180099,-5.72E-06,0.008302689,0,
00:04.6,0.002174377,-5.72E-06,0.008302689,0,
00:04.6,0.002174377,1.14E-05,0.008302689,0,
00:04.6,0.002174377,2.29E-05,0.008296967,0,
00:04.6,0.002162933,-1.14E-05,0.008319855,0,
00:04.7,0.002168655,-5.72E-06,0.008319855,0,
00:04.7,0.002174377,1.72E-05,0.008314133,0,
00:04.7,0.002157211,0,0.008302689,0,
00:04.7,0.002174377,1.72E-05,0.008308411,0,
00:04.7,0.002168655,1.72E-05,0.008302689,0,
00:04.7,0.002168655,1.14E-05,0.008302689,0,
00:04.7,0.002162933,1.72E-05,0.008302689,0,
00:04.7,0.002174377,5.72E-06,0.008308411,0,
00:04.7,0.002174377,0,0.008308411,0,
00:04.7,0.002174377,5.72E-06,0.008302689,0,
00:04.7,0.002174377,2.29E-05,0.008285522,0,
00:04.7,0.002174377,5.72E-06,0.008291245,0,
00:04.7,0.002174377,0,0.008308411,0,
00:04.7,0.002168655,1.14E-05,0.008308411,0,
00:04.7,0.002168655,5.72E-06,0.008308411,0,
00:04.7,0.002174377,5.72E-06,0.008302689,0,
00:04.7,0.002174377,1.14E-05,0.008291245,0,
00:04.7,0.002180099,2.29E-05,0.008296967,0,
00:04.7,0.002174377,2.29E-05,0.008296967,0,
00:04.7,0.002162933,5.72E-06,0.008291245,0,
00:04.7,0.002157211,5.72E-06,0.008291245,0,
00:04.7,0.002180099,0,0.008302689,0,
00:04.7,0.002174377,5.72E-06,0.008302689,0,
00:04.7,0.002174377,5.72E-06,0.008302689,0,
00:04.7,0.002180099,1.14E-05,0.008302689,0,
00:04.8,0.002174377,5.72E-06,0.008296967,0,
00:04.8,0.002174377,5.72E-06,0.008291245,0,
00:04.8,0.002174377,5.72E-06,0.0082798,0,
00:04.8,0.002174377,2.29E-05,0.008285522,0,
00:04.8,0.002157211,1.72E-05,0.008285522,0,
00:04.8,0.002157211,0,0.008291245,0,
00:04.8,0.002180099,0,0.008285522,0,
00:04.8,0.002168655,-1.14E-05,0.008291245,0,
00:04.8,0.002174377,0,0.008291245,0,
00:04.8,0.002174377,1.14E-05,0.008291245,0,
00:04.8,0.002174377,2.29E-05,0.008291245,0,
00:04.8,0.002174377,1.72E-05,0.0082798,0,
00:04.8,0.002168655,1.72E-05,0.008274078,0,
00:04.8,0.002168655,5.72E-06,0.0082798,0,
00:04.8,0.002168655,5.72E-06,0.008274078,0,
00:04.8,0.002168655,5.72E-06,0.008262634,0,
00:04.8,0.002174377,1.14E-05,0.008274078,0,
00:04.8,0.002174377,1.72E-05,0.008285522,0,
00:04.8,0.002168655,1.72E-05,0.008285522,0,
00:04.8,0.002174377,1.72E-05,0.0082798,0,
00:04.8,0.002162933,5.72E-06,0.008274078,0,
00:04.8,0.002157211,5.72E-06,0.008274078,0,
00:04.8,0.002168655,-5.72E-06,0.008274078,0,
00:04.8,0.002168655,-5.72E-06,0.008274078,0,
00:04.8,0.002162933,-5.72E-06,0.008268356,0,
00:04.9,0.002162933,1.14E-05,0.008268356,0,
00:04.9,0.002168655,1.72E-05,0.00825119,0,
00:04.9,0.002174377,5.72E-06,0.008245468,0,
00:04.9,0.002174377,1.14E-05,0.008268356,0,
00:04.9,0.002168655,0,0.0082798,0,
00:04.9,0.002168655,1.14E-05,0.008274078,0,
00:04.9,0.002168655,1.14E-05,0.008268356,0,
00:04.9,0.002162933,0,0.008262634,0,
00:04.9,0.002168655,0,0.008268356,0,
00:04.9,0.002174377,1.72E-05,0.008274078,0,
00:04.9,0.002174377,2.29E-05,0.008268356,0,
00:04.9,0.002174377,1.72E-05,0.008262634,0,
00:04.9,0.002168655,1.14E-05,0.008256912,0,
00:04.9,0.002174377,1.72E-05,0.008262634,0,
00:04.9,0.002168655,1.72E-05,0.008268356,0,
00:04.9,0.002168655,1.14E-05,0.008262634,0,
00:04.9,0.002168655,1.14E-05,0.008262634,0,
00:04.9,0.002168655,1.72E-05,0.008262634,0,
00:04.9,0.002168655,1.14E-05,0.008262634,0,
00:04.9,0.002168655,0,0.008262634,0,
00:04.9,0.002162933,5.72E-06,0.008256912,0,
00:04.9,0.002168655,1.14E-05,0.008256912,0,
00:04.9,0.002168655,0,0.008256912,0,
00:04.9,0.002168655,5.72E-06,0.00825119,0,
00:04.9,0.002162933,5.72E-06,0.008234024,0,
00:05.0,0.002168655,2.86E-05,0.008239746,0,
00:05.0,0.002180099,2.86E-05,0.00825119,0,
00:05.0,0.002168655,5.72E-06,0.008268356,0,
00:05.0,0.002162933,5.72E-06,0.008262634,0,
00:05.0,0.002168655,-5.72E-06,0.008256912,0,
00:05.0,0.002162933,-1.14E-05,0.008256912,0,
00:05.0,0.002162933,-5.72E-06,0.008256912,0,
00:05.0,0.002168655,5.72E-06,0.008256912,0,
00:05.0,0.002168655,1.72E-05,0.00825119,0,
00:05.0,0.002162933,1.72E-05,0.00825119,0,
00:05.0,0.002151489,1.72E-05,0.008245468,0,
00:05.0,0.002174377,1.72E-05,0.008239746,0,
00:00:05,0.002180099,2.86E-05,0.008239746,0,
00:05.0,0.002168655,2.86E-05,0.008239746,0,
00:05.0,0.002168655,1.14E-05,0.00825119,0,
00:05.0,0.002168655,5.72E-06,0.008256912,0,
00:05.0,0.002162933,0,0.00825119,0,
00:05.0,0.002168655,0,0.008245468,0,
00:05.0,0.002168655,5.72E-06,0.008245468,0,
00:05.0,0.002168655,1.72E-05,0.008245468,0,
00:05.0,0.002162933,1.14E-05,0.008245468,0,
00:05.0,0.002162933,5.72E-06,0.008239746,0,
00:05.0,0.002162933,0,0.00822258,0,
00:05.0,0.002168655,5.72E-06,0.008216858,0,
00:05.0,0.002168655,0,0.008234024,0,
00:05.1,0.002168655,0,0.008245468,0,
00:05.1,0.002168655,5.72E-06,0.00825119,0,
00:05.1,0.002174377,1.14E-05,0.00825119,0,
00:05.1,0.002168655,0,0.008234024,0,
00:05.1,0.002162933,-1.14E-05,0.008234024,0,
00:05.1,0.002162933,0,0.008245468,0,
00:05.1,0.002168655,1.14E-05,0.008239746,0,
00:05.1,0.002168655,1.72E-05,0.008234024,0,
00:05.1,0.002168655,5.72E-06,0.008234024,0,
00:05.1,0.002174377,1.14E-05,0.008228302,0,
00:05.1,0.002168655,5.72E-06,0.008216858,0,
00:05.1,0.002162933,1.14E-05,0.008216858,0,
00:05.1,0.002162933,5.72E-06,0.008239746,0,
00:05.1,0.002168655,5.72E-06,0.008234024,0,
00:05.1,0.002162933,0,0.008234024,0,
00:05.1,0.002162933,-5.72E-06,0.008234024,0,
00:05.1,0.002162933,0,0.008234024,0,
00:05.1,0.002162933,0,0.008234024,0,
00:05.1,0.002162933,-5.72E-06,0.008234024,0,
00:05.1,0.002162933,-1.14E-05,0.008228302,0,
00:05.1,0.002168655,0,0.008228302,0,
00:05.1,0.002168655,5.72E-06,0.00822258,0,
00:05.1,0.002168655,1.14E-05,0.008205414,0,
00:05.1,0.002162933,1.14E-05,0.008211136,0,
00:05.1,0.002174377,1.14E-05,0.008216858,0,
00:05.2,0.002174377,1.72E-05,0.008228302,0,
00:05.2,0.002174377,-5.72E-06,0.008234024,0,
00:05.2,0.002157211,-3.43E-05,0.008234024,0,
00:05.2,0.002162933,-2.29E-05,0.008239746,0,
00:05.2,0.002168655,5.72E-06,0.008234024,0,
00:05.2,0.002162933,5.72E-06,0.008228302,0,
00:05.2,0.002168655,5.72E-06,0.008216858,0,
00:05.2,0.002168655,1.14E-05,0.008216858,0,
00:05.2,0.002174377,1.14E-05,0.008228302,0,
00:05.2,0.002174377,2.29E-05,0.008228302,0,
00:05.2,0.002174377,1.72E-05,0.008216858,0,
00:05.2,0.002168655,5.72E-06,0.008211136,0,
00:05.2,0.002174377,0,0.008205414,0,
00:05.2,0.002168655,0,0.008216858,0,
00:05.2,0.002162933,-5.72E-06,0.008228302,0,
00:05.2,0.002168655,-1.14E-05,0.008234024,0,
00:05.2,0.002162933,0,0.008228302,0,
00:05.2,0.002168655,0,0.00822258,0,
00:05.2,0.002174377,5.72E-06,0.00822258,0,
00:05.2,0.002162933,5.72E-06,0.00822258,0,
00:05.2,0.002162933,-5.72E-06,0.008216858,0,
00:05.2,0.002162933,-1.14E-05,0.008216858,0,
00:05.2,0.002168655,-1.14E-05,0.008216858,0,
00:05.2,0.002162933,-1.14E-05,0.008211136,0,
00:05.2,0.002162933,0,0.008211136,0,
00:05.3,0.002168655,0,0.008216858,0,
00:05.3,0.002168655,-5.72E-06,0.008216858,0,
00:05.3,0.002162933,-5.72E-06,0.008216858,0,
00:05.3,0.002162933,-1.14E-05,0.008216858,0,
00:05.3,0.002162933,-1.72E-05,0.008216858,0,
00:05.3,0.002162933,-5.72E-06,0.008216858,0,
00:05.3,0.002162933,1.14E-05,0.008205414,0,
00:05.3,0.002168655,1.14E-05,0.00819397,0,
00:05.3,0.002168655,0,0.00819397,0,
00:05.3,0.002168655,5.72E-06,0.00822258,0,
00:05.3,0.002162933,0,0.00822258,0,
00:05.3,0.002162933,-1.14E-05,0.008216858,0,
00:05.3,0.002157211,-1.72E-05,0.008211136,0,
00:05.3,0.002162933,-1.14E-05,0.008211136,0,
00:05.3,0.002168655,5.72E-06,0.008205414,0,
00:05.3,0.002168655,5.72E-06,0.008205414,0,
00:05.3,0.002168655,5.72E-06,0.008205414,0,
00:05.3,0.002162933,-5.72E-06,0.008199692,0,
00:05.3,0.002162933,-1.14E-05,0.008205414,0,
00:05.3,0.002162933,-1.72E-05,0.008211136,0,
00:05.3,0.002168655,-1.14E-05,0.008216858,0,
00:05.3,0.002168655,0,0.008211136,0,
00:05.3,0.002162933,-5.72E-06,0.008205414,0,
00:05.3,0.002162933,-1.14E-05,0.008211136,0,
00:05.3,0.002162933,-5.72E-06,0.008205414,0,
00:05.4,0.002162933,-5.72E-06,0.008199692,0,
00:05.4,0.002168655,0,0.008199692,0,
00:05.4,0.002168655,-5.72E-06,0.008199692,0,
00:05.4,0.002168655,1.72E-05,0.008199692,0,
00:05.4,0.002168655,5.72E-06,0.008205414,0,
00:05.4,0.002162933,-1.72E-05,0.008199692,0,
00:05.4,0.002162933,-2.29E-05,0.008199692,0,
00:05.4,0.002157211,-1.72E-05,0.008199692,0,
00:05.4,0.002162933,-1.14E-05,0.00819397,0,
00:05.4,0.002157211,5.72E-06,0.00819397,0,
00:05.4,0.002168655,1.14E-05,0.008176804,0,
00:05.4,0.002162933,-1.14E-05,0.008182526,0,
00:05.4,0.002168655,5.72E-06,0.008205414,0,
00:05.4,0.002168655,5.72E-06,0.008205414,0,
00:05.4,0.002168655,0,0.008205414,0,
00:05.4,0.002168655,-5.72E-06,0.008199692,0,
00:05.4,0.002168655,-5.72E-06,0.008199692,0,
00:05.4,0.002168655,-1.14E-05,0.00819397,0,
00:05.4,0.002162933,-1.72E-05,0.008199692,0,
00:05.4,0.002157211,-2.29E-05,0.00819397,0,
00:05.4,0.002157211,-1.72E-05,0.00819397,0,
00:05.4,0.002157211,-1.14E-05,0.00819397,0,
00:05.4,0.002168655,0,0.008188248,0,
00:05.4,0.002174377,1.72E-05,0.008176804,0,
00:05.4,0.002162933,1.72E-05,0.008171082,0,
00:05.5,0.002180099,5.72E-06,0.008188248,0,
00:05.5,0.002174377,0,0.00819397,0,
00:05.5,0.002168655,-1.14E-05,0.008182526,0,
00:05.5,0.002162933,-2.29E-05,0.008188248,0,
00:05.5,0.002168655,-1.72E-05,0.008199692,0,
00:05.5,0.002168655,-5.72E-06,0.00819397,0,
00:05.5,0.002162933,-5.72E-06,0.008188248,0,
00:05.5,0.002168655,-5.72E-06,0.008188248,0,
00:05.5,0.002162933,-1.14E-05,0.008188248,0,
00:05.5,0.002162933,-1.14E-05,0.008182526,0,
00:05.5,0.002168655,0,0.008182526,0,
00:05.5,0.002174377,5.72E-06,0.008182526,0,
00:05.5,0.002174377,1.14E-05,0.008188248,0,
00:05.5,0.002174377,0,0.00819397,0,
00:05.5,0.002168655,-5.72E-06,0.00819397,0,
00:05.5,0.002168655,-1.14E-05,0.008188248,0,
00:05.5,0.002168655,-5.72E-06,0.008188248,0,
00:05.5,0.002168655,-1.14E-05,0.008182526,0,
00:05.5,0.002157211,-1.72E-05,0.008176804,0,
00:05.5,0.002168655,-5.72E-06,0.008182526,0,
00:05.5,0.002168655,5.72E-06,0.008182526,0,
00:05.5,0.002168655,-5.72E-06,0.008176804,0,
00:05.5,0.002162933,-1.14E-05,0.008182526,0,
00:05.5,0.002168655,0,0.008182526,0,
00:05.5,0.002168655,0,0.008176804,0,
00:05.6,0.002168655,0,0.008182526,0,
00:05.6,0.002162933,-5.72E-06,0.008182526,0,
00:05.6,0.002162933,-1.72E-05,0.008182526,0,
00:05.6,0.002157211,-2.29E-05,0.008188248,0,
00:05.6,0.002168655,-5.72E-06,0.008176804,0,
00:05.6,0.002168655,0,0.008171082,0,
00:05.6,0.002168655,-5.72E-06,0.00819397,0,
00:05.6,0.002174377,0,0.008188248,0,
00:05.6,0.002174377,-5.72E-06,0.008188248,0,
00:05.6,0.002168655,0,0.008188248,0,
00:05.6,0.002168655,-5.72E-06,0.008188248,0,
00:05.6,0.002162933,-1.72E-05,0.008182526,0,
00:05.6,0.002168655,-2.29E-05,0.008182526,0,
00:05.6,0.002162933,-2.86E-05,0.008182526,0,
00:05.6,0.002157211,-2.29E-05,0.008188248,0,
00:05.6,0.002168655,0,0.008176804,0,
00:05.6,0.002168655,5.72E-06,0.008176804,0,
00:05.6,0.002162933,-5.72E-06,0.008176804,0,
00:05.6,0.002157211,-1.14E-05,0.008171082,0,
00:05.6,0.002168655,-1.14E-05,0.008171082,0,
00:05.6,0.002168655,-1.14E-05,0.008182526,0,
00:05.6,0.002174377,0,0.008182526,0,
00:05.6,0.002168655,5.72E-06,0.008176804,0,
00:05.6,0.002168655,0,0.008165359,0,
00:05.6,0.002162933,-5.72E-06,0.008176804,0,
00:05.7,0.002162933,-1.14E-05,0.008199692,0,
00:05.7,0.002162933,-1.72E-05,0.008188248,0,
00:05.7,0.002162933,-1.72E-05,0.008182526,0,
00:05.7,0.002168655,-1.72E-05,0.008182526,0,
00:05.7,0.002168655,-1.72E-05,0.008182526,0,
00:05.7,0.002162933,-5.72E-06,0.008176804,0,
00:05.7,0.002162933,0,0.008176804,0,
00:05.7,0.002168655,0,0.008176804,0,
00:05.7,0.002168655,-5.72E-06,0.008176804,0,
00:05.7,0.002168655,-1.14E-05,0.008182526,0,
00:05.7,0.002168655,-1.72E-05,0.008182526,0,
00:05.7,0.002168655,-1.72E-05,0.008176804,0,
00:05.7,0.002162933,0,0.008165359,0,
00:05.7,0.002168655,0,0.008159637,0,
00:05.7,0.002168655,-1.14E-05,0.008176804,0,
00:05.7,0.002174377,-5.72E-06,0.008182526,0,
00:05.7,0.002174377,-5.72E-06,0.008182526,0,
00:05.7,0.002168655,-2.29E-05,0.008182526,0,
00:05.7,0.002174377,-1.72E-05,0.008182526,0,
00:05.7,0.002168655,-5.72E-06,0.008182526,0,
00:05.7,0.002151489,-1.72E-05,0.008176804,0,
00:05.7,0.002162933,-1.72E-05,0.008171082,0,
00:05.7,0.002174377,1.14E-05,0.008171082,0,
00:05.7,0.002174377,5.72E-06,0.008176804,0,
00:05.7,0.002174377,-5.72E-06,0.008182526,0,
00:05.8,0.002174377,-1.72E-05,0.008176804,0,
00:05.8,0.002168655,-2.29E-05,0.008171082,0,
00:05.8,0.002168655,-2.29E-05,0.008176804,0,
00:05.8,0.002168655,-1.14E-05,0.008176804,0,
00:05.8,0.002168655,-5.72E-06,0.008176804,0,
00:05.8,0.002168655,-1.14E-05,0.008159637,0,
00:05.8,0.002174377,-1.14E-05,0.008148193,0,
00:05.8,0.002174377,-1.14E-05,0.008171082,0,
00:05.8,0.002168655,-1.14E-05,0.008182526,0,
00:05.8,0.002174377,-5.72E-06,0.008176804,0,
00:05.8,0.002168655,-5.72E-06,0.008176804,0,
00:05.8,0.002168655,-1.72E-05,0.008176804,0,
00:05.8,0.002168655,-1.72E-05,0.008176804,0,
00:05.8,0.002174377,-1.14E-05,0.008171082,0,
00:05.8,0.002168655,-1.72E-05,0.008171082,0,
00:05.8,0.002162933,-2.86E-05,0.008165359,0,
00:05.8,0.002151489,-4.01E-05,0.008153915,0,
00:05.8,0.002162933,-1.72E-05,0.008148193,0,
00:05.8,0.002162933,5.72E-06,0.008153915,0,
00:05.8,0.002174377,-1.72E-05,0.008176804,0,
00:05.8,0.002185822,-5.72E-06,0.008182526,0,
00:05.8,0.002180099,-5.72E-06,0.008176804,0,
00:05.8,0.002174377,-5.72E-06,0.008176804,0,
00:05.8,0.002174377,-5.72E-06,0.008171082,0,
00:05.8,0.002174377,-5.72E-06,0.008171082,0,
00:05.9,0.002168655,-1.72E-05,0.008171082,0,
00:05.9,0.002174377,-1.72E-05,0.008165359,0,
00:05.9,0.002168655,-1.14E-05,0.008165359,0,
00:05.9,0.002162933,-2.29E-05,0.008171082,0,
00:05.9,0.002174377,-1.72E-05,0.008171082,0,
00:05.9,0.002174377,-5.72E-06,0.008165359,0,
00:05.9,0.002174377,-1.14E-05,0.008159637,0,
00:05.9,0.002174377,-1.14E-05,0.008159637,0,
00:05.9,0.002174377,-1.72E-05,0.008165359,0,
00:05.9,0.002168655,-2.29E-05,0.008171082,0,
00:05.9,0.002162933,-3.43E-05,0.008159637,0,
00:05.9,0.002168655,-2.86E-05,0.008159637,0,
00:05.9,0.002174377,-1.14E-05,0.008165359,0,
00:05.9,0.002174377,5.72E-06,0.008153915,0,
00:05.9,0.002168655,-1.14E-05,0.008182526,0,
00:05.9,0.002174377,-5.72E-06,0.008188248,0,
00:05.9,0.002174377,-1.14E-05,0.008176804,0,
00:05.9,0.002174377,-1.72E-05,0.008171082,0,
00:05.9,0.002168655,-2.29E-05,0.008171082,0,
00:05.9,0.002168655,-3.43E-05,0.008171082,0,
00:05.9,0.002174377,-3.43E-05,0.008171082,0,
00:05.9,0.002174377,-2.29E-05,0.008165359,0,
00:05.9,0.002180099,-1.72E-05,0.008165359,0,
00:05.9,0.002180099,-5.72E-06,0.008165359,0,
00:05.9,0.002180099,0,0.008159637,0,
00:06.0,0.002174377,-5.72E-06,0.008165359,0,
00:06.0,0.002174377,-5.72E-06,0.008165359,0,
00:06.0,0.002174377,-1.72E-05,0.008182526,0,
00:06.0,0.002174377,-2.29E-05,0.008182526,0,
00:06.0,0.002174377,-2.29E-05,0.008176804,0,
00:06.0,0.002174377,-2.29E-05,0.008176804,0,
00:06.0,0.002174377,-1.72E-05,0.008171082,0,
00:06.0,0.002168655,-1.72E-05,0.008171082,0,
00:06.0,0.002168655,-1.14E-05,0.008159637,0,
00:06.0,0.002180099,-2.29E-05,0.008159637,0,
00:06.0,0.002180099,-1.72E-05,0.008171082,0,
00:06.0,0.002174377,-5.72E-06,0.008171082,0,
00:00:06,0.002174377,-2.29E-05,0.008171082,0,
00:06.0,0.002174377,-2.29E-05,0.008176804,0,
00:06.0,0.002174377,-1.72E-05,0.008165359,0,
00:06.0,0.002168655,-1.72E-05,0.008165359,0,
00:06.0,0.002168655,-1.72E-05,0.008159637,0,
00:06.0,0.002168655,-3.43E-05,0.008153915,0,
00:06.0,0.002174377,-2.29E-05,0.008153915,0,
00:06.0,0.002174377,0,0.008165359,0,
00:06.0,0.002185822,5.72E-06,0.008182526,0,
00:06.0,0.002180099,0,0.008176804,0,
00:06.0,0.002180099,-1.14E-05,0.008176804,0,
00:06.0,0.002180099,-1.72E-05,0.008176804,0,
00:06.0,0.002180099,-1.14E-05,0.008171082,0,
00:06.1,0.002174377,-1.72E-05,0.008171082,0,
00:06.1,0.002174377,-2.29E-05,0.008165359,0,
00:06.1,0.002168655,-2.86E-05,0.008159637,0,
00:06.1,0.002174377,-1.72E-05,0.008153915,0,
00:06.1,0.002174377,-5.72E-06,0.008153915,0,
00:06.1,0.002174377,-2.29E-05,0.008171082,0,
00:06.1,0.002174377,-2.29E-05,0.008176804,0,
00:06.1,0.002174377,-1.72E-05,0.008171082,0,
00:06.1,0.002174377,-1.14E-05,0.008165359,0,
00:06.1,0.002174377,-1.72E-05,0.008165359,0,
00:06.1,0.002174377,-2.86E-05,0.008171082,0,
00:06.1,0.002174377,-4.01E-05,0.008171082,0,
00:06.1,0.002168655,-3.43E-05,0.008165359,0,
00:06.1,0.002162933,-1.72E-05,0.008171082,0,
00:06.1,0.002174377,-5.72E-06,0.008165359,0,
00:06.1,0.002174377,-5.72E-06,0.008165359,0,
00:06.1,0.002174377,-1.72E-05,0.008165359,0,
00:06.1,0.002180099,-1.72E-05,0.008171082,0,
00:06.1,0.002174377,-2.29E-05,0.008171082,0,
00:06.1,0.002174377,-1.72E-05,0.008171082,0,
00:06.1,0.002174377,-1.72E-05,0.008159637,0,
00:06.1,0.002174377,-2.29E-05,0.008153915,0,
00:06.1,0.002174377,-2.86E-05,0.008171082,0,
00:06.1,0.002174377,-3.43E-05,0.008171082,0,
00:06.1,0.002180099,-2.29E-05,0.008176804,0,
00:06.2,0.002180099,-1.14E-05,0.008171082,0,
00:06.2,0.002180099,-1.14E-05,0.008159637,0,
00:06.2,0.002174377,-2.29E-05,0.008165359,0,
00:06.2,0.002174377,-1.72E-05,0.008176804,0,
00:06.2,0.002180099,-2.29E-05,0.008171082,0,
00:06.2,0.002180099,-1.72E-05,0.008165359,0,
00:06.2,0.002180099,-1.72E-05,0.008165359,0,
00:06.2,0.002174377,-1.72E-05,0.008165359,0,
00:06.2,0.002168655,-2.86E-05,0.008165359,0,
00:06.2,0.002168655,-2.29E-05,0.008159637,0,
00:06.2,0.002168655,-1.72E-05,0.008148193,0,
00:06.2,0.002174377,-2.86E-05,0.008153915,0,
00:06.2,0.002180099,-2.29E-05,0.008176804,0,
00:06.2,0.002180099,-1.14E-05,0.008165359,0,
00:06.2,0.002180099,0,0.008159637,0,
00:06.2,0.002174377,-1.14E-05,0.008171082,0,
00:06.2,0.002174377,-2.29E-05,0.008171082,0,
00:06.2,0.002174377,-2.86E-05,0.008165359,0,
00:06.2,0.002180099,-3.43E-05,0.008176804,0,
00:06.2,0.002180099,-4.01E-05,0.008171082,0,
00:06.2,0.002174377,-4.58E-05,0.008171082,0,
00:06.2,0.002174377,-2.86E-05,0.008171082,0,
00:06.2,0.002174377,-1.72E-05,0.008171082,0,
00:06.2,0.002180099,-1.14E-05,0.008165359,0,
00:06.2,0.002180099,-1.14E-05,0.008165359,0,
00:06.3,0.002185822,-1.72E-05,0.008171082,0,
00:06.3,0.002174377,-2.29E-05,0.008165359,0,
00:06.3,0.002180099,-2.86E-05,0.008165359,0,
00:06.3,0.002180099,-3.43E-05,0.008171082,0,
00:06.3,0.002174377,-2.86E-05,0.008176804,0,
00:06.3,0.002174377,-1.72E-05,0.008176804,0,
00:06.3,0.002180099,-1.72E-05,0.008171082,0,
00:06.3,0.002174377,-3.43E-05,0.008171082,0,
00:06.3,0.002174377,-4.58E-05,0.008171082,0,
00:06.3,0.002162933,-4.58E-05,0.008171082,0,
00:06.3,0.002157211,-2.29E-05,0.008165359,0,
00:06.3,0.002185822,-5.72E-06,0.008159637,0,
00:06.3,0.002168655,-2.29E-05,0.008148193,0,
00:06.3,0.002185822,-2.29E-05,0.008165359,0,
00:06.3,0.002185822,-1.72E-05,0.008176804,0,
00:06.3,0.002191544,-1.14E-05,0.008171082,0,
00:06.3,0.002180099,-2.29E-05,0.008176804,0,
00:06.3,0.002174377,-2.86E-05,0.008176804,0,
00:06.3,0.002174377,-3.43E-05,0.008171082,0,
00:06.3,0.002174377,-3.43E-05,0.008171082,0,
00:06.3,0.002180099,-2.29E-05,0.008176804,0,
00:06.3,0.002174377,-4.01E-05,0.008171082,0,
00:06.3,0.002168655,-4.58E-05,0.008165359,0,
00:06.3,0.002174377,-1.72E-05,0.008159637,0,
00:06.3,0.002180099,0,0.008153915,0,
00:06.4,0.002185822,0,0.008165359,0,
00:06.4,0.002180099,-1.72E-05,0.008176804,0,
00:06.4,0.002180099,-2.29E-05,0.008176804,0,
00:06.4,0.002180099,-1.72E-05,0.008171082,0,
00:06.4,0.002180099,-2.29E-05,0.008171082,0,
00:06.4,0.002174377,-2.86E-05,0.008182526,0,
00:06.4,0.002174377,-3.43E-05,0.008176804,0,
00:06.4,0.002174377,-4.01E-05,0.008171082,0,
00:06.4,0.002174377,-4.58E-05,0.008171082,0,
00:06.4,0.002174377,-4.01E-05,0.008176804,0,
00:06.4,0.002180099,-1.72E-05,0.008159637,0,
00:06.4,0.002168655,-2.29E-05,0.008148193,0,
00:06.4,0.002174377,-2.86E-05,0.008153915,0,
00:06.4,0.002191544,-1.14E-05,0.008176804,0,
00:06.4,0.002180099,-1.72E-05,0.008182526,0,
00:06.4,0.002180099,-2.29E-05,0.008188248,0,
00:06.4,0.002180099,-2.86E-05,0.008182526,0,
00:06.4,0.002180099,-3.43E-05,0.008176804,0,
00:06.4,0.002174377,-4.58E-05,0.008176804,0,
00:06.4,0.002180099,-2.86E-05,0.008176804,0,
00:06.4,0.002180099,-1.72E-05,0.008176804,0,
00:06.4,0.002180099,-2.29E-05,0.008171082,0,
00:06.4,0.002168655,-2.29E-05,0.008171082,0,
00:06.4,0.002180099,-1.72E-05,0.008165359,0,
00:06.4,0.002191544,-1.14E-05,0.008159637,0,
00:06.5,0.002185822,-1.72E-05,0.008165359,0,
00:06.5,0.002180099,-2.86E-05,0.008188248,0,
00:06.5,0.002180099,-2.29E-05,0.008182526,0,
00:06.5,0.002180099,-2.29E-05,0.008176804,0,
00:06.5,0.002180099,-2.29E-05,0.008182526,0,
00:06.5,0.002180099,-2.86E-05,0.008182526,0,
00:06.5,0.002174377,-3.43E-05,0.008176804,0,
00:06.5,0.002180099,-2.86E-05,0.008176804,0,
00:06.5,0.002180099,-2.86E-05,0.008176804,0,
00:06.5,0.002180099,-2.86E-05,0.008176804,0,
00:06.5,0.002168655,-3.43E-05,0.008176804,0,
00:06.5,0.002180099,-2.86E-05,0.008171082,0,
00:06.5,0.002180099,-2.29E-05,0.008159637,0,
00:06.5,0.002180099,-1.14E-05,0.008153915,0,
00:06.5,0.002174377,-4.01E-05,0.008176804,0,
00:06.5,0.002180099,-4.01E-05,0.008176804,0,
00:06.5,0.002180099,-3.43E-05,0.008182526,0,
00:06.5,0.002180099,-3.43E-05,0.008182526,0,
00:06.5,0.002180099,-3.43E-05,0.008182526,0,
00:06.5,0.002180099,-2.29E-05,0.008182526,0,
00:06.5,0.002180099,-2.29E-05,0.008176804,0,
00:06.5,0.002180099,-1.72E-05,0.008176804,0,
00:06.5,0.002180099,-1.72E-05,0.008176804,0,
00:06.5,0.002180099,-2.86E-05,0.008176804,0,
00:06.5,0.002180099,-2.86E-05,0.008176804,0,
00:06.6,0.002180099,-2.29E-05,0.008171082,0,
00:06.6,0.002180099,-2.86E-05,0.008176804,0,
00:06.6,0.002180099,-3.43E-05,0.008176804,0,
00:06.6,0.002180099,-4.01E-05,0.008171082,0,
00:06.6,0.002174377,-4.01E-05,0.008159637,0,
00:06.6,0.002180099,-1.72E-05,0.008176804,0,
00:06.6,0.002185822,-5.72E-06,0.008176804,0,
00:06.6,0.002185822,-2.29E-05,0.008176804,0,
00:06.6,0.002185822,-2.29E-05,0.008182526,0,
00:06.6,0.002180099,-2.86E-05,0.008182526,0,
00:06.6,0.002174377,-4.01E-05,0.008188248,0,
00:06.6,0.002174377,-4.01E-05,0.008182526,0,
00:06.6,0.002180099,-2.86E-05,0.008176804,0,
00:06.6,0.002174377,-2.86E-05,0.008176804,0,
00:06.6,0.002180099,-3.43E-05,0.008171082,0,
00:06.6,0.002185822,-2.86E-05,0.008171082,0,
00:06.6,0.002185822,-3.43E-05,0.008182526,0,
00:06.6,0.002185822,-2.29E-05,0.008182526,0,
00:06.6,0.002185822,-2.29E-05,0.008176804,0,
00:06.6,0.002185822,-2.86E-05,0.008176804,0,
00:06.6,0.002180099,-3.43E-05,0.008176804,0,
00:06.6,0.002180099,-3.43E-05,0.008182526,0,
00:06.6,0.002191544,-2.86E-05,0.008182526,0,
00:06.6,0.002180099,-2.86E-05,0.008182526,0,
00:06.6,0.002180099,-2.86E-05,0.008182526,0,
00:06.7,0.002180099,-2.29E-05,0.008182526,0,
00:06.7,0.002180099,-2.29E-05,0.008176804,0,
00:06.7,0.002185822,-2.29E-05,0.008176804,0,
00:06.7,0.002180099,-3.43E-05,0.008176804,0,
00:06.7,0.002185822,-2.29E-05,0.008176804,0,
00:06.7,0.002185822,-2.86E-05,0.008182526,0,
00:06.7,0.002180099,-2.86E-05,0.008182526,0,
00:06.7,0.002180099,-3.43E-05,0.008182526,0,
00:06.7,0.002168655,-4.58E-05,0.008182526,0,
00:06.7,0.002180099,-4.01E-05,0.008176804,0,
00:06.7,0.002174377,-4.58E-05,0.008182526,0,
00:06.7,0.002185822,-3.43E-05,0.008182526,0,
00:06.7,0.002191544,-1.14E-05,0.008182526,0,
00:06.7,0.002185822,-1.14E-05,0.008176804,0,
00:06.7,0.002185822,-2.29E-05,0.008176804,0,
00:06.7,0.002180099,-5.72E-05,0.008182526,0,
00:06.7,0.002174377,-5.72E-05,0.008182526,0,
00:06.7,0.002185822,-2.86E-05,0.008176804,0,
00:06.7,0.002185822,-5.72E-06,0.008176804,0,
00:06.7,0.002185822,-2.86E-05,0.008182526,0,
00:06.7,0.002185822,-2.86E-05,0.008182526,0,
00:06.7,0.002185822,-1.72E-05,0.008176804,0,
00:06.7,0.002180099,-2.86E-05,0.008182526,0,
00:06.7,0.002174377,-3.43E-05,0.008188248,0,
00:06.7,0.002180099,-2.86E-05,0.008188248,0,
00:06.8,0.002185822,-2.29E-05,0.008188248,0,
00:06.8,0.002185822,-2.86E-05,0.008176804,0,
00:06.8,0.002174377,-4.58E-05,0.008182526,0,
00:06.8,0.002174377,-4.01E-05,0.008188248,0,
00:06.8,0.002174377,-4.01E-05,0.00819397,0,
00:06.8,0.002185822,-2.86E-05,0.008188248,0,
00:06.8,0.002185822,-2.86E-05,0.008182526,0,
00:06.8,0.002180099,-4.58E-05,0.008182526,0,
00:06.8,0.002180099,-5.15E-05,0.008176804,0,
00:06.8,0.002180099,-4.01E-05,0.008171082,0,
00:06.8,0.002180099,-2.86E-05,0.00819397,0,
00:06.8,0.002185822,-2.29E-05,0.00819397,0,
00:06.8,0.002185822,-2.86E-05,0.008188248,0,
00:06.8,0.002185822,-2.86E-05,0.008182526,0,
00:06.8,0.002180099,-2.86E-05,0.008188248,0,
00:06.8,0.002180099,-2.86E-05,0.00819397,0,
00:06.8,0.002185822,-3.43E-05,0.00819397,0,
00:06.8,0.002174377,-3.43E-05,0.008188248,0,
00:06.8,0.002180099,-3.43E-05,0.008188248,0,
00:06.8,0.002180099,-3.43E-05,0.00819397,0,
00:06.8,0.002180099,-2.86E-05,0.00819397,0,
00:06.8,0.002180099,-2.29E-05,0.008188248,0,
00:06.8,0.002180099,-3.43E-05,0.00819397,0,
00:06.8,0.002180099,-4.58E-05,0.00819397,0,
00:06.8,0.002174377,-4.01E-05,0.00819397,0,
00:06.9,0.002180099,-2.86E-05,0.00819397,0,
00:06.9,0.002180099,-2.86E-05,0.00819397,0,
00:06.9,0.002185822,-3.43E-05,0.008182526,0,
00:06.9,0.002185822,-4.58E-05,0.008188248,0,
00:06.9,0.002180099,-4.58E-05,0.008188248,0,
00:06.9,0.002180099,-2.86E-05,0.00819397,0,
00:06.9,0.002185822,-3.43E-05,0.008205414,0,
00:06.9,0.002185822,-4.58E-05,0.008199692,0,
00:06.9,0.002185822,-2.29E-05,0.008205414,0,
00:06.9,0.002185822,-2.86E-05,0.00819397,0,
00:06.9,0.002185822,-2.86E-05,0.008182526,0,
00:06.9,0.002180099,-2.29E-05,0.008176804,0,
00:06.9,0.002180099,-2.86E-05,0.008211136,0,
00:06.9,0.002185822,-3.43E-05,0.008211136,0,
00:06.9,0.002191544,-2.86E-05,0.008205414,0,
00:06.9,0.002180099,-4.01E-05,0.008205414,0,
00:06.9,0.002185822,-4.01E-05,0.008199692,0,
00:06.9,0.002180099,-5.15E-05,0.008199692,0,
00:06.9,0.002174377,-5.72E-05,0.008205414,0,
00:06.9,0.002180099,-4.01E-05,0.008205414,0,
00:06.9,0.002180099,-4.01E-05,0.00819397,0,
00:06.9,0.002180099,-4.01E-05,0.008182526,0,
00:06.9,0.002180099,-4.58E-05,0.008205414,0,
00:06.9,0.002191544,-1.14E-05,0.008216858,0,
00:06.9,0.002191544,-1.72E-05,0.008211136,0,
00:07.0,0.002185822,-3.43E-05,0.008211136,0,
00:07.0,0.002185822,-3.43E-05,0.008205414,0,
00:07.0,0.002185822,-4.01E-05,0.008205414,0,
00:07.0,0.002180099,-5.15E-05,0.008211136,0,
00:07.0,0.002180099,-4.01E-05,0.008205414,0,
00:07.0,0.002185822,-1.72E-05,0.00819397,0,
00:07.0,0.002185822,-1.72E-05,0.00819397,0,
00:07.0,0.002185822,-4.58E-05,0.008216858,0,
00:07.0,0.002185822,-3.43E-05,0.008216858,0,
00:07.0,0.002185822,-2.86E-05,0.008216858,0,
00:07.0,0.002185822,-4.01E-05,0.008216858,0,
00:07.0,0.002185822,-4.58E-05,0.008216858,0,
00:00:07,0.002180099,-4.58E-05,0.008211136,0,
00:07.0,0.002174377,-6.29E-05,0.008211136,0,
00:07.0,0.002168655,-8.58E-05,0.008211136,0,
00:07.0,0.002180099,-4.58E-05,0.008199692,0,
00:07.0,0.002191544,-5.72E-06,0.008199692,0,
00:07.0,0.002191544,-5.72E-06,0.008211136,0,
00:07.0,0.002191544,-1.72E-05,0.008216858,0,
00:07.0,0.002185822,-3.43E-05,0.00822258,0,
00:07.0,0.002191544,-2.86E-05,0.00822258,0,
00:07.0,0.002185822,-3.43E-05,0.008216858,0,
00:07.0,0.002185822,-3.43E-05,0.008216858,0,
00:07.0,0.002185822,-3.43E-05,0.008216858,0,
00:07.0,0.002180099,-4.58E-05,0.008211136,0,
00:07.1,0.002174377,-5.72E-05,0.008211136,0,
00:07.1,0.002180099,-5.15E-05,0.008205414,0,
00:07.1,0.002191544,-2.86E-05,0.008216858,0,
00:07.1,0.002180099,-4.01E-05,0.008216858,0,
00:07.1,0.002185822,-2.86E-05,0.00822258,0,
00:07.1,0.002185822,-2.86E-05,0.00822258,0,
00:07.1,0.002185822,-3.43E-05,0.008216858,0,
00:07.1,0.002185822,-3.43E-05,0.008211136,0,
00:07.1,0.002191544,-2.86E-05,0.008211136,0,
00:07.1,0.002185822,-4.01E-05,0.008211136,0,
00:07.1,0.002185822,-4.58E-05,0.008216858,0,
00:07.1,0.002185822,-4.58E-05,0.00822258,0,
00:07.1,0.002180099,-4.58E-05,0.008216858,0,
00:07.1,0.002180099,-5.15E-05,0.008216858,0,
00:07.1,0.002168655,-7.44E-05,0.008228302,0,
00:07.1,0.002174377,-5.72E-05,0.008228302,0,
00:07.1,0.002197266,-1.72E-05,0.00822258,0,
00:07.1,0.002191544,-2.29E-05,0.00822258,0,
00:07.1,0.002185822,-3.43E-05,0.008228302,0,
00:07.1,0.002180099,-3.43E-05,0.00822258,0,
00:07.1,0.002185822,-3.43E-05,0.008216858,0,
00:07.1,0.002185822,-4.58E-05,0.00822258,0,
00:07.1,0.002180099,-6.29E-05,0.008228302,0,
00:07.1,0.002174377,-6.87E-05,0.008228302,0,
00:07.1,0.002185822,-3.43E-05,0.008228302,0,
00:07.2,0.002191544,-1.72E-05,0.008228302,0,
00:07.2,0.002191544,-2.86E-05,0.00822258,0,
00:07.2,0.002191544,-3.43E-05,0.008216858,0,
00:07.2,0.002185822,-4.01E-05,0.008211136,0,
00:07.2,0.002191544,-3.43E-05,0.008216858,0,
00:07.2,0.002191544,-3.43E-05,0.008228302,0,
00:07.2,0.002191544,-4.58E-05,0.008228302,0,
00:07.2,0.002191544,-4.01E-05,0.008228302,0,
00:07.2,0.002185822,-4.01E-05,0.008234024,0,
00:07.2,0.002185822,-4.01E-05,0.008228302,0,
00:07.2,0.002185822,-4.01E-05,0.00822258,0,
00:07.2,0.002191544,-4.01E-05,0.008216858,0,
00:07.2,0.002185822,-4.01E-05,0.008239746,0,
00:07.2,0.002185822,-2.86E-05,0.008239746,0,
00:07.2,0.002191544,-3.43E-05,0.008234024,0,
00:07.2,0.002185822,-4.58E-05,0.008234024,0,
00:07.2,0.002185822,-4.58E-05,0.008234024,0,
00:07.2,0.002185822,-5.15E-05,0.008234024,0,
00:07.2,0.002185822,-4.58E-05,0.008234024,0,
00:07.2,0.002185822,-4.58E-05,0.008234024,0,
00:07.2,0.002180099,-5.15E-05,0.008234024,0,
00:07.2,0.002185822,-4.58E-05,0.008228302,0,
00:07.2,0.002191544,-3.43E-05,0.008228302,0,
00:07.2,0.002191544,-4.58E-05,0.008234024,0,
00:07.2,0.002185822,-5.72E-05,0.008234024,0,
00:07.3,0.002185822,-5.15E-05,0.008234024,0,
00:07.3,0.002191544,-3.43E-05,0.008239746,0,
00:07.3,0.002191544,-3.43E-05,0.008239746,0,
00:07.3,0.002191544,-3.43E-05,0.008239746,0,
00:07.3,0.002185822,-4.01E-05,0.008245468,0,
00:07.3,0.002185822,-4.01E-05,0.008234024,0,
00:07.3,0.002185822,-4.01E-05,0.008216858,0,
00:07.3,0.002174377,-5.72E-05,0.00822258,0,
00:07.3,0.002185822,-4.58E-05,0.008239746,0,
00:07.3,0.002191544,-2.86E-05,0.008245468,0,
00:07.3,0.002191544,-3.43E-05,0.008245468,0,
00:07.3,0.002185822,-3.43E-05,0.00825119,0,
00:07.3,0.002191544,-4.01E-05,0.00825119,0,
00:07.3,0.002185822,-4.58E-05,0.00825119,0,
00:07.3,0.002180099,-4.58E-05,0.00825119,0,
00:07.3,0.002180099,-5.15E-05,0.008245468,0,
00:07.3,0.002174377,-6.87E-05,0.008245468,0,
00:07.3,0.002191544,-5.72E-05,0.008245468,0,
00:07.3,0.002191544,-3.43E-05,0.008245468,0,
00:07.3,0.002191544,-2.86E-05,0.008245468,0,
00:07.3,0.002191544,-3.43E-05,0.008245468,0,
00:07.3,0.002191544,-4.01E-05,0.008245468,0,
00:07.3,0.002185822,-5.15E-05,0.008245468,0,
00:07.3,0.002185822,-5.15E-05,0.008245468,0,
00:07.3,0.002191544,-4.58E-05,0.008245468,0,
00:07.4,0.002191544,-4.01E-05,0.008234024,0,
00:07.4,0.002191544,-4.01E-05,0.008245468,0,
00:07.4,0.002185822,-5.15E-05,0.00825119,0,
00:07.4,0.002185822,-6.29E-05,0.00825119,0,
00:07.4,0.002180099,-7.44E-05,0.00825119,0,
00:07.4,0.002185822,-5.72E-05,0.00825119,0,
00:07.4,0.002185822,-3.43E-05,0.008245468,0,
00:07.4,0.002185822,-2.86E-05,0.008256912,0,
00:07.4,0.002185822,-6.87E-05,0.00825119,0,
00:07.4,0.002180099,-6.29E-05,0.008262634,0,
00:07.4,0.002185822,-3.43E-05,0.008256912,0,
00:07.4,0.002174377,-7.44E-05,0.00825119,0,
00:07.4,0.002185822,-4.01E-05,0.008256912,0,
00:07.4,0.002197266,-2.29E-05,0.008256912,0,
00:07.4,0.002191544,-3.43E-05,0.008262634,0,
00:07.4,0.002185822,-4.01E-05,0.008256912,0,
00:07.4,0.002191544,-4.58E-05,0.008256912,0,
00:07.4,0.002191544,-4.01E-05,0.008256912,0,
00:07.4,0.002191544,-3.43E-05,0.00825119,0,
00:07.4,0.002185822,-4.01E-05,0.008256912,0,
00:07.4,0.002185822,-4.01E-05,0.008262634,0,
00:07.4,0.002191544,-4.01E-05,0.008262634,0,
00:07.4,0.002191544,-4.58E-05,0.008256912,0,
00:07.4,0.002185822,-4.58E-05,0.00825119,0,
00:07.4,0.002191544,-5.15E-05,0.00825119,0,
00:07.5,0.002185822,-4.01E-05,0.008239746,0,
00:07.5,0.002185822,-5.15E-05,0.008239746,0,
00:07.5,0.002185822,-6.29E-05,0.008285522,0,
00:07.5,0.002180099,-6.87E-05,0.0082798,0,
00:07.5,0.002185822,-6.87E-05,0.008274078,0,
00:07.5,0.002191544,-4.58E-05,0.008268356,0,
00:07.5,0.002191544,-3.43E-05,0.008268356,0,
00:07.5,0.002185822,-4.58E-05,0.008268356,0,
00:07.5,0.002185822,-5.72E-05,0.008268356,0,
00:07.5,0.002185822,-5.72E-05,0.008268356,0,
00:07.5,0.002191544,-5.15E-05,0.008268356,0,
00:07.5,0.002185822,-4.58E-05,0.008268356,0,
00:07.5,0.002185822,-5.72E-05,0.008268356,0,
00:07.5,0.002185822,-6.29E-05,0.008262634,0,
00:07.5,0.002191544,-6.29E-05,0.008274078,0,
00:07.5,0.002185822,-5.15E-05,0.008274078,0,
00:07.5,0.002191544,-4.58E-05,0.008268356,0,
00:07.5,0.002191544,-4.01E-05,0.008268356,0,
00:07.5,0.002191544,-4.58E-05,0.008274078,0,
00:07.5,0.002185822,-4.58E-05,0.008262634,0,
00:07.5,0.002185822,-5.72E-05,0.00825119,0,
00:07.5,0.002185822,-6.29E-05,0.0082798,0,
00:07.5,0.002185822,-4.58E-05,0.008274078,0,
00:07.5,0.002185822,-5.15E-05,0.008262634,0,
00:07.5,0.002185822,-6.29E-05,0.008285522,0,
00:07.6,0.002180099,-6.87E-05,0.008291245,0,
00:07.6,0.002185822,-5.15E-05,0.008285522,0,
00:07.6,0.002185822,-4.01E-05,0.0082798,0,
00:07.6,0.002180099,-5.72E-05,0.0082798,0,
00:07.6,0.002185822,-6.29E-05,0.008285522,0,
00:07.6,0.002185822,-6.87E-05,0.0082798,0,
00:07.6,0.002174377,-6.87E-05,0.0082798,0,
00:07.6,0.002180099,-5.72E-05,0.0082798,0,
00:07.6,0.002185822,-5.15E-05,0.0082798,0,
00:07.6,0.002180099,-5.72E-05,0.0082798,0,
00:07.6,0.002180099,-5.72E-05,0.0082798,0,
00:07.6,0.002185822,-5.15E-05,0.0082798,0,
00:07.6,0.002185822,-5.72E-05,0.0082798,0,
00:07.6,0.002185822,-5.15E-05,0.0082798,0,
00:07.6,0.002185822,-5.72E-05,0.0082798,0,
00:07.6,0.002185822,-5.15E-05,0.008274078,0,
00:07.6,0.002185822,-5.15E-05,0.008285522,0,
00:07.6,0.002180099,-6.87E-05,0.008285522,0,
00:07.6,0.002174377,-9.16E-05,0.008285522,0,
00:07.6,0.002180099,-8.58E-05,0.008285522,0,
00:07.6,0.002185822,-6.29E-05,0.008274078,0,
00:07.6,0.002185822,-4.58E-05,0.008285522,0,
00:07.6,0.002185822,-3.43E-05,0.0082798,0,
00:07.6,0.002180099,-5.72E-05,0.008285522,0,
00:07.6,0.002191544,-5.72E-05,0.008296967,0,
00:07.7,0.002185822,-6.29E-05,0.008296967,0,
00:07.7,0.002185822,-5.15E-05,0.008285522,0,
00:07.7,0.002185822,-6.29E-05,0.0082798,0,
00:07.7,0.002180099,-8.01E-05,0.0082798,0,
00:07.7,0.002180099,-8.01E-05,0.008285522,0,
00:07.7,0.002180099,-7.44E-05,0.008296967,0,
00:07.7,0.002185822,-5.15E-05,0.008302689,0,
00:07.7,0.002174377,-5.72E-05,0.008296967,0,
00:07.7,0.002180099,-6.29E-05,0.008296967,0,
00:07.7,0.002185822,-5.72E-05,0.008296967,0,
00:07.7,0.002185822,-5.72E-05,0.008291245,0,
00:07.7,0.002185822,-5.72E-05,0.008291245,0,
00:07.7,0.002185822,-5.15E-05,0.008291245,0,
00:07.7,0.002180099,-6.87E-05,0.008285522,0,
00:07.7,0.002185822,-7.44E-05,0.008296967,0,
00:07.7,0.002180099,-8.01E-05,0.008296967,0,
00:07.7,0.002174377,-9.16E-05,0.008291245,0,
00:07.7,0.002180099,-8.58E-05,0.008296967,0,
00:07.7,0.002180099,-5.72E-05,0.008296967,0,
00:07.7,0.002185822,-3.43E-05,0.008291245,0,
00:07.7,0.002185822,-4.58E-05,0.008296967,0,
00:07.7,0.002185822,-5.15E-05,0.008296967,0,
00:07.7,0.002185822,-5.72E-05,0.008285522,0,
00:07.7,0.002180099,-6.87E-05,0.008296967,0,
00:07.7,0.002174377,-8.01E-05,0.008314133,0,
00:07.8,0.002174377,-8.58E-05,0.008308411,0,
00:07.8,0.002174377,-8.01E-05,0.008302689,0,
00:07.8,0.002180099,-6.87E-05,0.008302689,0,
00:07.8,0.002180099,-6.29E-05,0.008302689,0,
00:07.8,0.002174377,-6.29E-05,0.008296967,0,
00:07.8,0.002185822,-6.29E-05,0.008296967,0,
00:07.8,0.002180099,-8.01E-05,0.008308411,0,
00:07.8,0.002180099,-8.01E-05,0.008308411,0,
00:07.8,0.002185822,-6.87E-05,0.008302689,0,
00:07.8,0.002185822,-6.29E-05,0.008308411,0,
00:07.8,0.002185822,-6.29E-05,0.008308411,0,
00:07.8,0.002180099,-6.29E-05,0.008308411,0,
00:07.8,0.002180099,-6.87E-05,0.008296967,0,
00:07.8,0.002180099,-6.87E-05,0.008291245,0,
00:07.8,0.002180099,-8.01E-05,0.008302689,0,
00:07.8,0.002180099,-7.44E-05,0.008308411,0,
00:07.8,0.002174377,-6.87E-05,0.008285522,0,
00:07.8,0.002174377,-8.58E-05,0.008291245,0,
00:07.8,0.002180099,-6.87E-05,0.008331299,0,
00:07.8,0.002180099,-6.29E-05,0.008314133,0,
00:07.8,0.002180099,-6.87E-05,0.008314133,0,
00:07.8,0.002180099,-8.01E-05,0.008314133,0,
00:07.8,0.002174377,-8.01E-05,0.008314133,0,
00:07.8,0.002180099,-6.29E-05,0.008314133,0,
00:07.8,0.002180099,-6.29E-05,0.008314133,0,
00:07.9,0.002174377,-7.44E-05,0.008319855,0,
00:07.9,0.002168655,-8.58E-05,0.008319855,0,
00:07.9,0.002174377,-7.44E-05,0.008308411,0,
00:07.9,0.002174377,-7.44E-05,0.008314133,0,
00:07.9,0.002180099,-8.01E-05,0.008319855,0,
00:07.9,0.002180099,-7.44E-05,0.008319855,0,
00:07.9,0.002180099,-7.44E-05,0.008314133,0,
00:07.9,0.002180099,-6.87E-05,0.008314133,0,
00:07.9,0.002180099,-7.44E-05,0.008319855,0,
00:07.9,0.002180099,-8.01E-05,0.008319855,0,
00:07.9,0.002168655,-9.73E-05,0.008314133,0,
00:07.9,0.002168655,-9.73E-05,0.008314133,0,
00:07.9,0.002180099,-8.01E-05,0.008314133,0,
00:07.9,0.002174377,-8.01E-05,0.008314133,0,
00:07.9,0.002174377,-6.29E-05,0.008314133,0,
00:07.9,0.002180099,-6.87E-05,0.008319855,0,
00:07.9,0.002180099,-7.44E-05,0.008325577,0,
00:07.9,0.002180099,-7.44E-05,0.008325577,0,
00:07.9,0.002180099,-6.87E-05,0.008314133,0,
00:07.9,0.002174377,-8.01E-05,0.008314133,0,
00:07.9,0.002174377,-8.58E-05,0.008325577,0,
00:07.9,0.002174377,-8.01E-05,0.008337021,0,
00:07.9,0.002168655,-7.44E-05,0.008325577,0,
00:07.9,0.002174377,-8.01E-05,0.008331299,0,
00:07.9,0.002162933,-8.58E-05,0.008331299,0,
00:08.0,0.002174377,-8.01E-05,0.008331299,0,
00:08.0,0.002180099,-8.01E-05,0.008325577,0,
00:08.0,0.002180099,-9.16E-05,0.008325577,0,
00:08.0,0.002180099,-8.58E-05,0.008325577,0,
00:08.0,0.002180099,-8.01E-05,0.008331299,0,
00:08.0,0.002180099,-8.01E-05,0.008325577,0,
00:08.0,0.002180099,-8.01E-05,0.008325577,0,
00:08.0,0.002180099,-8.01E-05,0.008319855,0,
00:08.0,0.002180099,-8.58E-05,0.008319855,0,
00:08.0,0.002174377,-8.01E-05,0.008319855,0,
00:08.0,0.002168655,-0.000102997,0.008325577,0,
00:08.0,0.002162933,-0.000114441,0.008331299,0,
00:00:08,0.002168655,-9.16E-05,0.008331299,0,
00:08.0,0.002180099,-8.01E-05,0.008337021,0,
00:08.0,0.002180099,-8.01E-05,0.008337021,0,
00:08.0,0.002180099,-7.44E-05,0.008337021,0,
00:08.0,0.002180099,-7.44E-05,0.008342743,0,
00:08.0,0.002174377,-8.58E-05,0.008337021,0,
00:08.0,0.002174377,-8.58E-05,0.008337021,0,
00:08.0,0.002168655,-9.16E-05,0.008342743,0,
00:08.0,0.002174377,-8.58E-05,0.008337021,0,
00:08.0,0.002168655,-8.01E-05,0.008337021,0,
00:08.0,0.002168655,-9.16E-05,0.008342743,0,
00:08.0,0.002168655,-9.16E-05,0.008342743,0,
00:08.0,0.002174377,-9.16E-05,0.008337021,0,
00:08.1,0.002174377,-9.16E-05,0.008342743,0,
00:08.1,0.002174377,-8.58E-05,0.008337021,0,
00:08.1,0.002168655,-9.73E-05,0.008342743,0,
00:08.1,0.002168655,-0.000108719,0.008342743,0,
00:08.1,0.002168655,-0.000120163,0.008342743,0,
00:08.1,0.002168655,-0.000114441,0.008342743,0,
00:08.1,0.002174377,-0.000102997,0.008342743,0,
00:08.1,0.002168655,-9.73E-05,0.008337021,0,
00:08.1,0.002180099,-8.01E-05,0.008342743,0,
00:08.1,0.002180099,-6.29E-05,0.008342743,0,
00:08.1,0.002174377,-7.44E-05,0.008337021,0,
00:08.1,0.002174377,-9.16E-05,0.008342743,0,
00:08.1,0.002174377,-9.16E-05,0.008342743,0,
00:08.1,0.002168655,-9.16E-05,0.008342743,0,
00:08.1,0.002168655,-9.16E-05,0.008342743,0,
00:08.1,0.002168655,-0.000108719,0.008354187,0,
00:08.1,0.002162933,-0.000114441,0.008359909,0,
00:08.1,0.002174377,-9.16E-05,0.008354187,0,
00:08.1,0.002174377,-9.16E-05,0.008354187,0,
00:08.1,0.002168655,-0.000102997,0.008359909,0,
00:08.1,0.002174377,-9.73E-05,0.008354187,0,
00:08.1,0.002174377,-9.73E-05,0.008354187,0,
00:08.1,0.002174377,-9.16E-05,0.008354187,0,
00:08.1,0.002174377,-8.58E-05,0.008348465,0,
00:08.1,0.002174377,-9.73E-05,0.008354187,0,
00:08.2,0.002168655,-0.000108719,0.008359909,0,
00:08.2,0.002162933,-0.000125885,0.008354187,0,
00:08.2,0.002157211,-0.000131607,0.008354187,0,
00:08.2,0.002162933,-0.000114441,0.008359909,0,
00:08.2,0.002174377,-0.000102997,0.008359909,0,
00:08.2,0.002174377,-9.73E-05,0.008359909,0,
00:08.2,0.002180099,-8.58E-05,0.008354187,0,
00:08.2,0.002180099,-8.58E-05,0.008354187,0,
00:08.2,0.002180099,-8.58E-05,0.008359909,0,
00:08.2,0.002174377,-9.16E-05,0.008354187,0,
00:08.2,0.002168655,-9.73E-05,0.008354187,0,
00:08.2,0.002174377,-9.73E-05,0.008359909,0,
00:08.2,0.002174377,-0.000102997,0.008371353,0,
00:08.2,0.002162933,-0.000108719,0.008365631,0,
00:08.2,0.002168655,-0.000108719,0.008359909,0,
00:08.2,0.002168655,-0.000125885,0.008359909,0,
00:08.2,0.002168655,-0.000125885,0.008365631,0,
00:08.2,0.002168655,-0.000114441,0.008371353,0,
00:08.2,0.002157211,-0.000114441,0.008371353,0,
00:08.2,0.002168655,-0.000108719,0.008371353,0,
00:08.2,0.002180099,-9.73E-05,0.008371353,0,
00:08.2,0.002174377,-9.73E-05,0.008365631,0,
00:08.2,0.002168655,-0.000108719,0.008365631,0,
00:08.2,0.002168655,-0.000108719,0.008365631,0,
00:08.2,0.002162933,-0.000114441,0.008359909,0,
00:08.3,0.002162933,-0.000137329,0.008371353,0,
00:08.3,0.002174377,-0.000131607,0.008377075,0,
00:08.3,0.002174377,-0.000120163,0.008377075,0,
00:08.3,0.002174377,-0.000120163,0.008371353,0,
00:08.3,0.002168655,-0.000125885,0.008371353,0,
00:08.3,0.002168655,-0.000131607,0.008371353,0,
00:08.3,0.002168655,-0.000125885,0.008365631,0,
00:08.3,0.002168655,-0.000131607,0.008371353,0,
00:08.3,0.002180099,-0.000114441,0.008377075,0,
00:08.3,0.002174377,-0.000125885,0.008371353,0,
00:08.3,0.002162933,-0.000143051,0.008377075,0,
00:08.3,0.002168655,-0.000143051,0.008371353,0,
00:08.3,0.002168655,-0.000137329,0.008377075,0,
00:08.3,0.002174377,-0.000120163,0.008377075,0,
00:08.3,0.002168655,-0.000120163,0.008382797,0,
00:08.3,0.002174377,-0.000120163,0.008382797,0,
00:08.3,0.002174377,-0.000120163,0.008371353,0,
00:08.3,0.002168655,-0.000120163,0.008365631,0,
00:08.3,0.002151489,-0.000148773,0.008377075,0,
00:08.3,0.002162933,-0.000160217,0.008388519,0,
00:08.3,0.002168655,-0.000148773,0.008388519,0,
00:08.3,0.002162933,-0.000137329,0.008388519,0,
00:08.3,0.002180099,-0.000114441,0.008382797,0,
00:08.3,0.002174377,-0.000114441,0.008382797,0,
00:08.3,0.002174377,-0.000125885,0.008388519,0,
00:08.4,0.002174377,-0.000125885,0.008382797,0,
00:08.4,0.002168655,-0.000120163,0.008371353,0,
00:08.4,0.002157211,-0.000154495,0.008371353,0,
00:08.4,0.002162933,-0.000148773,0.008382797,0,
00:08.4,0.002168655,-0.000137329,0.008394241,0,
00:08.4,0.002168655,-0.000131607,0.008399963,0,
00:08.4,0.002174377,-0.000120163,0.008394241,0,
00:08.4,0.002168655,-0.000131607,0.008388519,0,
00:08.4,0.002168655,-0.000131607,0.008388519,0,
00:08.4,0.002168655,-0.000137329,0.008394241,0,
00:08.4,0.002162933,-0.000154495,0.008388519,0,
00:08.4,0.002162933,-0.000154495,0.008388519,0,
00:08.4,0.002162933,-0.000125885,0.008377075,0,
00:08.4,0.002174377,-0.000120163,0.008382797,0,
00:08.4,0.002168655,-0.000143051,0.008399963,0,
00:08.4,0.002162933,-0.000148773,0.008394241,0,
00:08.4,0.002157211,-0.000131607,0.008394241,0,
00:08.4,0.002168655,-0.000131607,0.008388519,0,
00:08.4,0.002162933,-0.000137329,0.008394241,0,
00:08.4,0.002162933,-0.000143051,0.008399963,0,
00:08.4,0.002151489,-0.000154495,0.008394241,0,
00:08.4,0.002168655,-0.000143051,0.008388519,0,
00:08.4,0.002168655,-0.000131607,0.008394241,0,
00:08.4,0.002168655,-0.000131607,0.008399963,0,
00:08.4,0.002162933,-0.000137329,0.008394241,0,
00:08.5,0.002168655,-0.000143051,0.008399963,0,
00:08.5,0.002168655,-0.000131607,0.008399963,0,
00:08.5,0.002168655,-0.000137329,0.008399963,0,
00:08.5,0.002162933,-0.000148773,0.008399963,0,
00:08.5,0.002162933,-0.000154495,0.008394241,0,
00:08.5,0.002168655,-0.000148773,0.008394241,0,
00:08.5,0.002162933,-0.000143051,0.008388519,0,
00:08.5,0.002162933,-0.000143051,0.008388519,0,
00:08.5,0.002168655,-0.000137329,0.008411407,0,
00:08.5,0.002168655,-0.000131607,0.008405685,0,
00:08.5,0.002168655,-0.000137329,0.008405685,0,
00:08.5,0.002162933,-0.000148773,0.008405685,0,
00:08.5,0.002162933,-0.000160217,0.008399963,0,
00:08.5,0.002162933,-0.000154495,0.008399963,0,
00:08.5,0.002168655,-0.000143051,0.008399963,0,
00:08.5,0.002162933,-0.000143051,0.008399963,0,
00:08.5,0.002157211,-0.000131607,0.008388519,0,
00:08.5,0.002151489,-0.000137329,0.008388519,0,
00:08.5,0.002168655,-0.000160217,0.008411407,0,
00:08.5,0.002174377,-0.000148773,0.008411407,0,
00:08.5,0.002162933,-0.000143051,0.00841713,0,
00:08.5,0.002168655,-0.000143051,0.008411407,0,
00:08.5,0.002168655,-0.000143051,0.008405685,0,
00:08.5,0.002162933,-0.000148773,0.008405685,0,
00:08.5,0.002162933,-0.000154495,0.008411407,0,
00:08.6,0.002157211,-0.000165939,0.008411407,0,
00:08.6,0.002157211,-0.000177383,0.008405685,0,
00:08.6,0.002151489,-0.000165939,0.008399963,0,
00:08.6,0.002157211,-0.000148773,0.008388519,0,
00:08.6,0.002162933,-0.000131607,0.008388519,0,
00:08.6,0.002162933,-0.000137329,0.008422852,0,
00:08.6,0.002162933,-0.000148773,0.008422852,0,
00:08.6,0.002168655,-0.000143051,0.00841713,0,
00:08.6,0.002162933,-0.000148773,0.00841713,0,
00:08.6,0.002162933,-0.000154495,0.008422852,0,
00:08.6,0.002162933,-0.000154495,0.00841713,0,
00:08.6,0.002157211,-0.000165939,0.008411407,0,
00:08.6,0.002157211,-0.000171661,0.008411407,0,
00:08.6,0.002157211,-0.000171661,0.008411407,0,
00:08.6,0.002157211,-0.000165939,0.00841713,0,
00:08.6,0.002151489,-0.000160217,0.00841713,0,
00:08.6,0.002168655,-0.000148773,0.008411407,0,
00:08.6,0.002174377,-0.000143051,0.008394241,0,
00:08.6,0.002162933,-0.000143051,0.008411407,0,
00:08.6,0.002162933,-0.000154495,0.008422852,0,
00:08.6,0.002162933,-0.000154495,0.00841713,0,
00:08.6,0.002162933,-0.000154495,0.008422852,0,
00:08.6,0.002162933,-0.000165939,0.008428574,0,
00:08.6,0.002157211,-0.000183105,0.00841713,0,
00:08.6,0.002157211,-0.000183105,0.008422852,0,
00:08.7,0.002157211,-0.000154495,0.00841713,0,
00:08.7,0.002157211,-0.000154495,0.008405685,0,
00:08.7,0.002162933,-0.000165939,0.008422852,0,
00:08.7,0.002168655,-0.000160217,0.00841713,0,
00:08.7,0.002168655,-0.000148773,0.008422852,0,
00:08.7,0.002162933,-0.000148773,0.008434296,0,
00:08.7,0.002162933,-0.000154495,0.008428574,0,
00:08.7,0.002162933,-0.000160217,0.008428574,0,
00:08.7,0.002162933,-0.000160217,0.008428574,0,
00:08.7,0.002151489,-0.000171661,0.008422852,0,
00:08.7,0.002145767,-0.00019455,0.008422852,0,
00:08.7,0.002140045,-0.000183105,0.008422852,0,
00:08.7,0.002168655,-0.000148773,0.008422852,0,
00:08.7,0.002168655,-0.000143051,0.008428574,0,
00:08.7,0.002162933,-0.000143051,0.008434296,0,
00:08.7,0.002162933,-0.000148773,0.008434296,0,
00:08.7,0.002162933,-0.000154495,0.008428574,0,
00:08.7,0.002157211,-0.000165939,0.008428574,0,
00:08.7,0.002157211,-0.000165939,0.008434296,0,
00:08.7,0.002151489,-0.000171661,0.008428574,0,
00:08.7,0.002151489,-0.000160217,0.008422852,0,
00:08.7,0.002157211,-0.000154495,0.00841713,0,
00:08.7,0.002157211,-0.000188828,0.008428574,0,
00:08.7,0.002151489,-0.000188828,0.008440018,0,
00:08.7,0.002162933,-0.000148773,0.008440018,0,
00:08.8,0.002162933,-0.000148773,0.008434296,0,
00:08.8,0.002162933,-0.000160217,0.008434296,0,
00:08.8,0.002162933,-0.000171661,0.008440018,0,
00:08.8,0.002157211,-0.000165939,0.008434296,0,
00:08.8,0.002157211,-0.000171661,0.008428574,0,
00:08.8,0.002162933,-0.000154495,0.00841713,0,
00:08.8,0.002157211,-0.000160217,0.008411407,0,
00:08.8,0.002151489,-0.000171661,0.008440018,0,
00:08.8,0.002162933,-0.000165939,0.008440018,0,
00:08.8,0.002157211,-0.000171661,0.00844574,0,
00:08.8,0.002157211,-0.000171661,0.00844574,0,
00:08.8,0.002157211,-0.000165939,0.00844574,0,
00:08.8,0.002157211,-0.000177383,0.008440018,0,
00:08.8,0.002157211,-0.000183105,0.008440018,0,
00:08.8,0.002157211,-0.000165939,0.008440018,0,
00:08.8,0.002162933,-0.000154495,0.008440018,0,
00:08.8,0.002162933,-0.000154495,0.008434296,0,
00:08.8,0.002162933,-0.000160217,0.008428574,0,
00:08.8,0.002157211,-0.000165939,0.008434296,0,
00:08.8,0.002145767,-0.000171661,0.00844574,0,
00:08.8,0.002145767,-0.000183105,0.00844574,0,
00:08.8,0.002157211,-0.000188828,0.00844574,0,
00:08.8,0.002151489,-0.000183105,0.008440018,0,
00:08.8,0.002157211,-0.000183105,0.008434296,0,
00:08.8,0.002151489,-0.00019455,0.008434296,0,
00:08.9,0.002151489,-0.000177383,0.008428574,0,
00:08.9,0.002162933,-0.000154495,0.00844574,0,
00:08.9,0.002162933,-0.000148773,0.008440018,0,
00:08.9,0.002157211,-0.000160217,0.008440018,0,
00:08.9,0.002151489,-0.000177383,0.00844574,0,
00:08.9,0.002157211,-0.000177383,0.00844574,0,
00:08.9,0.002157211,-0.000165939,0.00844574,0,
00:08.9,0.002157211,-0.000177383,0.00844574,0,
00:08.9,0.002151489,-0.000188828,0.008451462,0,
00:08.9,0.002157211,-0.000183105,0.00844574,0,
00:08.9,0.002157211,-0.000165939,0.008440018,0,
00:08.9,0.002151489,-0.000171661,0.008451462,0,
00:08.9,0.002157211,-0.000165939,0.008451462,0,
00:08.9,0.002151489,-0.000177383,0.008451462,0,
00:08.9,0.002157211,-0.000183105,0.008451462,0,
00:08.9,0.002151489,-0.000183105,0.008451462,0,
00:08.9,0.002151489,-0.000188828,0.008451462,0,
00:08.9,0.002157211,-0.000183105,0.00844574,0,
00:08.9,0.002151489,-0.000154495,0.008422852,0,
00:08.9,0.002145767,-0.000171661,0.00841713,0,
00:08.9,0.002157211,-0.000177383,0.008468628,0,
00:08.9,0.002157211,-0.000177383,0.008457184,0,
00:08.9,0.002151489,-0.000188828,0.008457184,0,
00:08.9,0.002157211,-0.000183105,0.008468628,0,
00:08.9,0.002151489,-0.000177383,0.008462906,0,
00:09.0,0.002151489,-0.000183105,0.008451462,0,
00:09.0,0.002145767,-0.000188828,0.008451462,0,
00:09.0,0.002151489,-0.000183105,0.008451462,0,
00:09.0,0.002157211,-0.000177383,0.00844574,0,
00:09.0,0.002157211,-0.000171661,0.008451462,0,
00:09.0,0.002157211,-0.000188828,0.008462906,0,
00:09.0,0.002151489,-0.000188828,0.008462906,0,
00:09.0,0.002151489,-0.000183105,0.008457184,0,
00:09.0,0.002151489,-0.000183105,0.008457184,0,
00:09.0,0.002151489,-0.000183105,0.008457184,0,
00:09.0,0.002151489,-0.00019455,0.008457184,0,
00:09.0,0.002145767,-0.000188828,0.008457184,0,
00:00:09,0.002151489,-0.000183105,0.008457184,0,
00:09.0,0.002151489,-0.000183105,0.008457184,0,
00:09.0,0.002151489,-0.000177383,0.008440018,0,
00:09.0,0.002151489,-0.000171661,0.008434296,0,
00:09.0,0.002151489,-0.000200272,0.008451462,0,
00:09.0,0.002151489,-0.000211716,0.008468628,0,
00:09.0,0.002151489,-0.000188828,0.008468628,0,
00:09.0,0.002145767,-0.000183105,0.00847435,0,
00:09.0,0.002151489,-0.000188828,0.008468628,0,
00:09.0,0.002151489,-0.000188828,0.008462906,0,
00:09.0,0.002151489,-0.000188828,0.008457184,0,
00:09.0,0.002151489,-0.000183105,0.008457184,0,
00:09.0,0.002157211,-0.000183105,0.008457184,0,
00:09.1,0.002157211,-0.000177383,0.008451462,0,
00:09.1,0.002151489,-0.000188828,0.008457184,0,
00:09.1,0.002151489,-0.000200272,0.008457184,0,
00:09.1,0.002157211,-0.000183105,0.008457184,0,
00:09.1,0.002151489,-0.00019455,0.008462906,0,
00:09.1,0.002151489,-0.000200272,0.008468628,0,
00:09.1,0.002151489,-0.00019455,0.008462906,0,
00:09.1,0.002151489,-0.000188828,0.008468628,0,
00:09.1,0.002145767,-0.00019455,0.008462906,0,
00:09.1,0.002151489,-0.000188828,0.008468628,0,
00:09.1,0.002145767,-0.000205994,0.008468628,0,
00:09.1,0.002151489,-0.000200272,0.008468628,0,
00:09.1,0.002151489,-0.000183105,0.008451462,0,
00:09.1,0.002151489,-0.000183105,0.00844574,0,
00:09.1,0.002151489,-0.000183105,0.008462906,0,
00:09.1,0.002151489,-0.000200272,0.008480072,0,
00:09.1,0.002145767,-0.000200272,0.00847435,0,
00:09.1,0.002151489,-0.000200272,0.008468628,0,
00:09.1,0.002151489,-0.000200272,0.00847435,0,
00:09.1,0.002151489,-0.00019455,0.00847435,0,
00:09.1,0.002151489,-0.00019455,0.008468628,0,
00:09.1,0.002157211,-0.00019455,0.00847435,0,
00:09.1,0.002151489,-0.00019455,0.008468628,0,
00:09.1,0.002151489,-0.000200272,0.008468628,0,
00:09.1,0.002151489,-0.000205994,0.00847435,0,
00:09.2,0.002145767,-0.000205994,0.008462906,0,
00:09.2,0.002151489,-0.000205994,0.008468628,0,
00:09.2,0.002151489,-0.000200272,0.008468628,0,
00:09.2,0.002151489,-0.000200272,0.00847435,0,
00:09.2,0.002145767,-0.000200272,0.008485794,0,
00:09.2,0.002151489,-0.00019455,0.008485794,0,
00:09.2,0.002151489,-0.00019455,0.00847435,0,
00:09.2,0.002151489,-0.000200272,0.00847435,0,
00:09.2,0.002151489,-0.000200272,0.00847435,0,
00:09.2,0.002145767,-0.000205994,0.008468628,0,
00:09.2,0.002145767,-0.000200272,0.008457184,0,
00:09.2,0.002140045,-0.000217438,0.008457184,0,
00:09.2,0.002145767,-0.00022316,0.008485794,0,
00:09.2,0.002134323,-0.00022316,0.008485794,0,
00:09.2,0.002140045,-0.000200272,0.008485794,0,
00:09.2,0.002157211,-0.000188828,0.008485794,0,
00:09.2,0.002157211,-0.000200272,0.008485794,0,
00:09.2,0.002151489,-0.000205994,0.008480072,0,
00:09.2,0.002151489,-0.00019455,0.008480072,0,
00:09.2,0.002151489,-0.00019455,0.00847435,0,
00:09.2,0.002151489,-0.000200272,0.008480072,0,
00:09.2,0.002151489,-0.000200272,0.008485794,0,
00:09.2,0.002151489,-0.000205994,0.00847435,0,
00:09.2,0.002151489,-0.000205994,0.00847435,0,
00:09.2,0.002145767,-0.000211716,0.00847435,0,
00:09.3,0.002145767,-0.000217438,0.008480072,0,
00:09.3,0.002145767,-0.000205994,0.00847435,0,
00:09.3,0.002145767,-0.000217438,0.008480072,0,
00:09.3,0.002157211,-0.000205994,0.008491516,0,
00:09.3,0.002151489,-0.000211716,0.008485794,0,
00:09.3,0.002145767,-0.000211716,0.008480072,0,
00:09.3,0.002145767,-0.000205994,0.00847435,0,
00:09.3,0.002151489,-0.000200272,0.00847435,0,
00:09.3,0.002151489,-0.00019455,0.008480072,0,
00:09.3,0.002134323,-0.000211716,0.008480072,0,
00:09.3,0.002140045,-0.000217438,0.00847435,0,
00:09.3,0.002151489,-0.000205994,0.00847435,0,
00:09.3,0.002151489,-0.000200272,0.008480072,0,
00:09.3,0.002145767,-0.000200272,0.008485794,0,
00:09.3,0.002151489,-0.000211716,0.008480072,0,
00:09.3,0.002145767,-0.000228882,0.008485794,0,
00:09.3,0.002145767,-0.00022316,0.008497238,0,
00:09.3,0.002145767,-0.000211716,0.008491516,0,
00:09.3,0.002145767,-0.000211716,0.008485794,0,
00:09.3,0.002145767,-0.000217438,0.008485794,0,
00:09.3,0.002145767,-0.000211716,0.008480072,0,
00:09.3,0.002151489,-0.000211716,0.008480072,0,
00:09.3,0.002145767,-0.000211716,0.008485794,0,
00:09.3,0.002140045,-0.000217438,0.008485794,0,
00:09.3,0.002145767,-0.00022316,0.008480072,0,
00:09.4,0.002145767,-0.00022316,0.008485794,0,
00:09.4,0.002151489,-0.00019455,0.008480072,0,
00:09.4,0.002134323,-0.000205994,0.008480072,0,
00:09.4,0.002145767,-0.00022316,0.008485794,0,
00:09.4,0.002151489,-0.000205994,0.008491516,0,
00:09.4,0.002145767,-0.000217438,0.008491516,0,
00:09.4,0.002145767,-0.000234604,0.008491516,0,
00:09.4,0.002145767,-0.000217438,0.008491516,0,
00:09.4,0.002145767,-0.000200272,0.008485794,0,
00:09.4,0.002151489,-0.000205994,0.008485794,0,
00:09.4,0.002145767,-0.000200272,0.008485794,0,
00:09.4,0.002140045,-0.000211716,0.00847435,0,
00:09.4,0.002145767,-0.000217438,0.008491516,0,
00:09.4,0.002145767,-0.00022316,0.008497238,0,
00:09.4,0.002145767,-0.000217438,0.008491516,0,
00:09.4,0.002140045,-0.000217438,0.008497238,0,
00:09.4,0.002134323,-0.000228882,0.008491516,0,
00:09.4,0.002145767,-0.000217438,0.008485794,0,
00:09.4,0.002145767,-0.000200272,0.008485794,0,
00:09.4,0.002151489,-0.000205994,0.008491516,0,
00:09.4,0.002145767,-0.00022316,0.008485794,0,
00:09.4,0.002140045,-0.00022316,0.008485794,0,
00:09.4,0.002140045,-0.000234604,0.008491516,0,
00:09.4,0.002140045,-0.000228882,0.008485794,0,
00:09.4,0.002145767,-0.00022316,0.008485794,0,
00:09.5,0.002145767,-0.00022316,0.00850296,0,
00:09.5,0.002145767,-0.000217438,0.008497238,0,
00:09.5,0.002140045,-0.000217438,0.008497238,0,
00:09.5,0.002140045,-0.000205994,0.008491516,0,
00:09.5,0.002151489,-0.00019455,0.008491516,0,
00:09.5,0.002145767,-0.000205994,0.008491516,0,
00:09.5,0.002140045,-0.00022316,0.008491516,0,
00:09.5,0.002140045,-0.00022316,0.008485794,0,
00:09.5,0.002140045,-0.000234604,0.008480072,0,
00:09.5,0.002134323,-0.000228882,0.008491516,0,
00:09.5,0.002134323,-0.000234604,0.00850296,0,
00:09.5,0.002151489,-0.000217438,0.008497238,0,
00:09.5,0.002151489,-0.000205994,0.008491516,0,
00:09.5,0.002145767,-0.000211716,0.008497238,0,
00:09.5,0.002140045,-0.000217438,0.008491516,0,
00:09.5,0.002140045,-0.000228882,0.008491516,0,
00:09.5,0.002140045,-0.000228882,0.008485794,0,
00:09.5,0.002145767,-0.000217438,0.008480072,0,
00:09.5,0.002145767,-0.00022316,0.00847435,0,
00:09.5,0.002140045,-0.000228882,0.008491516,0,
00:09.5,0.002140045,-0.000228882,0.00850296,0,
00:09.5,0.002140045,-0.000228882,0.008497238,0,
00:09.5,0.002145767,-0.000217438,0.008491516,0,
00:09.5,0.002145767,-0.00022316,0.00850296,0,
00:09.5,0.002151489,-0.000211716,0.008497238,0,
00:09.6,0.002140045,-0.00022316,0.008491516,0,
00:09.6,0.002140045,-0.000240326,0.008497238,0,
00:09.6,0.002140045,-0.000228882,0.008497238,0,
00:09.6,0.002145767,-0.00022316,0.00850296,0,
00:09.6,0.002140045,-0.00022316,0.008497238,0,
00:09.6,0.002140045,-0.000234604,0.008497238,0,
00:09.6,0.002140045,-0.000246048,0.008497238,0,
00:09.6,0.002145767,-0.000228882,0.008491516,0,
00:09.6,0.002145767,-0.000211716,0.00850296,0,
00:09.6,0.002140045,-0.000211716,0.00850296,0,
00:09.6,0.002145767,-0.000217438,0.008497238,0,
00:09.6,0.002145767,-0.000211716,0.008485794,0,
00:09.6,0.002134323,-0.000240326,0.00847435,0,
00:09.6,0.002134323,-0.00025177,0.008508682,0,
00:09.6,0.002145767,-0.000228882,0.008514404,0,
00:09.6,0.002145767,-0.000211716,0.00850296,0,
00:09.6,0.002145767,-0.000217438,0.00850296,0,
00:09.6,0.002145767,-0.00022316,0.008508682,0,
00:09.6,0.002145767,-0.000228882,0.00850296,0,
00:09.6,0.002145767,-0.000228882,0.008497238,0,
00:09.6,0.002145767,-0.000228882,0.00850296,0,
00:09.6,0.002134323,-0.000234604,0.008508682,0,
00:09.6,0.002134323,-0.000240326,0.008497238,0,
00:09.6,0.002145767,-0.000234604,0.008497238,0,
00:09.6,0.002145767,-0.000234604,0.00850296,0,
00:09.7,0.002140045,-0.000228882,0.008508682,0,
00:09.7,0.002140045,-0.00022316,0.00850296,0,
00:09.7,0.002140045,-0.00022316,0.008497238,0,
00:09.7,0.002145767,-0.00022316,0.008497238,0,
00:09.7,0.002145767,-0.00022316,0.00850296,0,
00:09.7,0.002134323,-0.000234604,0.00850296,0,
00:09.7,0.002140045,-0.000240326,0.008497238,0,
00:09.7,0.002140045,-0.000240326,0.00850296,0,
00:09.7,0.002140045,-0.000234604,0.008508682,0,
00:09.7,0.002140045,-0.000228882,0.008508682,0,
00:09.7,0.002140045,-0.000228882,0.00850296,0,
00:09.7,0.002134323,-0.00022316,0.008480072,0,
00:09.7,0.002128601,-0.000240326,0.008491516,0,
00:09.7,0.002134323,-0.00025177,0.008514404,0,
00:09.7,0.002140045,-0.000234604,0.008508682,0,
00:09.7,0.002140045,-0.000240326,0.008508682,0,
00:09.7,0.002140045,-0.000240326,0.008514404,0,
00:09.7,0.002140045,-0.000228882,0.008514404,0,
00:09.7,0.002140045,-0.000228882,0.008514404,0,
00:09.7,0.002134323,-0.000228882,0.008508682,0,
00:09.7,0.002140045,-0.000228882,0.008508682,0,
00:09.7,0.002140045,-0.000240326,0.00850296,0,
00:09.7,0.002140045,-0.000246048,0.008485794,0,
00:09.7,0.002134323,-0.000240326,0.00850296,0,
00:09.7,0.002140045,-0.000217438,0.008508682,0,
00:09.8,0.002145767,-0.00022316,0.008514404,0,
00:09.8,0.002134323,-0.000234604,0.008520126,0,
00:09.8,0.002140045,-0.000240326,0.008514404,0,
00:09.8,0.002134323,-0.000246048,0.008520126,0,
00:09.8,0.002134323,-0.000246048,0.008514404,0,
00:09.8,0.002140045,-0.000240326,0.008514404,0,
00:09.8,0.002140045,-0.000234604,0.008508682,0,
00:09.8,0.002145767,-0.000228882,0.00850296,0,
00:09.8,0.002140045,-0.000228882,0.008497238,0,
00:09.8,0.002140045,-0.000240326,0.008508682,0,
00:09.8,0.002134323,-0.000240326,0.008514404,0,
00:09.8,0.002134323,-0.000246048,0.008514404,0,
00:09.8,0.002134323,-0.00025177,0.008520126,0,
00:09.8,0.002134323,-0.000257492,0.008514404,0,
00:09.8,0.002134323,-0.00025177,0.008514404,0,
00:09.8,0.002140045,-0.000240326,0.008514404,0,
00:09.8,0.002140045,-0.000234604,0.00850296,0,
00:09.8,0.002128601,-0.000240326,0.008491516,0,
00:09.8,0.002128601,-0.000263214,0.008508682,0,
00:09.8,0.002140045,-0.000246048,0.008514404,0,
00:09.8,0.002140045,-0.000240326,0.008508682,0,
00:09.8,0.002140045,-0.000234604,0.008525848,0,
00:09.8,0.002134323,-0.000240326,0.008520126,0,
00:09.8,0.002140045,-0.000240326,0.008520126,0,
00:09.8,0.002140045,-0.000240326,0.008514404,0,
00:09.9,0.002145767,-0.000228882,0.008497238,0,
00:09.9,0.002134323,-0.000228882,0.008497238,0,
00:09.9,0.002122879,-0.000246048,0.00850296,0,
00:09.9,0.002140045,-0.000240326,0.008520126,0,
00:09.9,0.002140045,-0.000263214,0.008537292,0,
00:09.9,0.002140045,-0.000257492,0.008525848,0,
00:09.9,0.002140045,-0.000246048,0.008520126,0,
00:09.9,0.002140045,-0.000246048,0.008520126,0,
00:09.9,0.002140045,-0.000246048,0.008520126,0,
00:09.9,0.002140045,-0.000234604,0.008520126,0,
00:09.9,0.002140045,-0.000240326,0.008508682,0,
00:09.9,0.002140045,-0.000246048,0.008508682,0,
00:09.9,0.002140045,-0.00025177,0.008520126,0,
00:09.9,0.002134323,-0.00025177,0.008520126,0,
00:09.9,0.002134323,-0.000263214,0.008514404,0,
00:09.9,0.002128601,-0.000257492,0.008520126,0,
00:09.9,0.002140045,-0.000240326,0.008520126,0,
00:09.9,0.002140045,-0.00025177,0.008520126,0,
00:09.9,0.002134323,-0.000257492,0.008514404,0,
00:09.9,0.002134323,-0.000240326,0.008514404,0,
00:09.9,0.002134323,-0.000234604,0.008508682,0,
00:09.9,0.002140045,-0.000263214,0.008491516,0,
00:09.9,0.002140045,-0.000274658,0.008520126,0,
00:09.9,0.002134323,-0.000274658,0.008537292,0,
00:09.9,0.002140045,-0.00025177,0.008525848,0,
00:10.0,0.002140045,-0.000234604,0.008520126,0,
00:10.0,0.002140045,-0.000240326,0.008520126,0,
00:10.0,0.002140045,-0.000240326,0.008520126,0,
00:10.0,0.002140045,-0.000246048,0.008525848,0,
00:10.0,0.002140045,-0.000257492,0.008520126,0,
00:10.0,0.002134323,-0.000263214,0.008520126,0,
00:10.0,0.002140045,-0.00025177,0.008508682,0,
00:10.0,0.002140045,-0.000240326,0.008514404,0,
00:10.0,0.002145767,-0.000234604,0.008520126,0,
00:10.0,0.002140045,-0.000246048,0.008520126,0,
00:10.0,0.002134323,-0.000257492,0.008520126,0,
00:10.0,0.002140045,-0.000257492,0.008520126,0,
00:00:10,0.002140045,-0.000274658,0.008525848,0,
00:10.0,0.002134323,-0.000286102,0.008520126,0,
00:10.0,0.002140045,-0.000257492,0.008525848,0,
00:10.0,0.002140045,-0.000240326,0.008520126,0,
00:10.0,0.002140045,-0.000240326,0.008520126,0,
00:10.0,0.002140045,-0.00025177,0.008525848,0,
00:10.0,0.002134323,-0.000257492,0.008520126,0,
00:10.0,0.002134323,-0.00025177,0.008514404,0,
00:10.0,0.002140045,-0.000240326,0.00850296,0,
00:10.0,0.002134323,-0.000257492,0.008508682,0,
00:10.0,0.002140045,-0.000263214,0.00853157,0,
00:10.0,0.002145767,-0.00025177,0.00853157,0,
00:10.0,0.002134323,-0.000257492,0.00853157,0,
00:10.1,0.002134323,-0.000268936,0.00853157,0,
00:10.1,0.002134323,-0.000263214,0.008520126,0,
00:10.1,0.002134323,-0.000257492,0.008514404,0,
00:10.1,0.002140045,-0.000263214,0.008514404,0,
00:10.1,0.002134323,-0.00028038,0.008520126,0,
00:10.1,0.002134323,-0.000257492,0.00853157,0,
00:10.1,0.002134323,-0.00025177,0.00853157,0,
00:10.1,0.002140045,-0.00025177,0.008525848,0,
00:10.1,0.002134323,-0.000257492,0.008520126,0,
00:10.1,0.002134323,-0.000257492,0.008525848,0,
00:10.1,0.002140045,-0.000246048,0.00853157,0,
00:10.1,0.002134323,-0.00025177,0.008525848,0,
00:10.1,0.002134323,-0.000257492,0.008525848,0,
00:10.1,0.002134323,-0.000263214,0.008525848,0,
00:10.1,0.002134323,-0.000263214,0.008525848,0,
00:10.1,0.002128601,-0.000263214,0.008520126,0,
00:10.1,0.002140045,-0.000246048,0.008514404,0,
00:10.1,0.002140045,-0.000257492,0.00853157,0,
00:10.1,0.002134323,-0.000274658,0.008525848,0,
00:10.1,0.002134323,-0.000268936,0.008520126,0,
00:10.1,0.002128601,-0.000263214,0.008520126,0,
00:10.1,0.002128601,-0.000263214,0.008537292,0,
00:10.1,0.002140045,-0.000246048,0.008525848,0,
00:10.1,0.002134323,-0.000257492,0.008525848,0,
00:10.1,0.002134323,-0.000257492,0.008537292,0,
00:10.2,0.002134323,-0.000274658,0.00853157,0,
00:10.2,0.002134323,-0.000268936,0.008525848,0,
00:10.2,0.002134323,-0.000268936,0.008520126,0,
00:10.2,0.002134323,-0.000257492,0.00853157,0,
00:10.2,0.002134323,-0.000257492,0.008525848,0,
00:10.2,0.002128601,-0.000263214,0.00853157,0,
00:10.2,0.002134323,-0.000257492,0.00853157,0,
00:10.2,0.002140045,-0.000263214,0.00853157,0,
00:10.2,0.002134323,-0.000268936,0.00853157,0,
00:10.2,0.002134323,-0.000268936,0.00853157,0,
00:10.2,0.002134323,-0.000263214,0.00853157,0,
00:10.2,0.002128601,-0.00028038,0.00853157,0,
00:10.2,0.002128601,-0.00028038,0.008525848,0,
00:10.2,0.002140045,-0.00025177,0.00853157,0,
00:10.2,0.002140045,-0.000240326,0.008525848,0,
00:10.2,0.002140045,-0.000234604,0.008525848,0,
00:10.2,0.002140045,-0.000257492,0.008525848,0,
00:10.2,0.002140045,-0.000268936,0.00853157,0,
00:10.2,0.002134323,-0.000268936,0.008537292,0,
00:10.2,0.002134323,-0.000263214,0.008525848,0,
00:10.2,0.002134323,-0.00028038,0.00853157,0,
00:10.2,0.002134323,-0.000291824,0.00853157,0,
00:10.2,0.002134323,-0.000263214,0.008520126,0,
00:10.2,0.002140045,-0.000246048,0.008520126,0,
00:10.2,0.002140045,-0.00025177,0.008537292,0,
00:10.3,0.002140045,-0.000257492,0.008543015,0,
00:10.3,0.002134323,-0.00025177,0.008537292,0,
00:10.3,0.002140045,-0.000268936,0.00853157,0,
00:10.3,0.002128601,-0.00028038,0.008525848,0,
00:10.3,0.002128601,-0.000268936,0.00853157,0,
00:10.3,0.002145767,-0.000257492,0.00853157,0,
00:10.3,0.002134323,-0.000263214,0.00853157,0,
00:10.3,0.002140045,-0.000263214,0.008537292,0,
00:10.3,0.002140045,-0.000257492,0.008537292,0,
00:10.3,0.002145767,-0.00025177,0.008537292,0,
00:10.3,0.002140045,-0.000263214,0.00853157,0,
00:10.3,0.002134323,-0.000268936,0.008537292,0,
00:10.3,0.002128601,-0.000274658,0.00853157,0,
00:10.3,0.002140045,-0.000274658,0.008525848,0,
00:10.3,0.002140045,-0.000257492,0.008520126,0,
00:10.3,0.002140045,-0.000240326,0.00853157,0,
00:10.3,0.002145767,-0.000234604,0.00853157,0,
00:10.3,0.002140045,-0.00025177,0.008525848,0,
00:10.3,0.002140045,-0.000268936,0.008537292,0,
00:10.3,0.002134323,-0.00028038,0.00853157,0,
00:10.3,0.002134323,-0.00028038,0.008537292,0,
00:10.3,0.002140045,-0.000257492,0.008537292,0,
00:10.3,0.002145767,-0.000234604,0.008537292,0,
00:10.3,0.002140045,-0.00025177,0.008537292,0,
00:10.3,0.002134323,-0.00025177,0.00853157,0,
00:10.4,0.002134323,-0.000257492,0.008525848,0,
00:10.4,0.002128601,-0.000274658,0.00853157,0,
00:10.4,0.002128601,-0.00028038,0.00853157,0,
00:10.4,0.002134323,-0.00028038,0.008543015,0,
00:10.4,0.002145767,-0.000268936,0.008543015,0,
00:10.4,0.002140045,-0.00025177,0.008543015,0,
00:10.4,0.002140045,-0.00025177,0.008537292,0,
00:10.4,0.002145767,-0.00025177,0.008537292,0,
00:10.4,0.002145767,-0.00025177,0.00853157,0,
00:10.4,0.002140045,-0.000263214,0.00853157,0,
00:10.4,0.002140045,-0.000268936,0.008537292,0,
00:10.4,0.002140045,-0.000257492,0.00853157,0,
00:10.4,0.002140045,-0.000246048,0.00853157,0,
00:10.4,0.002140045,-0.000246048,0.008543015,0,
00:10.4,0.002140045,-0.000257492,0.008543015,0,
00:10.4,0.002134323,-0.000268936,0.008537292,0,
