Elapsed_Time,EMG1,EMG2,EMG3,BioRadio Event,Unnamed: 5
00:00:00,0.002637863,0.000646591,0.007713318,0,
00:00.0,0.002637863,0.000646591,0.007696152,0,
00:00.0,0.002637863,0.000629425,0.007673264,0,
00:00.0,0.002637863,0.000629425,0.007678986,0,
00:00.0,0.002614975,0.000617981,0.00769043,0,
00:00.0,0.002614975,0.000617981,0.007684708,0,
00:00.0,0.002614975,0.000617981,0.007684708,0,
00:00.0,0.002626419,0.000623703,0.007696152,0,
00:00.0,0.002632141,0.000629425,0.007696152,0,
00:00.0,0.002626419,0.000629425,0.00769043,0,
00:00.0,0.002626419,0.000629425,0.007696152,0,
00:00.0,0.002626419,0.000635147,0.00769043,0,
00:00.0,0.002626419,0.000635147,0.00769043,0,
00:00.1,0.002649307,0.000675201,0.007673264,0,
00:00.1,0.002655029,0.000703812,0.007638931,0,
00:00.1,0.002574921,0.000595093,0.007661819,0,
00:00.1,0.002592087,0.000606537,0.007707596,0,
00:00.1,0.002597809,0.000623703,0.007701874,0,
00:00.1,0.002643585,0.000629425,0.007701874,0,
00:00.1,0.002649307,0.000646591,0.007696152,0,
00:00.1,0.002649307,0.000658035,0.007684708,0,
00:00.1,0.002643585,0.000646591,0.007707596,0,
00:00.1,0.002609253,0.000629425,0.007696152,0,
00:00.1,0.002626419,0.000635147,0.00769043,0,
00:00.1,0.002626419,0.000640869,0.007684708,0,
00:00.1,0.002632141,0.000640869,0.007678986,0,
00:00.1,0.002620697,0.000646591,0.007696152,0,
00:00.1,0.002620697,0.000646591,0.007667542,0,
00:00.1,0.002626419,0.000646591,0.007678986,0,
00:00.1,0.002626419,0.000646591,0.007696152,0,
00:00.1,0.002626419,0.000640869,0.007678986,0,
00:00.1,0.002632141,0.000646591,0.007684708,0,
00:00.1,0.002632141,0.000646591,0.007684708,0,
00:00.1,0.002626419,0.000646591,0.007684708,0,
00:00.1,0.002643585,0.000680923,0.007701874,0,
00:00.1,0.002637863,0.000675201,0.007678986,0,
00:00.1,0.002632141,0.000646591,0.007661819,0,
00:00.1,0.002580643,0.000606537,0.007673264,0,
00:00.2,0.002580643,0.000600815,0.007673264,0,
00:00.2,0.002632141,0.000652313,0.007673264,0,
00:00.2,0.002626419,0.000652313,0.00769043,0,
00:00.2,0.002626419,0.000658035,0.007696152,0,
00:00.2,0.002620697,0.000640869,0.007701874,0,
00:00.2,0.002643585,0.000652313,0.00769043,0,
00:00.2,0.002632141,0.000658035,0.007678986,0,
00:00.2,0.002626419,0.000652313,0.007673264,0,
00:00.2,0.002614975,0.000646591,0.007696152,0,
00:00.2,0.002620697,0.000658035,0.007684708,0,
00:00.2,0.002620697,0.000640869,0.00769043,0,
00:00.2,0.002614975,0.000646591,0.007673264,0,
00:00.2,0.002614975,0.000652313,0.007678986,0,
00:00.2,0.002620697,0.000652313,0.007684708,0,
00:00.2,0.002620697,0.000646591,0.007678986,0,
00:00.2,0.002626419,0.000652313,0.007678986,0,
00:00.2,0.002626419,0.000652313,0.007678986,0,
00:00.2,0.002626419,0.000658035,0.00769043,0,
00:00.2,0.002637863,0.000680923,0.007667542,0,
00:00.2,0.002637863,0.000692368,0.007650375,0,
00:00.2,0.002609253,0.000640869,0.007650375,0,
00:00.2,0.002592087,0.000629425,0.007701874,0,
00:00.2,0.002597809,0.000635147,0.007673264,0,
00:00.2,0.002597809,0.000629425,0.00769043,0,
00:00.2,0.002632141,0.000652313,0.007684708,0,
00:00.3,0.002649307,0.000663757,0.007667542,0,
00:00.3,0.002632141,0.000652313,0.007684708,0,
00:00.3,0.002632141,0.000646591,0.00769043,0,
00:00.3,0.002626419,0.000646591,0.007673264,0,
00:00.3,0.002626419,0.000652313,0.007678986,0,
00:00.3,0.002632141,0.000652313,0.007678986,0,
00:00.3,0.002632141,0.000658035,0.007667542,0,
00:00.3,0.002632141,0.000658035,0.007673264,0,
00:00.3,0.002649307,0.000686646,0.007661819,0,
00:00.3,0.002649307,0.000680923,0.007696152,0,
00:00.3,0.002614975,0.000640869,0.007650375,0,
00:00.3,0.002620697,0.000635147,0.007667542,0,
00:00.3,0.002626419,0.000635147,0.00769043,0,
00:00.3,0.002632141,0.000646591,0.007684708,0,
00:00.3,0.002632141,0.000646591,0.007678986,0,
00:00.3,0.002632141,0.000652313,0.007673264,0,
00:00.3,0.002632141,0.000652313,0.007673264,0,
00:00.3,0.002632141,0.000658035,0.007673264,0,
00:00.3,0.002620697,0.000640869,0.007673264,0,
00:00.3,0.002614975,0.000635147,0.00769043,0,
00:00.3,0.002626419,0.000646591,0.007678986,0,
00:00.3,0.002649307,0.000663757,0.007661819,0,
00:00.3,0.002620697,0.000652313,0.007656097,0,
00:00.3,0.002637863,0.000658035,0.007667542,0,
00:00.3,0.002666473,0.000686646,0.007661819,0,
00:00.4,0.002632141,0.000635147,0.007667542,0,
00:00.4,0.002626419,0.000635147,0.007673264,0,
00:00.4,0.002632141,0.000646591,0.007667542,0,
00:00.4,0.002637863,0.000646591,0.007678986,0,
00:00.4,0.002637863,0.000646591,0.007678986,0,
00:00.4,0.002649307,0.000675201,0.007678986,0,
00:00.4,0.002660751,0.000686646,0.007684708,0,
00:00.4,0.002649307,0.000669479,0.007644653,0,
00:00.4,0.002603531,0.000629425,0.007661819,0,
00:00.4,0.002620697,0.000646591,0.007627487,0,
00:00.4,0.002626419,0.000646591,0.007678986,0,
00:00.4,0.002609253,0.000640869,0.007678986,0,
00:00.4,0.002643585,0.000652313,0.007667542,0,
00:00.4,0.002660751,0.000652313,0.007678986,0,
00:00.4,0.002643585,0.000663757,0.007667542,0,
00:00.4,0.002649307,0.000669479,0.007656097,0,
00:00.4,0.002637863,0.000646591,0.007678986,0,
00:00.4,0.002632141,0.000640869,0.007656097,0,
00:00.4,0.002637863,0.000646591,0.007667542,0,
00:00.4,0.002637863,0.000652313,0.007667542,0,
00:00.4,0.002637863,0.000658035,0.007667542,0,
00:00.4,0.002637863,0.000663757,0.007644653,0,
00:00.4,0.002632141,0.000658035,0.007644653,0,
00:00.4,0.002632141,0.000646591,0.007644653,0,
00:00.4,0.002626419,0.000646591,0.007661819,0,
00:00.5,0.002649307,0.000669479,0.007661819,0,
00:00.5,0.002637863,0.000652313,0.007667542,0,
00:00.5,0.002637863,0.000658035,0.007650375,0,
00:00.5,0.002649307,0.000663757,0.007656097,0,
00:00.5,0.002643585,0.000663757,0.007661819,0,
00:00.5,0.002632141,0.000652313,0.007650375,0,
00:00.5,0.002626419,0.000658035,0.007650375,0,
00:00.5,0.002603531,0.000652313,0.007661819,0,
00:00.5,0.002609253,0.000652313,0.007656097,0,
00:00.5,0.002666473,0.000663757,0.007638931,0,
00:00.5,0.002643585,0.000652313,0.007678986,0,
00:00.5,0.002655029,0.000658035,0.007667542,0,
00:00.5,0.002660751,0.000663757,0.007667542,0,
00:00.5,0.002649307,0.000652313,0.007667542,0,
00:00.5,0.002637863,0.000646591,0.007656097,0,
00:00.5,0.002637863,0.000652313,0.007661819,0,
00:00.5,0.002637863,0.000652313,0.007650375,0,
00:00.5,0.002643585,0.000652313,0.007638931,0,
00:00.5,0.002655029,0.000669479,0.007661819,0,
00:00.5,0.002660751,0.000675201,0.007610321,0,
00:00.5,0.002649307,0.000692368,0.007627487,0,
00:00.5,0.002649307,0.000658035,0.007638931,0,
00:00.5,0.002626419,0.000635147,0.007661819,0,
00:00.5,0.002649307,0.000658035,0.007661819,0,
00:00.5,0.002643585,0.000652313,0.007650375,0,
00:00.6,0.002643585,0.000658035,0.007661819,0,
00:00.6,0.002643585,0.000663757,0.007650375,0,
00:00.6,0.002643585,0.000663757,0.007650375,0,
00:00.6,0.002643585,0.000658035,0.007650375,0,
00:00.6,0.002643585,0.000663757,0.007638931,0,
00:00.6,0.002643585,0.000669479,0.007650375,0,
00:00.6,0.002660751,0.00069809,0.007644653,0,
00:00.6,0.002660751,0.000709534,0.007633209,0,
00:00.6,0.002609253,0.000663757,0.007604599,0,
00:00.6,0.002603531,0.000640869,0.007610321,0,
00:00.6,0.002637863,0.000646591,0.007650375,0,
00:00.6,0.002637863,0.000658035,0.007627487,0,
00:00.6,0.002620697,0.000635147,0.007667542,0,
00:00.6,0.002655029,0.000663757,0.007667542,0,
00:00.6,0.002655029,0.000669479,0.007650375,0,
00:00.6,0.002655029,0.000669479,0.007644653,0,
00:00.6,0.002643585,0.000669479,0.007644653,0,
00:00.6,0.002643585,0.000669479,0.007638931,0,
00:00.6,0.002643585,0.000669479,0.007638931,0,
00:00.6,0.002637863,0.000669479,0.007633209,0,
00:00.6,0.002649307,0.000675201,0.007627487,0,
00:00.6,0.002655029,0.000675201,0.007638931,0,
00:00.6,0.002655029,0.000692368,0.007621765,0,
00:00.6,0.002666473,0.000709534,0.007616043,0,
00:00.6,0.002637863,0.000663757,0.007621765,0,
00:00.7,0.002620697,0.000652313,0.007616043,0,
00:00.7,0.002626419,0.000652313,0.007638931,0,
00:00.7,0.002637863,0.000663757,0.007650375,0,
00:00.7,0.002643585,0.000663757,0.007650375,0,
00:00.7,0.002643585,0.000663757,0.007638931,0,
00:00.7,0.002643585,0.000669479,0.007638931,0,
00:00.7,0.002637863,0.000669479,0.007627487,0,
00:00.7,0.002632141,0.000658035,0.007627487,0,
00:00.7,0.002660751,0.000709534,0.007633209,0,
00:00.7,0.002643585,0.000709534,0.007627487,0,
00:00.7,0.002637863,0.000669479,0.007598877,0,
00:00.7,0.002660751,0.000669479,0.007598877,0,
00:00.7,0.002620697,0.000640869,0.007650375,0,
00:00.7,0.002614975,0.000646591,0.007650375,0,
00:00.7,0.002649307,0.000669479,0.007633209,0,
00:00.7,0.002655029,0.000675201,0.007633209,0,
00:00.7,0.002632141,0.000663757,0.007638931,0,
00:00.7,0.002655029,0.000675201,0.007621765,0,
00:00.7,0.002660751,0.000680923,0.007627487,0,
00:00.7,0.002655029,0.000680923,0.007638931,0,
00:00.7,0.002666473,0.00069809,0.007616043,0,
00:00.7,0.002637863,0.000658035,0.007633209,0,
00:00.7,0.002632141,0.000658035,0.007638931,0,
00:00.7,0.002643585,0.000669479,0.007633209,0,
00:00.7,0.002649307,0.000675201,0.007627487,0,
00:00.8,0.002649307,0.000680923,0.007633209,0,
00:00.8,0.002655029,0.000680923,0.007633209,0,
00:00.8,0.002649307,0.000675201,0.007616043,0,
00:00.8,0.002649307,0.000675201,0.007610321,0,
00:00.8,0.002637863,0.000663757,0.007616043,0,
00:00.8,0.002637863,0.000663757,0.007616043,0,
00:00.8,0.002620697,0.000669479,0.007621765,0,
00:00.8,0.002649307,0.000663757,0.007661819,0,
00:00.8,0.002672195,0.00069809,0.007616043,0,
00:00.8,0.002632141,0.000675201,0.007610321,0,
00:00.8,0.002643585,0.000669479,0.007621765,0,
00:00.8,0.002643585,0.000680923,0.007627487,0,
00:00.8,0.002655029,0.000686646,0.007638931,0,
00:00.8,0.002660751,0.000663757,0.007621765,0,
00:00.8,0.002660751,0.000680923,0.007633209,0,
00:00.8,0.002649307,0.000675201,0.007616043,0,
00:00.8,0.002649307,0.000675201,0.007633209,0,
00:00.8,0.002649307,0.000680923,0.007627487,0,
00:00.8,0.002643585,0.000669479,0.007621765,0,
00:00.8,0.002649307,0.000675201,0.007621765,0,
00:00.8,0.002672195,0.000703812,0.007616043,0,
00:00.8,0.002649307,0.00069809,0.007570267,0,
00:00.8,0.002632141,0.000658035,0.007598877,0,
00:00.8,0.002643585,0.000663757,0.007621765,0,
00:00.8,0.002637863,0.000663757,0.007604599,0,
00:00.9,0.002643585,0.000669479,0.007633209,0,
00:00.9,0.002643585,0.000669479,0.007633209,0,
00:00.9,0.002643585,0.000669479,0.007638931,0,
00:00.9,0.002637863,0.000663757,0.007621765,0,
00:00.9,0.002632141,0.000658035,0.007616043,0,
00:00.9,0.002609253,0.000652313,0.007621765,0,
00:00.9,0.002603531,0.000640869,0.007621765,0,
00:00.9,0.002677917,0.000703812,0.007604599,0,
00:00.9,0.00271225,0.000738144,0.007598877,0,
00:00.9,0.002660751,0.00069809,0.007610321,0,
00:00.9,0.002632141,0.000658035,0.007610321,0,
00:00.9,0.002632141,0.000658035,0.007616043,0,
00:00.9,0.002643585,0.000658035,0.007616043,0,
00:00.9,0.002649307,0.000658035,0.007616043,0,
00:00.9,0.002637863,0.000663757,0.007621765,0,
00:00.9,0.002643585,0.000669479,0.007616043,0,
00:00.9,0.002643585,0.000675201,0.007616043,0,
00:00.9,0.002643585,0.000669479,0.007610321,0,
00:00.9,0.002649307,0.000663757,0.007587433,0,
00:00.9,0.002649307,0.000669479,0.007598877,0,
00:00.9,0.002655029,0.000675201,0.007604599,0,
00:00.9,0.002655029,0.000675201,0.007598877,0,
00:00.9,0.002643585,0.000658035,0.007604599,0,
00:00.9,0.002637863,0.000658035,0.007610321,0,
00:00.9,0.002655029,0.000675201,0.007610321,0,
00:01.0,0.002649307,0.000675201,0.007610321,0,
00:01.0,0.002660751,0.000692368,0.007598877,0,
00:01.0,0.002643585,0.000692368,0.007587433,0,
00:01.0,0.002597809,0.000658035,0.007581711,0,
00:01.0,0.002626419,0.000646591,0.007581711,0,
00:01.0,0.002637863,0.000646591,0.007638931,0,
00:01.0,0.002632141,0.000658035,0.007616043,0,
00:01.0,0.002666473,0.000680923,0.007604599,0,
00:01.0,0.002672195,0.000680923,0.007610321,0,
00:01.0,0.002660751,0.000675201,0.007604599,0,
00:01.0,0.002649307,0.000669479,0.007610321,0,
00:01.0,0.002649307,0.000663757,0.007598877,0,
00:00:01,0.002649307,0.000663757,0.007581711,0,
00:01.0,0.002649307,0.000675201,0.007610321,0,
00:01.0,0.002660751,0.000680923,0.007610321,0,
00:01.0,0.002655029,0.00069809,0.007564545,0,
00:01.0,0.002660751,0.000686646,0.007598877,0,
00:01.0,0.002672195,0.000692368,0.007610321,0,
00:01.0,0.002643585,0.000658035,0.007581711,0,
00:01.0,0.002637863,0.000652313,0.007593155,0,
00:01.0,0.002643585,0.000663757,0.007598877,0,
00:01.0,0.002643585,0.000669479,0.007593155,0,
00:01.0,0.002655029,0.000675201,0.007604599,0,
00:01.0,0.002655029,0.000675201,0.007604599,0,
00:01.0,0.002649307,0.000675201,0.007593155,0,
00:01.1,0.002649307,0.000686646,0.007581711,0,
00:01.1,0.002643585,0.000692368,0.007564545,0,
00:01.1,0.002597809,0.000658035,0.007558823,0,
00:01.1,0.002655029,0.000692368,0.007587433,0,
00:01.1,0.002689362,0.000703812,0.007593155,0,
00:01.1,0.002655029,0.000663757,0.007587433,0,
00:01.1,0.002649307,0.000675201,0.007587433,0,
00:01.1,0.002643585,0.000669479,0.007604599,0,
00:01.1,0.002649307,0.000669479,0.007593155,0,
00:01.1,0.002655029,0.000680923,0.007587433,0,
00:01.1,0.002649307,0.000669479,0.007575989,0,
00:01.1,0.002655029,0.000680923,0.007587433,0,
00:01.1,0.002655029,0.000680923,0.007575989,0,
00:01.1,0.002649307,0.000692368,0.007553101,0,
00:01.1,0.002655029,0.000692368,0.007558823,0,
00:01.1,0.002649307,0.000680923,0.007553101,0,
00:01.1,0.002649307,0.000663757,0.007570267,0,
00:01.1,0.002655029,0.000680923,0.007570267,0,
00:01.1,0.002655029,0.000680923,0.007616043,0,
00:01.1,0.002643585,0.000669479,0.007593155,0,
00:01.1,0.002643585,0.000675201,0.007575989,0,
00:01.1,0.002649307,0.000680923,0.007581711,0,
00:01.1,0.002643585,0.000680923,0.007581711,0,
00:01.1,0.002620697,0.000669479,0.007575989,0,
00:01.1,0.002614975,0.000658035,0.007581711,0,
00:01.2,0.002672195,0.000715256,0.007587433,0,
00:01.2,0.002660751,0.000709534,0.007547379,0,
00:01.2,0.002677917,0.00069809,0.007535934,0,
00:01.2,0.002655029,0.000680923,0.007570267,0,
00:01.2,0.002643585,0.000675201,0.007587433,0,
00:01.2,0.002632141,0.000663757,0.007558823,0,
00:01.2,0.002649307,0.000675201,0.007541656,0,
00:01.2,0.002637863,0.000675201,0.007593155,0,
00:01.2,0.002637863,0.000675201,0.007587433,0,
00:01.2,0.002649307,0.000686646,0.007570267,0,
00:01.2,0.002666473,0.000686646,0.007558823,0,
00:01.2,0.002649307,0.000692368,0.007547379,0,
00:01.2,0.002666473,0.000709534,0.007553101,0,
00:01.2,0.002660751,0.000692368,0.00752449,0,
00:01.2,0.002649307,0.000680923,0.007541656,0,
00:01.2,0.002649307,0.000692368,0.007575989,0,
00:01.2,0.002666473,0.000709534,0.007581711,0,
00:01.2,0.002649307,0.000686646,0.007570267,0,
00:01.2,0.002649307,0.000686646,0.007553101,0,
00:01.2,0.002649307,0.000680923,0.007541656,0,
00:01.2,0.002643585,0.000675201,0.007570267,0,
00:01.2,0.002643585,0.000686646,0.007564545,0,
00:01.2,0.002643585,0.000675201,0.007553101,0,
00:01.2,0.002649307,0.000680923,0.007553101,0,
00:01.2,0.002649307,0.000692368,0.007553101,0,
00:01.3,0.002649307,0.000686646,0.007547379,0,
00:01.3,0.002643585,0.000692368,0.007558823,0,
00:01.3,0.002660751,0.000709534,0.00752449,0,
00:01.3,0.002643585,0.000680923,0.007553101,0,
00:01.3,0.002626419,0.000675201,0.007553101,0,
00:01.3,0.002609253,0.000663757,0.007547379,0,
00:01.3,0.002637863,0.000692368,0.007547379,0,
00:01.3,0.002677917,0.00069809,0.007530212,0,
00:01.3,0.002655029,0.000686646,0.007570267,0,
00:01.3,0.002649307,0.000692368,0.007558823,0,
00:01.3,0.002655029,0.00069809,0.007541656,0,
00:01.3,0.002649307,0.000686646,0.007553101,0,
00:01.3,0.002637863,0.000675201,0.007535934,0,
00:01.3,0.002643585,0.000686646,0.007530212,0,
00:01.3,0.002655029,0.000703812,0.007553101,0,
00:01.3,0.002677917,0.0007267,0.007501602,0,
00:01.3,0.002637863,0.000692368,0.00749588,0,
00:01.3,0.002614975,0.000652313,0.007575989,0,
00:01.3,0.002637863,0.000680923,0.007530212,0,
00:01.3,0.002643585,0.00069809,0.007541656,0,
00:01.3,0.002637863,0.000675201,0.007570267,0,
00:01.3,0.002643585,0.000675201,0.007558823,0,
00:01.3,0.002643585,0.00069809,0.007541656,0,
00:01.3,0.002643585,0.000703812,0.007541656,0,
00:01.3,0.002609253,0.000675201,0.007553101,0,
00:01.4,0.002620697,0.000680923,0.007541656,0,
00:01.4,0.002666473,0.000703812,0.007518768,0,
00:01.4,0.002660751,0.000703812,0.00749588,0,
00:01.4,0.002660751,0.00069809,0.007547379,0,
00:01.4,0.002643585,0.000680923,0.007553101,0,
00:01.4,0.002655029,0.000692368,0.007541656,0,
00:01.4,0.002643585,0.00069809,0.007535934,0,
00:01.4,0.002643585,0.000692368,0.007535934,0,
00:01.4,0.002643585,0.000680923,0.007530212,0,
00:01.4,0.002643585,0.000686646,0.00752449,0,
00:01.4,0.002655029,0.000715256,0.00749588,0,
00:01.4,0.002643585,0.00069809,0.007478714,0,
00:01.4,0.002649307,0.00069809,0.007547379,0,
00:01.4,0.002666473,0.000715256,0.007547379,0,
00:01.4,0.002632141,0.000669479,0.007530212,0,
00:01.4,0.002632141,0.000675201,0.007547379,0,
00:01.4,0.002643585,0.000686646,0.007547379,0,
00:01.4,0.002643585,0.000686646,0.007541656,0,
00:01.4,0.002643585,0.000686646,0.007535934,0,
00:01.4,0.002655029,0.00069809,0.007530212,0,
00:01.4,0.002655029,0.000703812,0.007518768,0,
00:01.4,0.002603531,0.000663757,0.007535934,0,
00:01.4,0.002614975,0.000680923,0.007530212,0,
00:01.4,0.002649307,0.000703812,0.00752449,0,
00:01.4,0.002666473,0.000692368,0.007518768,0,
00:01.5,0.002643585,0.000675201,0.007507324,0,
00:01.5,0.002649307,0.000686646,0.007535934,0,
00:01.5,0.002649307,0.000686646,0.007541656,0,
00:01.5,0.002672195,0.000720978,0.007518768,0,
00:01.5,0.002649307,0.000703812,0.007530212,0,
00:01.5,0.002620697,0.000680923,0.007513046,0,
00:01.5,0.002649307,0.000703812,0.007478714,0,
00:01.5,0.002649307,0.000703812,0.007490158,0,
00:01.5,0.002660751,0.00069809,0.007530212,0,
00:01.5,0.002655029,0.000680923,0.007535934,0,
00:01.5,0.002643585,0.000680923,0.007547379,0,
00:01.5,0.002643585,0.000686646,0.007530212,0,
00:01.5,0.002649307,0.000692368,0.00752449,0,
00:01.5,0.002660751,0.000703812,0.007530212,0,
00:01.5,0.002666473,0.000715256,0.007530212,0,
00:01.5,0.002655029,0.000692368,0.007484436,0,
00:01.5,0.002643585,0.000686646,0.00752449,0,
00:01.5,0.002637863,0.000680923,0.007513046,0,
00:01.5,0.002649307,0.000692368,0.007513046,0,
00:01.5,0.002637863,0.000692368,0.007507324,0,
00:01.5,0.002655029,0.00069809,0.007535934,0,
00:01.5,0.002649307,0.000686646,0.007535934,0,
00:01.5,0.002655029,0.000692368,0.00752449,0,
00:01.5,0.002660751,0.00069809,0.007535934,0,
00:01.5,0.002632141,0.00069809,0.007518768,0,
00:01.6,0.002603531,0.000658035,0.007507324,0,
00:01.6,0.002637863,0.000686646,0.007513046,0,
00:01.6,0.002677917,0.000715256,0.007513046,0,
00:01.6,0.002660751,0.000692368,0.00752449,0,
00:01.6,0.002660751,0.00069809,0.007518768,0,
00:01.6,0.002655029,0.00069809,0.007518768,0,
00:01.6,0.002649307,0.000692368,0.007518768,0,
00:01.6,0.002660751,0.00069809,0.007530212,0,
00:01.6,0.002666473,0.000720978,0.007501602,0,
00:01.6,0.002666473,0.000732422,0.007484436,0,
00:01.6,0.002655029,0.00069809,0.00746727,0,
00:01.6,0.002632141,0.000680923,0.007478714,0,
00:01.6,0.002637863,0.000686646,0.007558823,0,
00:01.6,0.002655029,0.000680923,0.007535934,0,
00:01.6,0.002649307,0.000686646,0.007518768,0,
00:01.6,0.002649307,0.00069809,0.007541656,0,
00:01.6,0.002655029,0.00069809,0.007541656,0,
00:01.6,0.002666473,0.000703812,0.007518768,0,
00:01.6,0.002660751,0.00069809,0.007507324,0,
00:01.6,0.002643585,0.000692368,0.007513046,0,
00:01.6,0.002614975,0.000680923,0.00752449,0,
00:01.6,0.002637863,0.000692368,0.007513046,0,
00:01.6,0.002666473,0.00069809,0.007507324,0,
00:01.6,0.002666473,0.000692368,0.007507324,0,
00:01.6,0.002666473,0.000692368,0.00752449,0,
00:01.7,0.002655029,0.000686646,0.007507324,0,
00:01.7,0.002649307,0.000692368,0.007507324,0,
00:01.7,0.002666473,0.000703812,0.007518768,0,
00:01.7,0.002666473,0.000709534,0.007501602,0,
00:01.7,0.002643585,0.000692368,0.007484436,0,
00:01.7,0.002632141,0.000663757,0.007472992,0,
00:01.7,0.002637863,0.000675201,0.007478714,0,
00:01.7,0.002660751,0.000680923,0.007535934,0,
00:01.7,0.002660751,0.000692368,0.00752449,0,
00:01.7,0.002677917,0.000720978,0.007513046,0,
00:01.7,0.002666473,0.000703812,0.007513046,0,
00:01.7,0.002655029,0.000686646,0.007513046,0,
00:01.7,0.002643585,0.000686646,0.007518768,0,
00:01.7,0.002660751,0.000686646,0.007501602,0,
00:01.7,0.002637863,0.000675201,0.007501602,0,
00:01.7,0.002643585,0.000680923,0.007501602,0,
00:01.7,0.002666473,0.000692368,0.007501602,0,
00:01.7,0.002643585,0.000680923,0.007507324,0,
00:01.7,0.002649307,0.000680923,0.007513046,0,
00:01.7,0.002666473,0.000709534,0.007507324,0,
00:01.7,0.002666473,0.00069809,0.00749588,0,
00:01.7,0.002666473,0.000692368,0.00749588,0,
00:01.7,0.002672195,0.000703812,0.007484436,0,
00:01.7,0.002660751,0.000709534,0.007518768,0,
00:01.7,0.002637863,0.000675201,0.007484436,0,
00:01.8,0.002643585,0.000675201,0.007478714,0,
00:01.8,0.002632141,0.000658035,0.007513046,0,
00:01.8,0.002632141,0.000686646,0.007490158,0,
00:01.8,0.002643585,0.000692368,0.007501602,0,
00:01.8,0.002655029,0.000686646,0.007507324,0,
00:01.8,0.002677917,0.000692368,0.007513046,0,
00:01.8,0.002666473,0.000692368,0.007501602,0,
00:01.8,0.002660751,0.00069809,0.00749588,0,
00:01.8,0.002672195,0.000720978,0.007484436,0,
00:01.8,0.002643585,0.000686646,0.007501602,0,
00:01.8,0.002655029,0.000686646,0.007501602,0,
00:01.8,0.002637863,0.000675201,0.00749588,0,
00:01.8,0.002626419,0.000675201,0.007490158,0,
00:01.8,0.002649307,0.000686646,0.007507324,0,
00:01.8,0.002666473,0.000703812,0.007501602,0,
00:01.8,0.002660751,0.00069809,0.00749588,0,
00:01.8,0.002649307,0.000692368,0.007501602,0,
00:01.8,0.002660751,0.000692368,0.007490158,0,
00:01.8,0.002649307,0.000686646,0.007484436,0,
00:01.8,0.002655029,0.00069809,0.007490158,0,
00:01.8,0.002655029,0.000692368,0.007501602,0,
00:01.8,0.002660751,0.00069809,0.007484436,0,
00:01.8,0.002649307,0.00069809,0.007490158,0,
00:01.8,0.002643585,0.00069809,0.007484436,0,
00:01.8,0.002649307,0.000703812,0.007490158,0,
00:01.9,0.002637863,0.000680923,0.007501602,0,
00:01.9,0.002637863,0.000686646,0.007490158,0,
00:01.9,0.002655029,0.000703812,0.007472992,0,
00:01.9,0.002660751,0.000686646,0.007478714,0,
00:01.9,0.002637863,0.000680923,0.007484436,0,
00:01.9,0.002695084,0.000738144,0.007507324,0,
00:01.9,0.002655029,0.000680923,0.007484436,0,
00:01.9,0.002632141,0.000680923,0.007501602,0,
00:01.9,0.002655029,0.00069809,0.007484436,0,
00:01.9,0.002660751,0.00069809,0.007490158,0,
00:01.9,0.002660751,0.000692368,0.007472992,0,
00:01.9,0.002649307,0.000692368,0.007484436,0,
00:01.9,0.002649307,0.000692368,0.007478714,0,
00:01.9,0.002655029,0.000692368,0.00749588,0,
00:01.9,0.002660751,0.000703812,0.007490158,0,
00:01.9,0.002660751,0.000709534,0.007472992,0,
00:01.9,0.002655029,0.000703812,0.007478714,0,
00:01.9,0.002649307,0.00069809,0.007484436,0,
00:01.9,0.002649307,0.000686646,0.007472992,0,
00:01.9,0.002655029,0.000703812,0.00746727,0,
00:01.9,0.002649307,0.000703812,0.007455826,0,
00:01.9,0.002643585,0.000692368,0.00746727,0,
00:01.9,0.002632141,0.000692368,0.007518768,0,
00:01.9,0.002643585,0.00069809,0.007478714,0,
00:01.9,0.002672195,0.000703812,0.00746727,0,
00:02.0,0.002637863,0.000680923,0.007490158,0,
00:02.0,0.002649307,0.000703812,0.007484436,0,
00:02.0,0.002626419,0.000692368,0.007461548,0,
00:02.0,0.002649307,0.000709534,0.007472992,0,
00:02.0,0.00268364,0.000703812,0.007484436,0,
00:02.0,0.002649307,0.00069809,0.00749588,0,
00:02.0,0.002649307,0.000703812,0.007472992,0,
00:02.0,0.002655029,0.000703812,0.00746727,0,
00:02.0,0.002655029,0.000703812,0.007490158,0,
00:02.0,0.002649307,0.000703812,0.007478714,0,
00:02.0,0.002655029,0.000709534,0.007472992,0,
00:02.0,0.002660751,0.000709534,0.007455826,0,
00:00:02,0.002649307,0.000709534,0.007472992,0,
00:02.0,0.002655029,0.0007267,0.007461548,0,
00:02.0,0.002660751,0.0007267,0.007444382,0,
00:02.0,0.002626419,0.000675201,0.007490158,0,
00:02.0,0.002637863,0.000680923,0.007478714,0,
00:02.0,0.002649307,0.00069809,0.007472992,0,
00:02.0,0.002643585,0.00069809,0.00746727,0,
00:02.0,0.002643585,0.00069809,0.00746727,0,
00:02.0,0.002660751,0.000715256,0.007450104,0,
00:02.0,0.002649307,0.000703812,0.007415771,0,
00:02.0,0.002637863,0.000692368,0.00746727,0,
00:02.0,0.002632141,0.000692368,0.007484436,0,
00:02.0,0.002649307,0.00069809,0.007478714,0,
00:02.1,0.002666473,0.000709534,0.007461548,0,
00:02.1,0.002649307,0.000703812,0.007461548,0,
00:02.1,0.002637863,0.000692368,0.007478714,0,
00:02.1,0.002643585,0.000686646,0.007478714,0,
00:02.1,0.002660751,0.000709534,0.007478714,0,
00:02.1,0.002677917,0.000738144,0.007472992,0,
00:02.1,0.002672195,0.000720978,0.007472992,0,
00:02.1,0.002632141,0.000680923,0.00746727,0,
00:02.1,0.002637863,0.000686646,0.007427216,0,
00:02.1,0.002637863,0.000692368,0.007450104,0,
00:02.1,0.002637863,0.000703812,0.007472992,0,
00:02.1,0.002643585,0.00069809,0.007461548,0,
00:02.1,0.002649307,0.000703812,0.007455826,0,
00:02.1,0.002649307,0.000692368,0.007455826,0,
00:02.1,0.002643585,0.000692368,0.007472992,0,
00:02.1,0.002649307,0.000703812,0.00746727,0,
00:02.1,0.002666473,0.000715256,0.007461548,0,
00:02.1,0.002677917,0.00075531,0.007450104,0,
00:02.1,0.002620697,0.000720978,0.007455826,0,
00:02.1,0.002620697,0.000669479,0.007415771,0,
00:02.1,0.002660751,0.000703812,0.007461548,0,
00:02.1,0.002637863,0.000686646,0.007478714,0,
00:02.1,0.002632141,0.000686646,0.007427216,0,
00:02.1,0.002666473,0.000720978,0.007432938,0,
00:02.1,0.002655029,0.000703812,0.007484436,0,
00:02.2,0.002649307,0.00069809,0.007490158,0,
00:02.2,0.002655029,0.000709534,0.007472992,0,
00:02.2,0.002655029,0.000709534,0.00746727,0,
00:02.2,0.002655029,0.000709534,0.007455826,0,
00:02.2,0.002660751,0.000715256,0.007450104,0,
00:02.2,0.00268364,0.000749588,0.007472992,0,
00:02.2,0.002660751,0.000720978,0.007444382,0,
00:02.2,0.002643585,0.000692368,0.00743866,0,
00:02.2,0.002655029,0.000703812,0.007455826,0,
00:02.2,0.002655029,0.000709534,0.007427216,0,
00:02.2,0.002655029,0.000715256,0.007427216,0,
00:02.2,0.002632141,0.000692368,0.007455826,0,
00:02.2,0.002637863,0.00069809,0.00749588,0,
00:02.2,0.002649307,0.000703812,0.007484436,0,
00:02.2,0.002655029,0.000703812,0.007461548,0,
00:02.2,0.002649307,0.000692368,0.007455826,0,
00:02.2,0.002649307,0.00069809,0.007461548,0,
00:02.2,0.002643585,0.000692368,0.007455826,0,
00:02.2,0.002637863,0.000709534,0.007455826,0,
00:02.2,0.002649307,0.000715256,0.007455826,0,
00:02.2,0.002637863,0.00069809,0.007455826,0,
00:02.2,0.002666473,0.000732422,0.007450104,0,
00:02.2,0.002695084,0.000761032,0.007427216,0,
00:02.2,0.002666473,0.0007267,0.007432938,0,
00:02.2,0.002660751,0.000709534,0.007432938,0,
00:02.3,0.002632141,0.000680923,0.007421494,0,
00:02.3,0.002643585,0.000692368,0.007450104,0,
00:02.3,0.002649307,0.000703812,0.00746727,0,
00:02.3,0.002643585,0.00069809,0.00746727,0,
00:02.3,0.002655029,0.000715256,0.007461548,0,
00:02.3,0.002649307,0.000703812,0.00746727,0,
00:02.3,0.002655029,0.000709534,0.007472992,0,
00:02.3,0.002643585,0.000703812,0.007461548,0,
00:02.3,0.002632141,0.000709534,0.007444382,0,
00:02.3,0.002660751,0.000732422,0.007455826,0,
00:02.3,0.002660751,0.000715256,0.00746727,0,
00:02.3,0.002643585,0.000692368,0.007450104,0,
00:02.3,0.002649307,0.000709534,0.007432938,0,
00:02.3,0.002643585,0.00069809,0.007461548,0,
00:02.3,0.002660751,0.000715256,0.00746727,0,
00:02.3,0.002655029,0.000709534,0.00743866,0,
00:02.3,0.002649307,0.000703812,0.007455826,0,
00:02.3,0.002649307,0.000709534,0.007455826,0,
00:02.3,0.002643585,0.000709534,0.007455826,0,
00:02.3,0.002666473,0.0007267,0.007450104,0,
00:02.3,0.002655029,0.000720978,0.00743866,0,
00:02.3,0.002666473,0.000749588,0.00743866,0,
00:02.3,0.002655029,0.000703812,0.007461548,0,
00:02.3,0.002649307,0.000703812,0.007455826,0,
00:02.3,0.002666473,0.0007267,0.007444382,0,
00:02.4,0.002643585,0.000709534,0.007450104,0,
00:02.4,0.002643585,0.000709534,0.007450104,0,
00:02.4,0.002643585,0.000709534,0.007444382,0,
00:02.4,0.002632141,0.000715256,0.007444382,0,
00:02.4,0.002655029,0.000720978,0.007455826,0,
00:02.4,0.002649307,0.00069809,0.007455826,0,
00:02.4,0.002655029,0.000709534,0.007427216,0,
00:02.4,0.002649307,0.000709534,0.007478714,0,
00:02.4,0.002660751,0.000732422,0.00746727,0,
00:02.4,0.002672195,0.000743866,0.007444382,0,
00:02.4,0.002660751,0.000720978,0.007432938,0,
00:02.4,0.002649307,0.000715256,0.007455826,0,
00:02.4,0.002632141,0.000703812,0.007455826,0,
00:02.4,0.002655029,0.0007267,0.007450104,0,
00:02.4,0.002666473,0.000738144,0.007444382,0,
00:02.4,0.002655029,0.000720978,0.007450104,0,
00:02.4,0.002660751,0.000732422,0.007450104,0,
00:02.4,0.002649307,0.000720978,0.007444382,0,
00:02.4,0.002655029,0.0007267,0.00743866,0,
00:02.4,0.002666473,0.000732422,0.007450104,0,
00:02.4,0.002666473,0.000743866,0.007450104,0,
00:02.4,0.002649307,0.000720978,0.007444382,0,
00:02.4,0.002637863,0.000709534,0.007450104,0,
00:02.4,0.002649307,0.000732422,0.007444382,0,
00:02.4,0.002666473,0.00075531,0.007455826,0,
00:02.5,0.002626419,0.000720978,0.007404327,0,
00:02.5,0.002620697,0.000715256,0.00743866,0,
00:02.5,0.002649307,0.000720978,0.007461548,0,
00:02.5,0.002666473,0.000732422,0.007427216,0,
00:02.5,0.002666473,0.000743866,0.007444382,0,
00:02.5,0.002655029,0.000720978,0.00746727,0,
00:02.5,0.002655029,0.000720978,0.007478714,0,
00:02.5,0.002666473,0.000743866,0.007455826,0,
00:02.5,0.002677917,0.000743866,0.00743866,0,
00:02.5,0.002660751,0.000743866,0.00743866,0,
00:02.5,0.002666473,0.000749588,0.007444382,0,
00:02.5,0.002660751,0.000738144,0.007455826,0,
00:02.5,0.002655029,0.000720978,0.007455826,0,
00:02.5,0.002649307,0.000732422,0.007444382,0,
00:02.5,0.002655029,0.000732422,0.007455826,0,
00:02.5,0.002649307,0.0007267,0.007461548,0,
00:02.5,0.002643585,0.0007267,0.007450104,0,
00:02.5,0.002655029,0.000738144,0.007461548,0,
00:02.5,0.002660751,0.000738144,0.007450104,0,
00:02.5,0.002660751,0.000732422,0.007450104,0,
00:02.5,0.002666473,0.000743866,0.007450104,0,
00:02.5,0.002643585,0.0007267,0.00743866,0,
00:02.5,0.002655029,0.000749588,0.007444382,0,
00:02.5,0.002655029,0.000732422,0.007421494,0,
00:02.5,0.002649307,0.0007267,0.007432938,0,
00:02.6,0.002666473,0.000743866,0.00743866,0,
00:02.6,0.002666473,0.000772476,0.007444382,0,
00:02.6,0.002643585,0.0007267,0.007427216,0,
00:02.6,0.002649307,0.000738144,0.00746727,0,
00:02.6,0.002660751,0.000738144,0.00746727,0,
00:02.6,0.002655029,0.000732422,0.007450104,0,
00:02.6,0.002666473,0.000749588,0.007472992,0,
00:02.6,0.002655029,0.000732422,0.007455826,0,
00:02.6,0.002660751,0.000749588,0.007461548,0,
00:02.6,0.002643585,0.000738144,0.007455826,0,
00:02.6,0.002632141,0.000720978,0.007455826,0,
00:02.6,0.002672195,0.00075531,0.007455826,0,
00:02.6,0.002643585,0.000738144,0.007432938,0,
00:02.6,0.002632141,0.0007267,0.007444382,0,
00:02.6,0.002672195,0.000749588,0.007450104,0,
00:02.6,0.002666473,0.000749588,0.007444382,0,
00:02.6,0.002666473,0.000743866,0.007461548,0,
00:02.6,0.002655029,0.000738144,0.007444382,0,
00:02.6,0.002655029,0.000749588,0.007444382,0,
00:02.6,0.002655029,0.000749588,0.007444382,0,
00:02.6,0.002649307,0.000732422,0.00743866,0,
00:02.6,0.002637863,0.0007267,0.00746727,0,
00:02.6,0.002660751,0.000761032,0.007461548,0,
00:02.6,0.002660751,0.000749588,0.007444382,0,
00:02.6,0.002666473,0.000743866,0.007455826,0,
00:02.7,0.002660751,0.000743866,0.007455826,0,
00:02.7,0.002660751,0.000749588,0.007455826,0,
00:02.7,0.002632141,0.000720978,0.007444382,0,
00:02.7,0.002643585,0.0007267,0.007461548,0,
00:02.7,0.002643585,0.000732422,0.007472992,0,
00:02.7,0.002649307,0.000738144,0.007461548,0,
00:02.7,0.002677917,0.000738144,0.007455826,0,
00:02.7,0.002677917,0.00075531,0.007455826,0,
00:02.7,0.002649307,0.000738144,0.007472992,0,
00:02.7,0.002655029,0.000749588,0.007461548,0,
00:02.7,0.002666473,0.000772476,0.007450104,0,
00:02.7,0.002660751,0.000743866,0.007450104,0,
00:02.7,0.002649307,0.000738144,0.007450104,0,
00:02.7,0.002655029,0.000743866,0.007472992,0,
00:02.7,0.002660751,0.000761032,0.00746727,0,
00:02.7,0.002660751,0.000738144,0.007461548,0,
00:02.7,0.002660751,0.000743866,0.007450104,0,
00:02.7,0.002655029,0.000738144,0.007450104,0,
00:02.7,0.002649307,0.000738144,0.007478714,0,
00:02.7,0.002655029,0.000738144,0.00746727,0,
00:02.7,0.002660751,0.000749588,0.007461548,0,
00:02.7,0.002649307,0.000749588,0.00743866,0,
00:02.7,0.002643585,0.000749588,0.007455826,0,
00:02.7,0.002637863,0.000738144,0.007455826,0,
00:02.7,0.002643585,0.000732422,0.007472992,0,
00:02.8,0.002649307,0.000738144,0.007478714,0,
00:02.8,0.002672195,0.00075531,0.007455826,0,
00:02.8,0.00268364,0.000772476,0.007450104,0,
00:02.8,0.002677917,0.000766754,0.00746727,0,
00:02.8,0.002660751,0.000749588,0.007455826,0,
00:02.8,0.002655029,0.000749588,0.007432938,0,
00:02.8,0.002637863,0.000738144,0.007478714,0,
00:02.8,0.002655029,0.000743866,0.00746727,0,
00:02.8,0.002660751,0.000749588,0.007461548,0,
00:02.8,0.002655029,0.000749588,0.007455826,0,
00:02.8,0.002660751,0.00075531,0.007455826,0,
00:02.8,0.002660751,0.00075531,0.007484436,0,
00:02.8,0.002666473,0.000766754,0.007461548,0,
00:02.8,0.002660751,0.00075531,0.00743866,0,
00:02.8,0.002660751,0.000761032,0.007455826,0,
00:02.8,0.002666473,0.00078392,0.007461548,0,
00:02.8,0.002666473,0.00078392,0.007444382,0,
00:02.8,0.002632141,0.000743866,0.007478714,0,
00:02.8,0.002666473,0.000766754,0.007455826,0,
00:02.8,0.002672195,0.000766754,0.007444382,0,
00:02.8,0.002660751,0.000766754,0.007461548,0,
00:02.8,0.002637863,0.000738144,0.007461548,0,
00:02.8,0.002637863,0.000732422,0.007455826,0,
00:02.8,0.002660751,0.00075531,0.00746727,0,
00:02.8,0.002666473,0.000772476,0.007455826,0,
00:02.9,0.002677917,0.000778198,0.007455826,0,
00:02.9,0.00268364,0.00078392,0.007455826,0,
00:02.9,0.002655029,0.000749588,0.007450104,0,
00:02.9,0.002649307,0.000749588,0.00746727,0,
00:02.9,0.002655029,0.00075531,0.007461548,0,
00:02.9,0.002660751,0.000761032,0.007478714,0,
00:02.9,0.002655029,0.00075531,0.00746727,0,
00:02.9,0.002655029,0.000761032,0.007461548,0,
00:02.9,0.002655029,0.000766754,0.007455826,0,
00:02.9,0.002649307,0.000766754,0.007455826,0,
00:02.9,0.002666473,0.000778198,0.007444382,0,
00:02.9,0.002672195,0.000772476,0.007455826,0,
00:02.9,0.002655029,0.000766754,0.007444382,0,
00:02.9,0.002655029,0.000772476,0.007478714,0,
00:02.9,0.002655029,0.00075531,0.007455826,0,
00:02.9,0.002614975,0.000738144,0.007461548,0,
00:02.9,0.002609253,0.000749588,0.007461548,0,
00:02.9,0.002660751,0.000772476,0.007444382,0,
00:02.9,0.002695084,0.000806808,0.00743866,0,
00:02.9,0.002695084,0.000801086,0.00746727,0,
00:02.9,0.002672195,0.00078392,0.00746727,0,
00:02.9,0.002637863,0.000743866,0.00743866,0,
00:02.9,0.002666473,0.000772476,0.007490158,0,
00:02.9,0.002666473,0.000766754,0.00746727,0,
00:02.9,0.002655029,0.000766754,0.00746727,0,
00:03.0,0.002666473,0.00078392,0.00746727,0,
00:03.0,0.00268364,0.000806808,0.007461548,0,
00:03.0,0.002655029,0.000778198,0.007432938,0,
00:03.0,0.002655029,0.000778198,0.007432938,0,
00:03.0,0.002649307,0.000766754,0.007478714,0,
00:03.0,0.002643585,0.000761032,0.00746727,0,
00:03.0,0.002660751,0.000766754,0.00746727,0,
00:03.0,0.002660751,0.000772476,0.007455826,0,
00:03.0,0.002666473,0.00078392,0.007455826,0,
00:03.0,0.002666473,0.000778198,0.00746727,0,
00:03.0,0.002660751,0.000778198,0.007455826,0,
00:03.0,0.002643585,0.000761032,0.007450104,0,
00:00:03,0.002597809,0.000761032,0.007472992,0,
00:03.0,0.002660751,0.000766754,0.007432938,0,
00:03.0,0.002672195,0.00078392,0.00743866,0,
00:03.0,0.002643585,0.000778198,0.007461548,0,
00:03.0,0.002660751,0.00078392,0.007472992,0,
00:03.0,0.00268364,0.000795364,0.00746727,0,
00:03.0,0.002666473,0.000772476,0.007478714,0,
00:03.0,0.002666473,0.000795364,0.007450104,0,
00:03.0,0.002655029,0.000766754,0.007461548,0,
00:03.0,0.002649307,0.000766754,0.007472992,0,
00:03.0,0.002655029,0.000778198,0.007455826,0,
00:03.0,0.002666473,0.000789642,0.00743866,0,
00:03.0,0.002660751,0.00078392,0.00746727,0,
00:03.1,0.002677917,0.000795364,0.00746727,0,
00:03.1,0.002672195,0.000789642,0.007461548,0,
00:03.1,0.002666473,0.000778198,0.007455826,0,
00:03.1,0.002655029,0.000766754,0.007461548,0,
00:03.1,0.002655029,0.000778198,0.007444382,0,
00:03.1,0.002655029,0.000772476,0.007455826,0,
00:03.1,0.002660751,0.000778198,0.00746727,0,
00:03.1,0.002643585,0.000778198,0.007455826,0,
00:03.1,0.002649307,0.000795364,0.00743866,0,
00:03.1,0.002643585,0.000766754,0.007432938,0,
00:03.1,0.002677917,0.000789642,0.007478714,0,
00:03.1,0.002643585,0.000772476,0.00746727,0,
00:03.1,0.002689362,0.000795364,0.007461548,0,
00:03.1,0.002677917,0.000795364,0.007450104,0,
00:03.1,0.002672195,0.000795364,0.007455826,0,
00:03.1,0.002660751,0.000778198,0.007472992,0,
00:03.1,0.002660751,0.000778198,0.00746727,0,
00:03.1,0.002666473,0.00078392,0.007455826,0,
00:03.1,0.002666473,0.000795364,0.007478714,0,
00:03.1,0.002666473,0.000778198,0.00746727,0,
00:03.1,0.002672195,0.000789642,0.007450104,0,
00:03.1,0.002677917,0.000801086,0.007461548,0,
00:03.1,0.002655029,0.000772476,0.007461548,0,
00:03.1,0.002660751,0.000778198,0.007444382,0,
00:03.1,0.002660751,0.000778198,0.007455826,0,
00:03.2,0.002666473,0.00078392,0.007444382,0,
00:03.2,0.002666473,0.000795364,0.007392883,0,
00:03.2,0.002672195,0.000789642,0.007478714,0,
00:03.2,0.002649307,0.000772476,0.00749588,0,
00:03.2,0.002655029,0.000778198,0.007478714,0,
00:03.2,0.002626419,0.000778198,0.007472992,0,
00:03.2,0.002643585,0.000772476,0.007450104,0,
00:03.2,0.00268364,0.00078392,0.007432938,0,
00:03.2,0.002689362,0.000795364,0.007444382,0,
00:03.2,0.00268364,0.000795364,0.007461548,0,
00:03.2,0.002677917,0.000795364,0.00746727,0,
00:03.2,0.002677917,0.000801086,0.007455826,0,
00:03.2,0.002677917,0.000789642,0.007455826,0,
00:03.2,0.002677917,0.00078392,0.007450104,0,
00:03.2,0.002660751,0.000778198,0.007444382,0,
00:03.2,0.002672195,0.00078392,0.007455826,0,
00:03.2,0.002672195,0.00078392,0.00743866,0,
00:03.2,0.00268364,0.000812531,0.007432938,0,
00:03.2,0.002666473,0.000789642,0.007472992,0,
00:03.2,0.002660751,0.00078392,0.007472992,0,
00:03.2,0.002660751,0.00078392,0.007461548,0,
00:03.2,0.002672195,0.000789642,0.007432938,0,
00:03.2,0.002660751,0.000789642,0.007444382,0,
00:03.2,0.002655029,0.000795364,0.007461548,0,
00:03.2,0.002672195,0.000829697,0.007472992,0,
00:03.3,0.00268364,0.000795364,0.007444382,0,
00:03.3,0.002649307,0.000772476,0.00743866,0,
00:03.3,0.002643585,0.000778198,0.007461548,0,
00:03.3,0.002666473,0.000789642,0.007461548,0,
00:03.3,0.002672195,0.000795364,0.007455826,0,
00:03.3,0.002666473,0.000801086,0.007450104,0,
00:03.3,0.002660751,0.000789642,0.00743866,0,
00:03.3,0.002660751,0.000801086,0.007455826,0,
00:03.3,0.002637863,0.000778198,0.007455826,0,
00:03.3,0.002689362,0.000812531,0.007421494,0,
00:03.3,0.002695084,0.000835419,0.007444382,0,
00:03.3,0.002672195,0.000795364,0.007455826,0,
00:03.3,0.002660751,0.000795364,0.007455826,0,
00:03.3,0.002660751,0.000795364,0.007455826,0,
00:03.3,0.002666473,0.000795364,0.007444382,0,
00:03.3,0.002660751,0.000795364,0.007455826,0,
00:03.3,0.002666473,0.000801086,0.007455826,0,
00:03.3,0.002660751,0.000795364,0.007450104,0,
00:03.3,0.002666473,0.000806808,0.007444382,0,
00:03.3,0.002677917,0.000823975,0.007427216,0,
00:03.3,0.002666473,0.000823975,0.00743866,0,
00:03.3,0.002666473,0.000829697,0.007427216,0,
00:03.3,0.002643585,0.00078392,0.00743866,0,
00:03.3,0.002632141,0.000789642,0.007461548,0,
00:03.3,0.002609253,0.000766754,0.007478714,0,
00:03.4,0.002660751,0.000801086,0.007450104,0,
00:03.4,0.00268364,0.000818253,0.007461548,0,
00:03.4,0.002614975,0.000823975,0.007444382,0,
00:03.4,0.002563477,0.000806808,0.007415771,0,
00:03.4,0.002660751,0.000812531,0.007455826,0,
00:03.4,0.002717972,0.000841141,0.007444382,0,
00:03.4,0.00271225,0.000841141,0.007455826,0,
00:03.4,0.002672195,0.000801086,0.007455826,0,
00:03.4,0.002655029,0.000789642,0.007450104,0,
00:03.4,0.002660751,0.000806808,0.007455826,0,
00:03.4,0.002672195,0.000823975,0.00743866,0,
00:03.4,0.002672195,0.000818253,0.007444382,0,
00:03.4,0.002666473,0.000806808,0.007444382,0,
00:03.4,0.002672195,0.000818253,0.007427216,0,
00:03.4,0.002677917,0.000823975,0.007432938,0,
00:03.4,0.002660751,0.000812531,0.007427216,0,
00:03.4,0.002672195,0.000846863,0.007421494,0,
00:03.4,0.002655029,0.000806808,0.007432938,0,
00:03.4,0.002649307,0.000806808,0.007450104,0,
00:03.4,0.002649307,0.000806808,0.007444382,0,
00:03.4,0.002609253,0.000778198,0.007455826,0,
00:03.4,0.002672195,0.000801086,0.007444382,0,
00:03.4,0.00271225,0.000858307,0.00743866,0,
00:03.4,0.002666473,0.000823975,0.007410049,0,
00:03.4,0.002660751,0.000795364,0.00743866,0,
00:03.5,0.002672195,0.000823975,0.007444382,0,
00:03.5,0.002672195,0.000818253,0.007432938,0,
00:03.5,0.002666473,0.000818253,0.007432938,0,
00:03.5,0.002660751,0.000812531,0.007444382,0,
00:03.5,0.002666473,0.000818253,0.00743866,0,
00:03.5,0.002672195,0.000823975,0.007427216,0,
00:03.5,0.00268364,0.000841141,0.007410049,0,
00:03.5,0.002666473,0.000841141,0.007421494,0,
00:03.5,0.002655029,0.000841141,0.007415771,0,
00:03.5,0.002677917,0.000835419,0.007444382,0,
00:03.5,0.002649307,0.000789642,0.007427216,0,
00:03.5,0.002655029,0.000812531,0.007432938,0,
00:03.5,0.002660751,0.000818253,0.007450104,0,
00:03.5,0.002655029,0.000806808,0.007455826,0,
00:03.5,0.002655029,0.000806808,0.007432938,0,
00:03.5,0.002620697,0.000801086,0.007415771,0,
00:03.5,0.002626419,0.000795364,0.007450104,0,
00:03.5,0.002677917,0.000806808,0.007450104,0,
00:03.5,0.00268364,0.000829697,0.00743866,0,
00:03.5,0.00268364,0.000835419,0.007432938,0,
00:03.5,0.002672195,0.000823975,0.007432938,0,
00:03.5,0.002695084,0.000858307,0.00743866,0,
00:03.5,0.002700806,0.000864029,0.007404327,0,
00:03.5,0.002655029,0.000812531,0.007387161,0,
00:03.5,0.002666473,0.000823975,0.007415771,0,
00:03.6,0.002655029,0.000801086,0.00746727,0,
00:03.6,0.002660751,0.000818253,0.00743866,0,
00:03.6,0.002666473,0.000829697,0.007432938,0,
00:03.6,0.002666473,0.000823975,0.007421494,0,
00:03.6,0.002660751,0.000818253,0.007427216,0,
00:03.6,0.002672195,0.000829697,0.007444382,0,
00:03.6,0.002666473,0.000823975,0.007421494,0,
00:03.6,0.002660751,0.000823975,0.007421494,0,
00:03.6,0.002666473,0.000829697,0.007432938,0,
00:03.6,0.002649307,0.000806808,0.007427216,0,
00:03.6,0.002655029,0.000823975,0.007432938,0,
00:03.6,0.002677917,0.000835419,0.007427216,0,
00:03.6,0.002666473,0.000823975,0.007427216,0,
00:03.6,0.002672195,0.000841141,0.007444382,0,
00:03.6,0.002666473,0.000869751,0.007421494,0,
00:03.6,0.002660751,0.000829697,0.00743866,0,
00:03.6,0.002672195,0.000835419,0.007404327,0,
00:03.6,0.002666473,0.000806808,0.007432938,0,
00:03.6,0.002660751,0.000806808,0.00743866,0,
00:03.6,0.002655029,0.000812531,0.007450104,0,
00:03.6,0.00268364,0.000835419,0.007432938,0,
00:03.6,0.002672195,0.000823975,0.007427216,0,
00:03.6,0.002672195,0.000841141,0.007421494,0,
00:03.6,0.002672195,0.000858307,0.007421494,0,
00:03.6,0.002666473,0.000823975,0.007432938,0,
00:03.7,0.002666473,0.000823975,0.007421494,0,
00:03.7,0.002660751,0.000823975,0.007432938,0,
00:03.7,0.002672195,0.000829697,0.007410049,0,
00:03.7,0.002666473,0.000835419,0.007432938,0,
00:03.7,0.002672195,0.000846863,0.00743866,0,
00:03.7,0.002672195,0.000829697,0.007432938,0,
00:03.7,0.002655029,0.000835419,0.00743866,0,
00:03.7,0.002655029,0.000841141,0.007398605,0,
00:03.7,0.002643585,0.000818253,0.007415771,0,
00:03.7,0.002666473,0.000829697,0.007432938,0,
00:03.7,0.002689362,0.000846863,0.007410049,0,
00:03.7,0.002677917,0.000846863,0.007432938,0,
00:03.7,0.002643585,0.000835419,0.007444382,0,
00:03.7,0.002632141,0.000806808,0.007427216,0,
00:03.7,0.002672195,0.000875473,0.007398605,0,
00:03.7,0.002706528,0.000841141,0.007444382,0,
00:03.7,0.002660751,0.000812531,0.007415771,0,
00:03.7,0.00271225,0.000864029,0.007398605,0,
00:03.7,0.002672195,0.000823975,0.00743866,0,
00:03.7,0.002655029,0.000818253,0.007432938,0,
00:03.7,0.002672195,0.000829697,0.007421494,0,
00:03.7,0.002672195,0.000829697,0.007415771,0,
00:03.7,0.002672195,0.000835419,0.007398605,0,
00:03.7,0.002677917,0.000846863,0.007392883,0,
00:03.7,0.002660751,0.000823975,0.007410049,0,
00:03.8,0.002672195,0.000829697,0.007387161,0,
00:03.8,0.002677917,0.000835419,0.007421494,0,
00:03.8,0.002677917,0.000829697,0.007444382,0,
00:03.8,0.00268364,0.000835419,0.007427216,0,
00:03.8,0.002672195,0.000835419,0.007415771,0,
00:03.8,0.002689362,0.000852585,0.007415771,0,
00:03.8,0.00268364,0.000846863,0.007410049,0,
00:03.8,0.002660751,0.000818253,0.007410049,0,
00:03.8,0.002672195,0.000835419,0.007415771,0,
00:03.8,0.002649307,0.000818253,0.007404327,0,
00:03.8,0.002643585,0.000823975,0.007415771,0,
00:03.8,0.002649307,0.000818253,0.007427216,0,
00:03.8,0.00268364,0.000829697,0.007427216,0,
00:03.8,0.002677917,0.000823975,0.007410049,0,
00:03.8,0.00268364,0.000841141,0.007410049,0,
00:03.8,0.00268364,0.000841141,0.007404327,0,
00:03.8,0.002695084,0.000858307,0.007387161,0,
00:03.8,0.002700806,0.000864029,0.007398605,0,
00:03.8,0.002660751,0.000818253,0.007415771,0,
00:03.8,0.002666473,0.000812531,0.007410049,0,
00:03.8,0.002660751,0.000818253,0.007410049,0,
00:03.8,0.002677917,0.000835419,0.007421494,0,
00:03.8,0.002677917,0.000841141,0.007415771,0,
00:03.8,0.002677917,0.000835419,0.007392883,0,
00:03.8,0.002672195,0.000835419,0.007387161,0,
00:03.9,0.00268364,0.000846863,0.007398605,0,
00:03.9,0.002689362,0.000846863,0.007404327,0,
00:03.9,0.002677917,0.000835419,0.007415771,0,
00:03.9,0.002666473,0.000835419,0.007415771,0,
00:03.9,0.002672195,0.000835419,0.007421494,0,
00:03.9,0.002655029,0.000829697,0.007421494,0,
00:03.9,0.002643585,0.000835419,0.007415771,0,
00:03.9,0.002637863,0.000806808,0.007392883,0,
00:03.9,0.002700806,0.000852585,0.007358551,0,
00:03.9,0.002700806,0.000864029,0.007392883,0,
00:03.9,0.002672195,0.000829697,0.007404327,0,
00:03.9,0.002672195,0.000823975,0.007421494,0,
00:03.9,0.00268364,0.000841141,0.007398605,0,
00:03.9,0.002677917,0.000846863,0.007404327,0,
00:03.9,0.002677917,0.000835419,0.007415771,0,
00:03.9,0.002677917,0.000829697,0.007404327,0,
00:03.9,0.00268364,0.000841141,0.007415771,0,
00:03.9,0.002677917,0.000835419,0.007392883,0,
00:03.9,0.002666473,0.000841141,0.007410049,0,
00:03.9,0.002677917,0.000846863,0.007404327,0,
00:03.9,0.002677917,0.000835419,0.007375717,0,
00:03.9,0.002672195,0.000823975,0.007415771,0,
00:03.9,0.00268364,0.000841141,0.007427216,0,
00:03.9,0.002672195,0.000846863,0.007404327,0,
00:03.9,0.002689362,0.000846863,0.007392883,0,
00:04.0,0.002666473,0.000823975,0.007404327,0,
00:04.0,0.002643585,0.000801086,0.007387161,0,
00:04.0,0.002655029,0.000846863,0.007392883,0,
00:04.0,0.002672195,0.000858307,0.007398605,0,
00:04.0,0.002689362,0.000823975,0.007421494,0,
00:04.0,0.00268364,0.000846863,0.007392883,0,
00:04.0,0.002677917,0.000841141,0.007410049,0,
00:04.0,0.002655029,0.000835419,0.007415771,0,
00:04.0,0.002677917,0.000829697,0.007415771,0,
00:04.0,0.00268364,0.000846863,0.007410049,0,
00:04.0,0.00268364,0.000846863,0.007404327,0,
00:04.0,0.00268364,0.000852585,0.007381439,0,
00:00:04,0.00268364,0.000846863,0.007369995,0,
00:04.0,0.002672195,0.000835419,0.007415771,0,
00:04.0,0.002672195,0.000829697,0.007415771,0,
00:04.0,0.002677917,0.000841141,0.007398605,0,
00:04.0,0.002672195,0.000835419,0.007404327,0,
00:04.0,0.00268364,0.000852585,0.007398605,0,
00:04.0,0.002672195,0.000846863,0.007398605,0,
00:04.0,0.002677917,0.000841141,0.007404327,0,
00:04.0,0.002672195,0.000846863,0.007421494,0,
00:04.0,0.002655029,0.000823975,0.007364273,0,
00:04.0,0.002620697,0.000812531,0.007415771,0,
00:04.0,0.00268364,0.000846863,0.007415771,0,
00:04.0,0.002666473,0.000841141,0.007421494,0,
00:04.1,0.00268364,0.000841141,0.007398605,0,
00:04.1,0.002677917,0.000835419,0.007415771,0,
00:04.1,0.002695084,0.000852585,0.007398605,0,
00:04.1,0.002695084,0.000852585,0.007404327,0,
00:04.1,0.002666473,0.000841141,0.007415771,0,
00:04.1,0.002677917,0.000846863,0.007387161,0,
00:04.1,0.00268364,0.000846863,0.007404327,0,
00:04.1,0.002689362,0.000852585,0.007404327,0,
00:04.1,0.002677917,0.000841141,0.007410049,0,
00:04.1,0.002672195,0.000835419,0.007410049,0,
00:04.1,0.002677917,0.000841141,0.007387161,0,
00:04.1,0.002672195,0.000841141,0.007398605,0,
00:04.1,0.002672195,0.000835419,0.007410049,0,
00:04.1,0.002672195,0.000841141,0.007404327,0,
00:04.1,0.002677917,0.000841141,0.007404327,0,
00:04.1,0.002672195,0.000841141,0.007404327,0,
00:04.1,0.002672195,0.000841141,0.007375717,0,
00:04.1,0.002660751,0.000846863,0.007364273,0,
00:04.1,0.00268364,0.000881195,0.007398605,0,
00:04.1,0.002666473,0.000841141,0.007404327,0,
00:04.1,0.002666473,0.000835419,0.007421494,0,
00:04.1,0.002689362,0.000858307,0.007421494,0,
00:04.1,0.002677917,0.000835419,0.007410049,0,
00:04.1,0.002672195,0.000835419,0.007398605,0,
00:04.1,0.002672195,0.000841141,0.007404327,0,
00:04.2,0.002672195,0.000846863,0.007410049,0,
00:04.2,0.002700806,0.000858307,0.007404327,0,
00:04.2,0.002672195,0.000835419,0.007404327,0,
00:04.2,0.002643585,0.000835419,0.007415771,0,
00:04.2,0.002666473,0.000841141,0.007410049,0,
00:04.2,0.002700806,0.000864029,0.007410049,0,
00:04.2,0.002689362,0.000864029,0.007392883,0,
00:04.2,0.002677917,0.000846863,0.007392883,0,
00:04.2,0.002677917,0.000852585,0.007398605,0,
00:04.2,0.002672195,0.000846863,0.007404327,0,
00:04.2,0.002672195,0.000835419,0.007410049,0,
00:04.2,0.002677917,0.000858307,0.007404327,0,
00:04.2,0.002677917,0.000852585,0.007375717,0,
00:04.2,0.002677917,0.000841141,0.007392883,0,
00:04.2,0.002672195,0.000846863,0.007404327,0,
00:04.2,0.002689362,0.000864029,0.007392883,0,
00:04.2,0.002672195,0.000852585,0.007387161,0,
00:04.2,0.002655029,0.000858307,0.007421494,0,
00:04.2,0.002643585,0.000835419,0.007392883,0,
00:04.2,0.00268364,0.000864029,0.007392883,0,
00:04.2,0.002666473,0.000846863,0.007387161,0,
00:04.2,0.002660751,0.000852585,0.007381439,0,
00:04.2,0.002689362,0.000852585,0.007410049,0,
00:04.2,0.002649307,0.000829697,0.007410049,0,
00:04.2,0.002677917,0.000858307,0.007415771,0,
00:04.3,0.002672195,0.000846863,0.007392883,0,
00:04.3,0.00268364,0.000852585,0.007387161,0,
00:04.3,0.00268364,0.000858307,0.007369995,0,
00:04.3,0.002677917,0.000846863,0.007381439,0,
00:04.3,0.00268364,0.000864029,0.007415771,0,
00:04.3,0.002672195,0.000858307,0.007398605,0,
00:04.3,0.002689362,0.000869751,0.007381439,0,
00:04.3,0.002677917,0.000858307,0.007392883,0,
00:04.3,0.002660751,0.000841141,0.007398605,0,
00:04.3,0.002637863,0.000846863,0.007398605,0,
00:04.3,0.002655029,0.000852585,0.007398605,0,
00:04.3,0.002677917,0.000858307,0.007381439,0,
00:04.3,0.002672195,0.000846863,0.007387161,0,
00:04.3,0.002649307,0.000852585,0.007410049,0,
00:04.3,0.002643585,0.000852585,0.007404327,0,
00:04.3,0.002672195,0.000875473,0.007398605,0,
00:04.3,0.002655029,0.000846863,0.007375717,0,
00:04.3,0.002695084,0.000846863,0.007392883,0,
00:04.3,0.00268364,0.000852585,0.007398605,0,
00:04.3,0.002700806,0.000875473,0.007392883,0,
00:04.3,0.002706528,0.000881195,0.007392883,0,
00:04.3,0.002666473,0.000841141,0.007358551,0,
00:04.3,0.002666473,0.000841141,0.007404327,0,
00:04.3,0.002672195,0.000852585,0.007404327,0,
00:04.3,0.002677917,0.000858307,0.007381439,0,
00:04.4,0.002666473,0.000846863,0.007387161,0,
00:04.4,0.002666473,0.000846863,0.007392883,0,
00:04.4,0.002655029,0.000846863,0.007392883,0,
00:04.4,0.002672195,0.000858307,0.007392883,0,
00:04.4,0.002649307,0.000829697,0.007392883,0,
00:04.4,0.002706528,0.000881195,0.007364273,0,
00:04.4,0.002695084,0.000875473,0.007392883,0,
00:04.4,0.002666473,0.000846863,0.007387161,0,
00:04.4,0.002666473,0.000858307,0.007387161,0,
00:04.4,0.002677917,0.000858307,0.007375717,0,
00:04.4,0.002660751,0.000841141,0.007392883,0,
00:04.4,0.002672195,0.000852585,0.007404327,0,
00:04.4,0.002689362,0.000858307,0.007387161,0,
00:04.4,0.002677917,0.000852585,0.007392883,0,
00:04.4,0.002677917,0.000852585,0.007387161,0,
00:04.4,0.002677917,0.000864029,0.007352829,0,
00:04.4,0.002689362,0.000886917,0.007352829,0,
00:04.4,0.00268364,0.000864029,0.007410049,0,
00:04.4,0.002649307,0.000841141,0.007392883,0,
00:04.4,0.002666473,0.000846863,0.007387161,0,
00:04.4,0.002689362,0.000858307,0.007381439,0,
00:04.4,0.002677917,0.000858307,0.007369995,0,
00:04.4,0.00268364,0.000869751,0.007381439,0,
00:04.4,0.002672195,0.000864029,0.007392883,0,
00:04.4,0.002672195,0.000858307,0.007392883,0,
00:04.5,0.002660751,0.000835419,0.007381439,0,
00:04.5,0.002626419,0.000818253,0.007415771,0,
00:04.5,0.002655029,0.000852585,0.007404327,0,
00:04.5,0.002689362,0.000869751,0.007392883,0,
00:04.5,0.002677917,0.000858307,0.007387161,0,
00:04.5,0.002689362,0.000858307,0.007392883,0,
00:04.5,0.00268364,0.000858307,0.007381439,0,
00:04.5,0.00268364,0.000858307,0.007369995,0,
00:04.5,0.002672195,0.000846863,0.007398605,0,
00:04.5,0.002660751,0.000835419,0.007387161,0,
00:04.5,0.002677917,0.000864029,0.007404327,0,
00:04.5,0.002672195,0.000864029,0.007381439,0,
00:04.5,0.002677917,0.000858307,0.007392883,0,
00:04.5,0.00268364,0.000864029,0.007381439,0,
00:04.5,0.00268364,0.000869751,0.007387161,0,
00:04.5,0.002677917,0.000852585,0.007398605,0,
00:04.5,0.002660751,0.000835419,0.007387161,0,
00:04.5,0.002660751,0.000846863,0.007375717,0,
00:04.5,0.00268364,0.000869751,0.007369995,0,
00:04.5,0.002695084,0.000881195,0.007381439,0,
00:04.5,0.002672195,0.000858307,0.007398605,0,
00:04.5,0.002677917,0.000852585,0.007392883,0,
00:04.5,0.002649307,0.000846863,0.007369995,0,
00:04.5,0.002672195,0.000858307,0.007404327,0,
00:04.5,0.00268364,0.000869751,0.007398605,0,
00:04.6,0.002655029,0.000846863,0.007387161,0,
00:04.6,0.002666473,0.000841141,0.007392883,0,
00:04.6,0.002689362,0.000869751,0.007404327,0,
00:04.6,0.002677917,0.000858307,0.007387161,0,
00:04.6,0.002672195,0.000846863,0.007387161,0,
00:04.6,0.002677917,0.000858307,0.007369995,0,
00:04.6,0.00268364,0.000864029,0.007410049,0,
00:04.6,0.00268364,0.000864029,0.007404327,0,
00:04.6,0.002677917,0.000852585,0.007387161,0,
00:04.6,0.00268364,0.000864029,0.007381439,0,
00:04.6,0.002677917,0.000864029,0.007381439,0,
00:04.6,0.00268364,0.000858307,0.007381439,0,
00:04.6,0.002666473,0.000841141,0.007392883,0,
00:04.6,0.002677917,0.000852585,0.007398605,0,
00:04.6,0.00268364,0.000875473,0.007381439,0,
00:04.6,0.00268364,0.000875473,0.007381439,0,
00:04.6,0.002677917,0.000858307,0.007387161,0,
00:04.6,0.002666473,0.000841141,0.007387161,0,
00:04.6,0.00268364,0.000869751,0.007381439,0,
00:04.6,0.002677917,0.000869751,0.007392883,0,
00:04.6,0.002672195,0.000852585,0.007381439,0,
00:04.6,0.002655029,0.000841141,0.007375717,0,
00:04.6,0.002666473,0.000841141,0.007410049,0,
00:04.6,0.002672195,0.000852585,0.007392883,0,
00:04.6,0.002672195,0.000869751,0.007392883,0,
00:04.7,0.002643585,0.000835419,0.007392883,0,
00:04.7,0.002689362,0.000869751,0.007375717,0,
00:04.7,0.002689362,0.000858307,0.007364273,0,
00:04.7,0.00268364,0.000852585,0.007387161,0,
00:04.7,0.002677917,0.000864029,0.007404327,0,
00:04.7,0.002672195,0.000858307,0.007404327,0,
00:04.7,0.00268364,0.000858307,0.007381439,0,
00:04.7,0.002672195,0.000858307,0.007398605,0,
00:04.7,0.002672195,0.000852585,0.007404327,0,
00:04.7,0.002660751,0.000835419,0.007369995,0,
00:04.7,0.002677917,0.000858307,0.007381439,0,
00:04.7,0.00268364,0.000858307,0.007381439,0,
00:04.7,0.002677917,0.000858307,0.007392883,0,
00:04.7,0.002672195,0.000858307,0.007392883,0,
00:04.7,0.002666473,0.000846863,0.007381439,0,
00:04.7,0.002672195,0.000852585,0.007381439,0,
00:04.7,0.002689362,0.000869751,0.007375717,0,
00:04.7,0.002660751,0.000846863,0.007410049,0,
00:04.7,0.002689362,0.000875473,0.007381439,0,
00:04.7,0.002689362,0.000864029,0.007381439,0,
00:04.7,0.002666473,0.000864029,0.007381439,0,
00:04.7,0.00268364,0.000852585,0.007347107,0,
00:04.7,0.002660751,0.000846863,0.007375717,0,
00:04.7,0.002660751,0.000858307,0.007404327,0,
00:04.7,0.002672195,0.000852585,0.007392883,0,
00:04.8,0.002677917,0.000858307,0.007398605,0,
00:04.8,0.002666473,0.000852585,0.007392883,0,
00:04.8,0.002672195,0.000852585,0.007387161,0,
00:04.8,0.002677917,0.000864029,0.007369995,0,
00:04.8,0.00268364,0.000864029,0.007392883,0,
00:04.8,0.002672195,0.000852585,0.007387161,0,
00:04.8,0.002666473,0.000864029,0.007381439,0,
00:04.8,0.002677917,0.000875473,0.007364273,0,
00:04.8,0.002672195,0.000852585,0.007352829,0,
00:04.8,0.002672195,0.000858307,0.007364273,0,
00:04.8,0.002666473,0.000858307,0.007404327,0,
00:04.8,0.00268364,0.000869751,0.007387161,0,
00:04.8,0.00268364,0.000864029,0.007387161,0,
00:04.8,0.00268364,0.000864029,0.007369995,0,
00:04.8,0.002677917,0.000858307,0.007375717,0,
00:04.8,0.002666473,0.000858307,0.007392883,0,
00:04.8,0.002660751,0.000858307,0.007387161,0,
00:04.8,0.002672195,0.000858307,0.007387161,0,
00:04.8,0.002677917,0.000858307,0.007375717,0,
00:04.8,0.002655029,0.000846863,0.007369995,0,
00:04.8,0.002643585,0.000858307,0.007387161,0,
00:04.8,0.00268364,0.000869751,0.007392883,0,
00:04.8,0.002700806,0.000875473,0.007375717,0,
00:04.8,0.00268364,0.000869751,0.007369995,0,
00:04.8,0.002672195,0.000869751,0.007375717,0,
00:04.9,0.00268364,0.000864029,0.007387161,0,
00:04.9,0.002660751,0.000846863,0.007392883,0,
00:04.9,0.002666473,0.000858307,0.007369995,0,
00:04.9,0.002666473,0.000852585,0.007358551,0,
00:04.9,0.002672195,0.000869751,0.007392883,0,
00:04.9,0.002700806,0.000886917,0.007375717,0,
00:04.9,0.00268364,0.000852585,0.007375717,0,
00:04.9,0.002672195,0.000858307,0.007381439,0,
00:04.9,0.002677917,0.000858307,0.007387161,0,
00:04.9,0.002677917,0.000864029,0.007381439,0,
00:04.9,0.00268364,0.000864029,0.007375717,0,
00:04.9,0.00268364,0.000869751,0.007381439,0,
00:04.9,0.00268364,0.000869751,0.007381439,0,
00:04.9,0.002672195,0.000864029,0.007375717,0,
00:04.9,0.002672195,0.000858307,0.007375717,0,
00:04.9,0.002672195,0.000852585,0.007369995,0,
00:04.9,0.002672195,0.000864029,0.007375717,0,
00:04.9,0.002666473,0.000852585,0.007392883,0,
00:04.9,0.002666473,0.000858307,0.007381439,0,
00:04.9,0.002643585,0.000852585,0.007369995,0,
00:04.9,0.002666473,0.000869751,0.007352829,0,
00:04.9,0.002689362,0.000864029,0.007387161,0,
00:04.9,0.002700806,0.000892639,0.007392883,0,
00:04.9,0.002689362,0.000875473,0.007392883,0,
00:04.9,0.002672195,0.000858307,0.007392883,0,
00:05.0,0.002672195,0.000858307,0.007375717,0,
00:05.0,0.002672195,0.000875473,0.007381439,0,
00:05.0,0.002672195,0.000869751,0.007381439,0,
00:05.0,0.002672195,0.000858307,0.007381439,0,
00:05.0,0.002672195,0.000864029,0.007387161,0,
00:05.0,0.002677917,0.000869751,0.007381439,0,
00:05.0,0.002677917,0.000869751,0.007375717,0,
00:05.0,0.002672195,0.000858307,0.007381439,0,
00:05.0,0.002677917,0.000864029,0.007369995,0,
00:05.0,0.002672195,0.000864029,0.007381439,0,
00:05.0,0.002666473,0.000864029,0.007375717,0,
00:05.0,0.00268364,0.000869751,0.007392883,0,
00:00:05,0.00268364,0.000881195,0.007369995,0,
00:05.0,0.002689362,0.000875473,0.007381439,0,
00:05.0,0.002649307,0.000835419,0.007369995,0,
00:05.0,0.002649307,0.000852585,0.007392883,0,
00:05.0,0.002672195,0.000869751,0.007398605,0,
00:05.0,0.002689362,0.000875473,0.007387161,0,
00:05.0,0.002666473,0.000864029,0.007404327,0,
00:05.0,0.002660751,0.000858307,0.007387161,0,
00:05.0,0.002677917,0.000858307,0.007381439,0,
00:05.0,0.002672195,0.000858307,0.007364273,0,
00:05.0,0.002677917,0.000869751,0.007369995,0,
00:05.0,0.00268364,0.000875473,0.007375717,0,
00:05.0,0.002672195,0.000864029,0.007392883,0,
00:05.1,0.002666473,0.000852585,0.007381439,0,
00:05.1,0.00268364,0.000869751,0.007381439,0,
00:05.1,0.002689362,0.000881195,0.007369995,0,
00:05.1,0.00268364,0.000869751,0.007392883,0,
00:05.1,0.002666473,0.000846863,0.007387161,0,
00:05.1,0.002672195,0.000858307,0.007364273,0,
00:05.1,0.002677917,0.000869751,0.007369995,0,
00:05.1,0.002677917,0.000858307,0.007375717,0,
00:05.1,0.00268364,0.000875473,0.007375717,0,
00:05.1,0.002672195,0.000864029,0.007381439,0,
00:05.1,0.002677917,0.000869751,0.007387161,0,
00:05.1,0.002695084,0.000881195,0.007387161,0,
00:05.1,0.002672195,0.000846863,0.007387161,0,
00:05.1,0.002655029,0.000858307,0.007364273,0,
00:05.1,0.002655029,0.000869751,0.007387161,0,
00:05.1,0.002677917,0.000858307,0.007387161,0,
00:05.1,0.002655029,0.000864029,0.007392883,0,
00:05.1,0.002660751,0.000852585,0.007398605,0,
00:05.1,0.002677917,0.000858307,0.007387161,0,
00:05.1,0.002695084,0.000869751,0.007375717,0,
00:05.1,0.002689362,0.000864029,0.007387161,0,
00:05.1,0.002672195,0.000858307,0.007375717,0,
00:05.1,0.002677917,0.000864029,0.007387161,0,
00:05.1,0.002677917,0.000864029,0.007364273,0,
00:05.1,0.002666473,0.000852585,0.007398605,0,
00:05.2,0.002672195,0.000869751,0.007398605,0,
00:05.2,0.002689362,0.000881195,0.007358551,0,
00:05.2,0.002677917,0.000852585,0.007381439,0,
00:05.2,0.002689362,0.000869751,0.007381439,0,
00:05.2,0.002706528,0.000892639,0.007358551,0,
00:05.2,0.002666473,0.000852585,0.007381439,0,
00:05.2,0.002672195,0.000846863,0.007410049,0,
00:05.2,0.002672195,0.000864029,0.007392883,0,
00:05.2,0.002666473,0.000869751,0.007375717,0,
00:05.2,0.002643585,0.000852585,0.007352829,0,
00:05.2,0.002637863,0.000841141,0.007375717,0,
00:05.2,0.00268364,0.000875473,0.007410049,0,
00:05.2,0.00268364,0.000858307,0.007398605,0,
00:05.2,0.002666473,0.000841141,0.007381439,0,
00:05.2,0.002689362,0.000864029,0.007369995,0,
00:05.2,0.002677917,0.000869751,0.007404327,0,
00:05.2,0.002689362,0.000869751,0.007375717,0,
00:05.2,0.00268364,0.000869751,0.007392883,0,
00:05.2,0.00268364,0.000864029,0.007387161,0,
00:05.2,0.002672195,0.000858307,0.007387161,0,
00:05.2,0.002666473,0.000858307,0.007369995,0,
00:05.2,0.00268364,0.000864029,0.007392883,0,
00:05.2,0.002677917,0.000858307,0.007387161,0,
00:05.2,0.002677917,0.000858307,0.007387161,0,
00:05.2,0.002677917,0.000852585,0.007392883,0,
00:05.3,0.002677917,0.000858307,0.007387161,0,
00:05.3,0.00268364,0.000881195,0.007375717,0,
00:05.3,0.002672195,0.000858307,0.007364273,0,
00:05.3,0.002700806,0.000875473,0.007364273,0,
00:05.3,0.002660751,0.000852585,0.007369995,0,
00:05.3,0.002660751,0.000852585,0.007392883,0,
00:05.3,0.002677917,0.000864029,0.007381439,0,
00:05.3,0.002643585,0.000841141,0.007369995,0,
00:05.3,0.002672195,0.000852585,0.007381439,0,
00:05.3,0.00268364,0.000864029,0.007404327,0,
00:05.3,0.002677917,0.000864029,0.007404327,0,
00:05.3,0.00268364,0.000858307,0.007369995,0,
00:05.3,0.002677917,0.000846863,0.007381439,0,
00:05.3,0.002677917,0.000852585,0.007381439,0,
00:05.3,0.00268364,0.000869751,0.007387161,0,
00:05.3,0.002677917,0.000864029,0.007404327,0,
00:05.3,0.00268364,0.000864029,0.007381439,0,
00:05.3,0.002677917,0.000852585,0.007381439,0,
00:05.3,0.002666473,0.000846863,0.007387161,0,
00:05.3,0.002672195,0.000852585,0.007387161,0,
00:05.3,0.002677917,0.000864029,0.007369995,0,
00:05.3,0.002689362,0.000881195,0.007381439,0,
00:05.3,0.002677917,0.000864029,0.007369995,0,
00:05.3,0.002660751,0.000846863,0.007387161,0,
00:05.3,0.002672195,0.000864029,0.007392883,0,
00:05.4,0.002672195,0.000858307,0.007392883,0,
00:05.4,0.002660751,0.000846863,0.007375717,0,
00:05.4,0.002655029,0.000841141,0.007369995,0,
00:05.4,0.002666473,0.000858307,0.007381439,0,
00:05.4,0.002666473,0.000858307,0.007410049,0,
00:05.4,0.002655029,0.000846863,0.007387161,0,
00:05.4,0.002655029,0.000846863,0.007381439,0,
00:05.4,0.002689362,0.000869751,0.007375717,0,
00:05.4,0.002689362,0.000869751,0.007398605,0,
00:05.4,0.00268364,0.000858307,0.007398605,0,
00:05.4,0.002672195,0.000869751,0.007375717,0,
00:05.4,0.002672195,0.000864029,0.007381439,0,
00:05.4,0.002666473,0.000846863,0.007364273,0,
00:05.4,0.002672195,0.000858307,0.007364273,0,
00:05.4,0.002666473,0.000852585,0.007381439,0,
00:05.4,0.002666473,0.000846863,0.007398605,0,
00:05.4,0.002672195,0.000852585,0.007398605,0,
00:05.4,0.00268364,0.000875473,0.007398605,0,
00:05.4,0.00268364,0.000881195,0.007392883,0,
00:05.4,0.002655029,0.000841141,0.007387161,0,
00:05.4,0.002666473,0.000852585,0.007392883,0,
00:05.4,0.002672195,0.000852585,0.007375717,0,
00:05.4,0.002660751,0.000858307,0.007381439,0,
00:05.4,0.002666473,0.000858307,0.007392883,0,
00:05.4,0.002655029,0.000852585,0.007387161,0,
00:05.5,0.002655029,0.000858307,0.007392883,0,
00:05.5,0.002677917,0.000864029,0.007398605,0,
00:05.5,0.002672195,0.000869751,0.007375717,0,
00:05.5,0.002677917,0.000846863,0.007375717,0,
00:05.5,0.002666473,0.000852585,0.007392883,0,
00:05.5,0.002666473,0.000858307,0.007392883,0,
00:05.5,0.002672195,0.000841141,0.007398605,0,
00:05.5,0.002677917,0.000858307,0.007381439,0,
00:05.5,0.00268364,0.000858307,0.007410049,0,
00:05.5,0.002677917,0.000852585,0.007404327,0,
00:05.5,0.002677917,0.000869751,0.007410049,0,
00:05.5,0.002672195,0.000852585,0.007381439,0,
00:05.5,0.002655029,0.000829697,0.007375717,0,
00:05.5,0.002672195,0.000846863,0.007392883,0,
00:05.5,0.002672195,0.000846863,0.007404327,0,
00:05.5,0.002672195,0.000846863,0.007387161,0,
00:05.5,0.002677917,0.000852585,0.007387161,0,
00:05.5,0.002672195,0.000858307,0.007392883,0,
00:05.5,0.002672195,0.000858307,0.007387161,0,
00:05.5,0.002672195,0.000858307,0.007381439,0,
00:05.5,0.002672195,0.000852585,0.007375717,0,
00:05.5,0.002660751,0.000852585,0.007387161,0,
00:05.5,0.002677917,0.000852585,0.007381439,0,
00:05.5,0.002672195,0.000841141,0.007387161,0,
00:05.5,0.002660751,0.000829697,0.007392883,0,
00:05.6,0.002655029,0.000841141,0.007404327,0,
00:05.6,0.002660751,0.000852585,0.007398605,0,
00:05.6,0.002677917,0.000858307,0.007381439,0,
00:05.6,0.002672195,0.000852585,0.007404327,0,
00:05.6,0.002677917,0.000858307,0.007375717,0,
00:05.6,0.002672195,0.000846863,0.007375717,0,
00:05.6,0.002672195,0.000846863,0.007410049,0,
00:05.6,0.002672195,0.000846863,0.007410049,0,
00:05.6,0.002677917,0.000864029,0.007392883,0,
00:05.6,0.002672195,0.000858307,0.007404327,0,
00:05.6,0.002660751,0.000835419,0.007398605,0,
00:05.6,0.002677917,0.000852585,0.007381439,0,
00:05.6,0.002672195,0.000852585,0.007410049,0,
00:05.6,0.002672195,0.000852585,0.007392883,0,
00:05.6,0.002666473,0.000852585,0.007358551,0,
00:05.6,0.002643585,0.000835419,0.007387161,0,
00:05.6,0.002649307,0.000841141,0.007398605,0,
00:05.6,0.002660751,0.000841141,0.007415771,0,
00:05.6,0.002677917,0.000858307,0.007410049,0,
00:05.6,0.002666473,0.000846863,0.007392883,0,
00:05.6,0.002655029,0.000841141,0.007398605,0,
00:05.6,0.00268364,0.000864029,0.007404327,0,
00:05.6,0.002672195,0.000852585,0.007398605,0,
00:05.6,0.002677917,0.000858307,0.007392883,0,
00:05.6,0.00268364,0.000858307,0.007358551,0,
00:05.7,0.002689362,0.000869751,0.007398605,0,
00:05.7,0.002672195,0.000852585,0.007410049,0,
00:05.7,0.002660751,0.000829697,0.007398605,0,
00:05.7,0.002666473,0.000841141,0.007392883,0,
00:05.7,0.002660751,0.000846863,0.007387161,0,
00:05.7,0.002666473,0.000858307,0.007381439,0,
00:05.7,0.002672195,0.000852585,0.007392883,0,
00:05.7,0.002666473,0.000841141,0.007404327,0,
00:05.7,0.002660751,0.000846863,0.007410049,0,
00:05.7,0.002666473,0.000846863,0.007410049,0,
00:05.7,0.002666473,0.000852585,0.007398605,0,
00:05.7,0.002677917,0.000852585,0.007398605,0,
00:05.7,0.002666473,0.000846863,0.007387161,0,
00:05.7,0.002637863,0.000835419,0.007392883,0,
00:05.7,0.002626419,0.000841141,0.007427216,0,
00:05.7,0.002666473,0.000864029,0.007387161,0,
00:05.7,0.002689362,0.000858307,0.007369995,0,
00:05.7,0.002695084,0.000869751,0.007415771,0,
00:05.7,0.002677917,0.000864029,0.007392883,0,
00:05.7,0.002666473,0.000852585,0.007415771,0,
00:05.7,0.002660751,0.000846863,0.007410049,0,
00:05.7,0.002666473,0.000846863,0.007404327,0,
00:05.7,0.002666473,0.000852585,0.007398605,0,
00:05.7,0.002666473,0.000852585,0.007404327,0,
00:05.7,0.002666473,0.000864029,0.007398605,0,
00:05.8,0.002649307,0.000852585,0.007398605,0,
00:05.8,0.00268364,0.000864029,0.007404327,0,
00:05.8,0.002689362,0.000875473,0.007392883,0,
00:05.8,0.002666473,0.000875473,0.007398605,0,
00:05.8,0.002672195,0.000869751,0.007404327,0,
00:05.8,0.002655029,0.000835419,0.007410049,0,
00:05.8,0.002660751,0.000841141,0.007410049,0,
00:05.8,0.002666473,0.000852585,0.007410049,0,
00:05.8,0.002649307,0.000852585,0.007369995,0,
00:05.8,0.002632141,0.000835419,0.007375717,0,
00:05.8,0.002655029,0.000846863,0.007415771,0,
00:05.8,0.002660751,0.000864029,0.007404327,0,
00:05.8,0.002672195,0.000869751,0.007410049,0,
00:05.8,0.002689362,0.000869751,0.007404327,0,
00:05.8,0.002660751,0.000852585,0.007392883,0,
00:05.8,0.002660751,0.000858307,0.007415771,0,
00:05.8,0.002672195,0.000858307,0.007421494,0,
00:05.8,0.002672195,0.000864029,0.007410049,0,
00:05.8,0.002672195,0.000869751,0.007404327,0,
00:05.8,0.002672195,0.000869751,0.007404327,0,
00:05.8,0.002660751,0.000864029,0.007404327,0,
00:05.8,0.002660751,0.000858307,0.007398605,0,
00:05.8,0.002672195,0.000875473,0.007398605,0,
00:05.8,0.002666473,0.000858307,0.007415771,0,
00:05.8,0.002666473,0.000864029,0.007415771,0,
00:05.9,0.002666473,0.000864029,0.007398605,0,
00:05.9,0.002666473,0.000864029,0.007398605,0,
00:05.9,0.002672195,0.000864029,0.007410049,0,
00:05.9,0.002660751,0.000869751,0.007369995,0,
00:05.9,0.00268364,0.000881195,0.007410049,0,
00:05.9,0.002666473,0.000858307,0.007404327,0,
00:05.9,0.002672195,0.000864029,0.007432938,0,
00:05.9,0.002666473,0.000858307,0.007410049,0,
00:05.9,0.002666473,0.000864029,0.007415771,0,
00:05.9,0.002660751,0.000864029,0.007427216,0,
00:05.9,0.002649307,0.000852585,0.007415771,0,
00:05.9,0.002666473,0.000858307,0.007415771,0,
00:05.9,0.002672195,0.000852585,0.007415771,0,
00:05.9,0.002666473,0.000858307,0.007404327,0,
00:05.9,0.002637863,0.000864029,0.007415771,0,
00:05.9,0.002666473,0.000858307,0.007432938,0,
00:05.9,0.002689362,0.000875473,0.007421494,0,
00:05.9,0.002666473,0.000869751,0.007421494,0,
00:05.9,0.002677917,0.000869751,0.007410049,0,
00:05.9,0.002677917,0.000875473,0.007404327,0,
00:05.9,0.002672195,0.000864029,0.007421494,0,
00:05.9,0.002660751,0.000869751,0.007427216,0,
00:05.9,0.002649307,0.000864029,0.007421494,0,
00:05.9,0.002672195,0.000858307,0.007432938,0,
00:05.9,0.002672195,0.000869751,0.007421494,0,
00:06.0,0.002666473,0.000875473,0.007415771,0,
00:06.0,0.002660751,0.000852585,0.007432938,0,
00:06.0,0.002677917,0.000864029,0.007432938,0,
00:06.0,0.002672195,0.000869751,0.007427216,0,
00:06.0,0.002677917,0.000881195,0.007427216,0,
00:06.0,0.002666473,0.000875473,0.007415771,0,
00:06.0,0.002660751,0.000869751,0.007404327,0,
00:06.0,0.00268364,0.000869751,0.007427216,0,
00:06.0,0.002672195,0.000864029,0.007444382,0,
00:06.0,0.00268364,0.000875473,0.00743866,0,
00:06.0,0.002666473,0.000864029,0.007444382,0,
00:06.0,0.002672195,0.000858307,0.00743866,0,
00:00:06,0.002666473,0.000869751,0.007415771,0,
00:06.0,0.002666473,0.000875473,0.007415771,0,
00:06.0,0.002677917,0.000881195,0.007461548,0,
00:06.0,0.002655029,0.000858307,0.007427216,0,
00:06.0,0.002666473,0.000858307,0.007455826,0,
00:06.0,0.002677917,0.000875473,0.007450104,0,
00:06.0,0.00268364,0.000875473,0.00743866,0,
00:06.0,0.002672195,0.000864029,0.007444382,0,
00:06.0,0.002672195,0.000869751,0.00743866,0,
00:06.0,0.002672195,0.000875473,0.00743866,0,
00:06.0,0.002672195,0.000875473,0.00743866,0,
00:06.0,0.002672195,0.000886917,0.007432938,0,
00:06.0,0.002677917,0.000881195,0.007421494,0,
00:06.1,0.00268364,0.000881195,0.007450104,0,
00:06.1,0.002689362,0.000886917,0.00746727,0,
00:06.1,0.00268364,0.000881195,0.007432938,0,
00:06.1,0.002666473,0.000869751,0.007444382,0,
00:06.1,0.002655029,0.000864029,0.007461548,0,
00:06.1,0.002660751,0.000875473,0.007450104,0,
00:06.1,0.002666473,0.000881195,0.007444382,0,
00:06.1,0.002672195,0.000892639,0.007450104,0,
00:06.1,0.002677917,0.000892639,0.007432938,0,
00:06.1,0.002689362,0.000898361,0.007455826,0,
00:06.1,0.002695084,0.000898361,0.007432938,0,
00:06.1,0.002655029,0.000869751,0.007450104,0,
00:06.1,0.002660751,0.000881195,0.00746727,0,
00:06.1,0.002672195,0.000886917,0.007450104,0,
00:06.1,0.002649307,0.000881195,0.007432938,0,
00:06.1,0.002626419,0.000864029,0.007455826,0,
00:06.1,0.002689362,0.000886917,0.007450104,0,
00:06.1,0.002689362,0.000881195,0.007461548,0,
00:06.1,0.002672195,0.000892639,0.007484436,0,
00:06.1,0.00268364,0.000886917,0.007455826,0,
00:06.1,0.00268364,0.000892639,0.007455826,0,
00:06.1,0.002672195,0.000886917,0.00746727,0,
00:06.1,0.002666473,0.000881195,0.007444382,0,
00:06.1,0.002666473,0.000886917,0.00743866,0,
00:06.1,0.002672195,0.000886917,0.007472992,0,
00:06.2,0.002672195,0.000886917,0.007472992,0,
00:06.2,0.002672195,0.000892639,0.00746727,0,
00:06.2,0.002677917,0.000915527,0.00746727,0,
00:06.2,0.002666473,0.000909805,0.007444382,0,
00:06.2,0.002672195,0.000886917,0.007444382,0,
00:06.2,0.002655029,0.000886917,0.007484436,0,
00:06.2,0.002660751,0.000892639,0.007484436,0,
00:06.2,0.002643585,0.000881195,0.007450104,0,
00:06.2,0.002632141,0.000875473,0.007461548,0,
00:06.2,0.002689362,0.000915527,0.007490158,0,
00:06.2,0.002677917,0.000915527,0.007501602,0,
00:06.2,0.002672195,0.000898361,0.007472992,0,
00:06.2,0.002660751,0.000904083,0.007472992,0,
00:06.2,0.002672195,0.000892639,0.00746727,0,
00:06.2,0.00268364,0.000909805,0.007478714,0,
00:06.2,0.002672195,0.000904083,0.007478714,0,
00:06.2,0.002672195,0.000904083,0.00746727,0,
00:06.2,0.002689362,0.000926971,0.007455826,0,
00:06.2,0.002677917,0.000915527,0.007444382,0,
00:06.2,0.002666473,0.000909805,0.007472992,0,
00:06.2,0.002666473,0.000904083,0.007490158,0,
00:06.2,0.002666473,0.000915527,0.007507324,0,
00:06.2,0.002660751,0.000909805,0.00749588,0,
00:06.2,0.002660751,0.000892639,0.007501602,0,
00:06.2,0.002672195,0.000921249,0.007501602,0,
00:06.3,0.002666473,0.000909805,0.007461548,0,
00:06.3,0.002672195,0.000915527,0.00746727,0,
00:06.3,0.00268364,0.000921249,0.007501602,0,
00:06.3,0.002672195,0.000909805,0.007484436,0,
00:06.3,0.002677917,0.000926971,0.00749588,0,
00:06.3,0.002666473,0.000909805,0.007507324,0,
00:06.3,0.002655029,0.000904083,0.00749588,0,
00:06.3,0.002632141,0.000909805,0.007507324,0,
00:06.3,0.002672195,0.000909805,0.007490158,0,
00:06.3,0.00268364,0.000921249,0.007484436,0,
00:06.3,0.002672195,0.000921249,0.00749588,0,
00:06.3,0.002666473,0.000926971,0.007490158,0,
00:06.3,0.002660751,0.000921249,0.007513046,0,
00:06.3,0.002660751,0.000915527,0.007484436,0,
00:06.3,0.002672195,0.000915527,0.007507324,0,
00:06.3,0.002677917,0.000932693,0.007507324,0,
00:06.3,0.00268364,0.000938416,0.00749588,0,
00:06.3,0.002672195,0.000921249,0.00749588,0,
00:06.3,0.002666473,0.000921249,0.007507324,0,
00:06.3,0.002677917,0.000944138,0.007535934,0,
00:06.3,0.002672195,0.000932693,0.00752449,0,
00:06.3,0.002666473,0.000921249,0.007518768,0,
00:06.3,0.002672195,0.000932693,0.007513046,0,
00:06.3,0.002677917,0.000938416,0.007484436,0,
00:06.3,0.002666473,0.000926971,0.007513046,0,
00:06.4,0.002660751,0.000932693,0.007535934,0,
00:06.4,0.002666473,0.000932693,0.007501602,0,
00:06.4,0.002672195,0.00094986,0.007541656,0,
00:06.4,0.002660751,0.000926971,0.007507324,0,
00:06.4,0.002689362,0.000961304,0.007535934,0,
00:06.4,0.002677917,0.000944138,0.007513046,0,
00:06.4,0.002649307,0.000926971,0.007530212,0,
00:06.4,0.002666473,0.000938416,0.007547379,0,
00:06.4,0.00268364,0.000955582,0.007507324,0,
00:06.4,0.00268364,0.00094986,0.007478714,0,
00:06.4,0.002666473,0.000932693,0.007553101,0,
00:06.4,0.002677917,0.000944138,0.007564545,0,
00:06.4,0.002672195,0.000932693,0.007518768,0,
00:06.4,0.002666473,0.000938416,0.007513046,0,
00:06.4,0.002666473,0.000938416,0.007547379,0,
00:06.4,0.002672195,0.000944138,0.007541656,0,
00:06.4,0.002677917,0.000955582,0.00752449,0,
00:06.4,0.00268364,0.00097847,0.007535934,0,
00:06.4,0.002695084,0.000972748,0.007513046,0,
00:06.4,0.002660751,0.000926971,0.007513046,0,
00:06.4,0.002655029,0.000944138,0.007547379,0,
00:06.4,0.002643585,0.000938416,0.007541656,0,
00:06.4,0.002649307,0.000932693,0.007558823,0,
00:06.4,0.002672195,0.000944138,0.007530212,0,
00:06.4,0.002666473,0.00094986,0.007541656,0,
00:06.5,0.00268364,0.000972748,0.007575989,0,
00:06.5,0.002666473,0.000955582,0.007535934,0,
00:06.5,0.002677917,0.000961304,0.007553101,0,
00:06.5,0.002689362,0.000961304,0.007558823,0,
00:06.5,0.002672195,0.000955582,0.007541656,0,
00:06.5,0.002666473,0.000955582,0.007535934,0,
00:06.5,0.002689362,0.000984192,0.00752449,0,
00:06.5,0.002689362,0.000967026,0.007541656,0,
00:06.5,0.002666473,0.000955582,0.007553101,0,
00:06.5,0.002677917,0.000961304,0.007558823,0,
00:06.5,0.002672195,0.000955582,0.007535934,0,
00:06.5,0.002672195,0.000961304,0.007558823,0,
00:06.5,0.002677917,0.000967026,0.007558823,0,
00:06.5,0.002672195,0.000967026,0.007558823,0,
00:06.5,0.002677917,0.000967026,0.007564545,0,
00:06.5,0.002672195,0.000967026,0.007564545,0,
00:06.5,0.002660751,0.000967026,0.007553101,0,
00:06.5,0.002672195,0.00097847,0.007541656,0,
00:06.5,0.002672195,0.000961304,0.007558823,0,
00:06.5,0.00268364,0.000972748,0.007553101,0,
00:06.5,0.002672195,0.000972748,0.007575989,0,
00:06.5,0.00268364,0.000972748,0.007558823,0,
00:06.5,0.002677917,0.000961304,0.007575989,0,
00:06.5,0.002672195,0.000967026,0.007575989,0,
00:06.5,0.002666473,0.000972748,0.007553101,0,
00:06.6,0.002666473,0.000984192,0.007547379,0,
00:06.6,0.00268364,0.000995636,0.007575989,0,
00:06.6,0.002689362,0.000984192,0.007570267,0,
00:06.6,0.002695084,0.000972748,0.007570267,0,
00:06.6,0.00271225,0.000995636,0.007593155,0,
00:06.6,0.00268364,0.000972748,0.007535934,0,
00:06.6,0.002672195,0.000967026,0.007564545,0,
00:06.6,0.00268364,0.00097847,0.007587433,0,
00:06.6,0.00268364,0.00097847,0.007593155,0,
00:06.6,0.002677917,0.00097847,0.007575989,0,
00:06.6,0.002677917,0.000984192,0.007570267,0,
00:06.6,0.002655029,0.00097847,0.007581711,0,
00:06.6,0.002660751,0.000989914,0.007575989,0,
00:06.6,0.002700806,0.001018524,0.007547379,0,
00:06.6,0.002700806,0.001001358,0.007541656,0,
00:06.6,0.002723694,0.001024246,0.007581711,0,
00:06.6,0.002677917,0.000972748,0.007598877,0,
00:06.6,0.002672195,0.000972748,0.007587433,0,
00:06.6,0.002677917,0.000984192,0.007598877,0,
00:06.6,0.002689362,0.000995636,0.007587433,0,
00:06.6,0.002689362,0.000995636,0.007581711,0,
00:06.6,0.002660751,0.000984192,0.007581711,0,
00:06.6,0.002689362,0.000995636,0.007581711,0,
00:06.6,0.002689362,0.00100708,0.007547379,0,
00:06.6,0.002677917,0.000995636,0.007587433,0,
00:06.7,0.002695084,0.001001358,0.007604599,0,
00:06.7,0.002695084,0.001001358,0.007575989,0,
00:06.7,0.002706528,0.001024246,0.007593155,0,
00:06.7,0.002723694,0.001047134,0.007593155,0,
00:06.7,0.00271225,0.001029968,0.007558823,0,
00:06.7,0.002689362,0.001012802,0.007587433,0,
00:06.7,0.00268364,0.000984192,0.007581711,0,
00:06.7,0.002666473,0.000989914,0.007593155,0,
00:06.7,0.002649307,0.000984192,0.007604599,0,
00:06.7,0.00268364,0.000995636,0.007593155,0,
00:06.7,0.002700806,0.001018524,0.007581711,0,
00:06.7,0.00271225,0.001024246,0.007581711,0,
00:06.7,0.002706528,0.001018524,0.007587433,0,
00:06.7,0.002695084,0.001012802,0.007587433,0,
00:06.7,0.002695084,0.001024246,0.007593155,0,
00:06.7,0.002700806,0.001024246,0.007587433,0,
00:06.7,0.002695084,0.00103569,0.007547379,0,
00:06.7,0.002706528,0.00103569,0.007541656,0,
00:06.7,0.002706528,0.001001358,0.007587433,0,
00:06.7,0.002700806,0.00100708,0.007621765,0,
00:06.7,0.002689362,0.001001358,0.007604599,0,
00:06.7,0.002700806,0.001018524,0.007587433,0,
00:06.7,0.002700806,0.001018524,0.007593155,0,
00:06.7,0.002700806,0.001012802,0.007593155,0,
00:06.7,0.002706528,0.001024246,0.007598877,0,
00:06.8,0.002700806,0.001029968,0.007598877,0,
00:06.8,0.002677917,0.00100708,0.007593155,0,
00:06.8,0.002689362,0.001024246,0.007593155,0,
00:06.8,0.002706528,0.001024246,0.007587433,0,
00:06.8,0.00271225,0.001029968,0.007575989,0,
00:06.8,0.002706528,0.001024246,0.007575989,0,
00:06.8,0.002706528,0.001029968,0.007575989,0,
00:06.8,0.002706528,0.001029968,0.007593155,0,
00:06.8,0.002706528,0.001047134,0.007581711,0,
00:06.8,0.002723694,0.001064301,0.007581711,0,
00:06.8,0.002706528,0.001041412,0.007598877,0,
00:06.8,0.002689362,0.001001358,0.007587433,0,
00:06.8,0.002700806,0.001018524,0.007598877,0,
00:06.8,0.002706528,0.001024246,0.007604599,0,
00:06.8,0.00271225,0.00103569,0.007598877,0,
00:06.8,0.00271225,0.00103569,0.007593155,0,
00:06.8,0.002700806,0.001029968,0.007587433,0,
00:06.8,0.002723694,0.001047134,0.007570267,0,
00:06.8,0.002723694,0.001047134,0.007564545,0,
00:06.8,0.00271225,0.001041412,0.007598877,0,
00:06.8,0.002717972,0.00103569,0.007587433,0,
00:06.8,0.002706528,0.001029968,0.007581711,0,
00:06.8,0.002717972,0.001041412,0.007575989,0,
00:06.8,0.002717972,0.001041412,0.007558823,0,
00:06.8,0.002723694,0.001041412,0.007598877,0,
00:06.9,0.002706528,0.00103569,0.007621765,0,
00:06.9,0.002717972,0.001052856,0.007598877,0,
00:06.9,0.002706528,0.001047134,0.007564545,0,
00:06.9,0.002695084,0.001012802,0.007575989,0,
00:06.9,0.002706528,0.001029968,0.007598877,0,
00:06.9,0.002729416,0.001047134,0.007575989,0,
00:06.9,0.002735138,0.001052856,0.007587433,0,
00:06.9,0.002700806,0.001041412,0.007598877,0,
00:06.9,0.00271225,0.00103569,0.007593155,0,
00:06.9,0.002689362,0.001029968,0.007593155,0,
00:06.9,0.002729416,0.001047134,0.007575989,0,
00:06.9,0.002746582,0.001064301,0.007587433,0,
00:06.9,0.002735138,0.001075745,0.007587433,0,
00:06.9,0.00274086,0.001064301,0.007553101,0,
00:06.9,0.002735138,0.001047134,0.007581711,0,
00:06.9,0.002717972,0.001041412,0.007581711,0,
00:06.9,0.002700806,0.001018524,0.007593155,0,
00:06.9,0.002723694,0.001047134,0.007575989,0,
00:06.9,0.002723694,0.001047134,0.007575989,0,
00:06.9,0.002723694,0.001052856,0.007581711,0,
00:06.9,0.002723694,0.001052856,0.007593155,0,
00:06.9,0.002735138,0.001052856,0.007581711,0,
00:06.9,0.002735138,0.001052856,0.007581711,0,
00:06.9,0.002735138,0.001064301,0.007575989,0,
00:06.9,0.002723694,0.001047134,0.007587433,0,
00:07.0,0.002723694,0.001052856,0.007575989,0,
00:07.0,0.002700806,0.001024246,0.007587433,0,
00:07.0,0.00268364,0.001029968,0.007581711,0,
00:07.0,0.002735138,0.001058578,0.007564545,0,
00:07.0,0.002729416,0.001047134,0.007581711,0,
00:07.0,0.00271225,0.001041412,0.007598877,0,
00:07.0,0.002660751,0.001047134,0.007581711,0,
00:07.0,0.002677917,0.001041412,0.007575989,0,
00:07.0,0.002763748,0.001070023,0.007581711,0,
00:07.0,0.002780914,0.001081467,0.007558823,0,
00:07.0,0.00274086,0.001058578,0.007564545,0,
00:07.0,0.00274086,0.001064301,0.007581711,0,
00:00:07,0.00274086,0.001070023,0.007547379,0,
00:07.0,0.00271225,0.001052856,0.007558823,0,
00:07.0,0.002700806,0.001047134,0.007581711,0,
00:07.0,0.00274086,0.001070023,0.007570267,0,
00:07.0,0.002746582,0.001058578,0.007564545,0,
00:07.0,0.00274086,0.001064301,0.007553101,0,
00:07.0,0.002735138,0.001058578,0.007570267,0,
00:07.0,0.002729416,0.001058578,0.007581711,0,
00:07.0,0.00274086,0.001070023,0.007558823,0,
00:07.0,0.002706528,0.001041412,0.007564545,0,
00:07.0,0.00271225,0.001058578,0.007581711,0,
00:07.0,0.002746582,0.001075745,0.007558823,0,
00:07.0,0.00274086,0.001070023,0.007558823,0,
00:07.1,0.002729416,0.001070023,0.007581711,0,
00:07.1,0.002746582,0.001075745,0.007558823,0,
00:07.1,0.002729416,0.001047134,0.007535934,0,
00:07.1,0.002729416,0.001064301,0.007564545,0,
00:07.1,0.002735138,0.001070023,0.007575989,0,
00:07.1,0.002729416,0.001058578,0.007575989,0,
00:07.1,0.002717972,0.001052856,0.007564545,0,
00:07.1,0.002746582,0.001075745,0.007553101,0,
00:07.1,0.002758026,0.001087189,0.007547379,0,
00:07.1,0.00274086,0.001064301,0.007547379,0,
00:07.1,0.00274086,0.001070023,0.007535934,0,
00:07.1,0.002746582,0.001081467,0.007547379,0,
00:07.1,0.002735138,0.001058578,0.007541656,0,
00:07.1,0.002735138,0.001064301,0.007535934,0,
00:07.1,0.002752304,0.001092911,0.007535934,0,
00:07.1,0.002746582,0.001075745,0.007564545,0,
00:07.1,0.00274086,0.001064301,0.007547379,0,
00:07.1,0.002735138,0.001058578,0.007547379,0,
00:07.1,0.00274086,0.001058578,0.007547379,0,
00:07.1,0.002752304,0.001081467,0.007564545,0,
00:07.1,0.002758026,0.001092911,0.007547379,0,
00:07.1,0.002729416,0.001058578,0.007535934,0,
00:07.1,0.00274086,0.001070023,0.007535934,0,
00:07.1,0.002746582,0.001070023,0.007558823,0,
00:07.1,0.002746582,0.001070023,0.007541656,0,
00:07.2,0.002746582,0.001070023,0.007535934,0,
00:07.2,0.002746582,0.001081467,0.007541656,0,
00:07.2,0.002729416,0.001064301,0.007547379,0,
00:07.2,0.00274086,0.001064301,0.00752449,0,
00:07.2,0.002763748,0.001092911,0.007518768,0,
00:07.2,0.00276947,0.001104355,0.007513046,0,
00:07.2,0.002723694,0.001064301,0.007553101,0,
00:07.2,0.002723694,0.001058578,0.007541656,0,
00:07.2,0.002717972,0.001064301,0.00752449,0,
00:07.2,0.002729416,0.001064301,0.007535934,0,
00:07.2,0.002780914,0.001092911,0.00752449,0,
00:07.2,0.002758026,0.001087189,0.007513046,0,
00:07.2,0.002746582,0.001075745,0.007513046,0,
00:07.2,0.002758026,0.001087189,0.007518768,0,
00:07.2,0.00276947,0.001098633,0.007518768,0,
00:07.2,0.002746582,0.001092911,0.00752449,0,
00:07.2,0.002735138,0.001064301,0.007518768,0,
00:07.2,0.002746582,0.001075745,0.00752449,0,
00:07.2,0.002746582,0.001075745,0.007530212,0,
00:07.2,0.002752304,0.001081467,0.007507324,0,
00:07.2,0.002758026,0.001087189,0.00749588,0,
00:07.2,0.00274086,0.001087189,0.00752449,0,
00:07.2,0.002729416,0.001075745,0.007513046,0,
00:07.2,0.002735138,0.001098633,0.007513046,0,
00:07.2,0.002752304,0.001087189,0.007530212,0,
00:07.3,0.00271225,0.001058578,0.00752449,0,
00:07.3,0.002763748,0.001104355,0.00749588,0,
00:07.3,0.00276947,0.001098633,0.007501602,0,
00:07.3,0.002775192,0.001087189,0.007513046,0,
00:07.3,0.002758026,0.001081467,0.007518768,0,
00:07.3,0.002746582,0.001075745,0.00749588,0,
00:07.3,0.002758026,0.001098633,0.00749588,0,
00:07.3,0.002775192,0.001144409,0.007484436,0,
00:07.3,0.002775192,0.001127243,0.00746727,0,
00:07.3,0.00271225,0.001041412,0.007518768,0,
00:07.3,0.002752304,0.001081467,0.007518768,0,
00:07.3,0.002746582,0.001087189,0.007501602,0,
00:07.3,0.002752304,0.001092911,0.007490158,0,
00:07.3,0.002746582,0.001098633,0.007484436,0,
00:07.3,0.002752304,0.001087189,0.007507324,0,
00:07.3,0.002752304,0.001092911,0.007501602,0,
00:07.3,0.00274086,0.001087189,0.007484436,0,
00:07.3,0.002758026,0.001104355,0.007478714,0,
00:07.3,0.002746582,0.001075745,0.007484436,0,
00:07.3,0.002729416,0.001070023,0.007501602,0,
00:07.3,0.002758026,0.001104355,0.007484436,0,
00:07.3,0.002763748,0.001115799,0.007484436,0,
00:07.3,0.00276947,0.001098633,0.007501602,0,
00:07.3,0.002752304,0.001087189,0.007478714,0,
00:07.3,0.002758026,0.001092911,0.00743866,0,
00:07.4,0.002746582,0.001087189,0.007484436,0,
00:07.4,0.002758026,0.001092911,0.007472992,0,
00:07.4,0.002763748,0.001092911,0.007455826,0,
00:07.4,0.002758026,0.001098633,0.007478714,0,
00:07.4,0.002752304,0.001098633,0.007478714,0,
00:07.4,0.002758026,0.001092911,0.00746727,0,
00:07.4,0.002763748,0.001098633,0.007432938,0,
00:07.4,0.002746582,0.001098633,0.00749588,0,
00:07.4,0.00276947,0.001121521,0.007484436,0,
00:07.4,0.002752304,0.001092911,0.007455826,0,
00:07.4,0.002735138,0.001081467,0.007484436,0,
00:07.4,0.002758026,0.001092911,0.00746727,0,
00:07.4,0.002752304,0.001087189,0.007461548,0,
00:07.4,0.002758026,0.001092911,0.007472992,0,
00:07.4,0.002758026,0.001092911,0.007478714,0,
00:07.4,0.002752304,0.001098633,0.007472992,0,
00:07.4,0.00276947,0.001110077,0.00746727,0,
00:07.4,0.002758026,0.001098633,0.007455826,0,
00:07.4,0.002752304,0.001098633,0.007455826,0,
00:07.4,0.002775192,0.001110077,0.00746727,0,
00:07.4,0.002752304,0.001075745,0.007455826,0,
00:07.4,0.002758026,0.001098633,0.007472992,0,
00:07.4,0.002758026,0.001110077,0.007450104,0,
00:07.4,0.002729416,0.001081467,0.00746727,0,
00:07.4,0.002763748,0.001075745,0.007461548,0,
00:07.5,0.00276947,0.001104355,0.007432938,0,
00:07.5,0.002763748,0.001110077,0.00743866,0,
00:07.5,0.002763748,0.001092911,0.007461548,0,
00:07.5,0.002758026,0.001081467,0.007455826,0,
00:07.5,0.002763748,0.001092911,0.00746727,0,
00:07.5,0.00276947,0.001104355,0.007461548,0,
00:07.5,0.002758026,0.001092911,0.007461548,0,
00:07.5,0.002758026,0.001087189,0.007444382,0,
00:07.5,0.002752304,0.001087189,0.007450104,0,
00:07.5,0.002729416,0.001075745,0.00746727,0,
00:07.5,0.002780914,0.001104355,0.007450104,0,
00:07.5,0.002792358,0.001132965,0.007450104,0,
00:07.5,0.002809525,0.001155853,0.007432938,0,
00:07.5,0.002752304,0.001075745,0.007432938,0,
00:07.5,0.00274086,0.001064301,0.00746727,0,
00:07.5,0.002763748,0.001087189,0.007455826,0,
00:07.5,0.00276947,0.001104355,0.007444382,0,
00:07.5,0.002763748,0.001104355,0.007432938,0,
00:07.5,0.002752304,0.001087189,0.007444382,0,
00:07.5,0.002752304,0.001092911,0.007455826,0,
00:07.5,0.002780914,0.001115799,0.00743866,0,
00:07.5,0.002786636,0.001121521,0.007432938,0,
00:07.5,0.00274086,0.001087189,0.007427216,0,
00:07.5,0.002758026,0.001092911,0.007432938,0,
00:07.5,0.002775192,0.001104355,0.007421494,0,
00:07.6,0.00276947,0.001104355,0.007427216,0,
00:07.6,0.002758026,0.001092911,0.007432938,0,
00:07.6,0.002746582,0.001092911,0.007432938,0,
00:07.6,0.002723694,0.001087189,0.007444382,0,
00:07.6,0.002786636,0.001110077,0.007421494,0,
00:07.6,0.00279808,0.001127243,0.007387161,0,
00:07.6,0.00276947,0.001115799,0.007461548,0,
00:07.6,0.002780914,0.001115799,0.00743866,0,
00:07.6,0.002780914,0.001104355,0.007410049,0,
00:07.6,0.002752304,0.001087189,0.007450104,0,
00:07.6,0.00276947,0.001098633,0.00743866,0,
00:07.6,0.00276947,0.001092911,0.007432938,0,
00:07.6,0.002763748,0.001098633,0.007427216,0,
00:07.6,0.002758026,0.001104355,0.007427216,0,
00:07.6,0.002763748,0.001121521,0.007415771,0,
00:07.6,0.002775192,0.001127243,0.007410049,0,
00:07.6,0.002780914,0.001121521,0.007387161,0,
00:07.6,0.002786636,0.001121521,0.007398605,0,
00:07.6,0.002775192,0.001104355,0.00743866,0,
00:07.6,0.002763748,0.001092911,0.00743866,0,
00:07.6,0.00276947,0.001098633,0.00743866,0,
00:07.6,0.00276947,0.001092911,0.007427216,0,
00:07.6,0.002775192,0.001104355,0.007432938,0,
00:07.6,0.00276947,0.001098633,0.007410049,0,
00:07.6,0.002746582,0.001098633,0.007427216,0,
00:07.7,0.002763748,0.001104355,0.007421494,0,
00:07.7,0.002786636,0.001121521,0.007375717,0,
00:07.7,0.002758026,0.001115799,0.007427216,0,
00:07.7,0.002763748,0.001115799,0.007427216,0,
00:07.7,0.002792358,0.001115799,0.007404327,0,
00:07.7,0.002792358,0.001115799,0.007415771,0,
00:07.7,0.002792358,0.001127243,0.007415771,0,
00:07.7,0.002775192,0.001104355,0.007427216,0,
00:07.7,0.002763748,0.001092911,0.007432938,0,
00:07.7,0.00276947,0.001110077,0.007421494,0,
00:07.7,0.00276947,0.001115799,0.007415771,0,
00:07.7,0.00276947,0.001110077,0.007415771,0,
00:07.7,0.00276947,0.001110077,0.007415771,0,
00:07.7,0.002763748,0.001115799,0.007410049,0,
00:07.7,0.002729416,0.001098633,0.007404327,0,
00:07.7,0.00276947,0.001121521,0.007398605,0,
00:07.7,0.002820969,0.001184464,0.007358551,0,
00:07.7,0.00279808,0.001150131,0.007387161,0,
00:07.7,0.00276947,0.001104355,0.007415771,0,
00:07.7,0.002763748,0.001092911,0.00743866,0,
00:07.7,0.00276947,0.001098633,0.007427216,0,
00:07.7,0.002775192,0.001110077,0.007421494,0,
00:07.7,0.00276947,0.001110077,0.007415771,0,
00:07.7,0.002775192,0.001115799,0.007410049,0,
00:07.7,0.002775192,0.001115799,0.007410049,0,
00:07.8,0.002775192,0.001115799,0.007398605,0,
00:07.8,0.002780914,0.001127243,0.007381439,0,
00:07.8,0.002763748,0.001121521,0.007369995,0,
00:07.8,0.002763748,0.001104355,0.007392883,0,
00:07.8,0.00276947,0.001115799,0.007392883,0,
00:07.8,0.002792358,0.001132965,0.007415771,0,
00:07.8,0.002775192,0.001115799,0.007410049,0,
00:07.8,0.00276947,0.001115799,0.007398605,0,
00:07.8,0.002780914,0.001121521,0.007404327,0,
00:07.8,0.002775192,0.001121521,0.007387161,0,
00:07.8,0.002780914,0.001132965,0.007387161,0,
00:07.8,0.002775192,0.001127243,0.007369995,0,
00:07.8,0.002775192,0.001127243,0.007375717,0,
00:07.8,0.002758026,0.001098633,0.007398605,0,
00:07.8,0.002786636,0.001115799,0.007415771,0,
00:07.8,0.00279808,0.001132965,0.007410049,0,
00:07.8,0.002780914,0.001121521,0.007398605,0,
00:07.8,0.002786636,0.001138687,0.007375717,0,
00:07.8,0.002780914,0.001138687,0.007387161,0,
00:07.8,0.002780914,0.001132965,0.007392883,0,
00:07.8,0.002792358,0.001144409,0.007364273,0,
00:07.8,0.00276947,0.001121521,0.007369995,0,
00:07.8,0.002775192,0.001110077,0.007375717,0,
00:07.8,0.002786636,0.001127243,0.007415771,0,
00:07.8,0.002786636,0.001127243,0.007392883,0,
00:07.9,0.002775192,0.001115799,0.007392883,0,
00:07.9,0.002780914,0.001121521,0.007387161,0,
00:07.9,0.002786636,0.001121521,0.007387161,0,
00:07.9,0.002775192,0.001127243,0.007375717,0,
00:07.9,0.002780914,0.001127243,0.007358551,0,
00:07.9,0.002775192,0.001138687,0.007392883,0,
00:07.9,0.002792358,0.001161575,0.007392883,0,
00:07.9,0.002826691,0.001184464,0.007387161,0,
00:07.9,0.002792358,0.001132965,0.007375717,0,
00:07.9,0.002746582,0.001087189,0.007410049,0,
00:07.9,0.002775192,0.001121521,0.007392883,0,
00:07.9,0.002780914,0.001132965,0.007392883,0,
00:07.9,0.002780914,0.001132965,0.007387161,0,
00:07.9,0.002786636,0.001132965,0.007375717,0,
00:07.9,0.002780914,0.001127243,0.007358551,0,
00:07.9,0.002752304,0.001115799,0.007381439,0,
00:07.9,0.002792358,0.001144409,0.007381439,0,
00:07.9,0.002792358,0.001144409,0.007404327,0,
00:07.9,0.002780914,0.001127243,0.007404327,0,
00:07.9,0.002780914,0.001144409,0.007387161,0,
00:07.9,0.002786636,0.001150131,0.007387161,0,
00:07.9,0.002775192,0.001132965,0.007381439,0,
00:07.9,0.002775192,0.001127243,0.007392883,0,
00:07.9,0.002786636,0.001138687,0.007387161,0,
00:07.9,0.002786636,0.001138687,0.007381439,0,
00:08.0,0.002758026,0.001132965,0.007369995,0,
00:08.0,0.00276947,0.001144409,0.007358551,0,
00:08.0,0.002792358,0.001155853,0.007381439,0,
00:08.0,0.00279808,0.001150131,0.007404327,0,
00:08.0,0.002775192,0.001121521,0.007387161,0,
00:08.0,0.002775192,0.001127243,0.007347107,0,
00:08.0,0.002786636,0.001144409,0.007347107,0,
00:08.0,0.002780914,0.001150131,0.007387161,0,
00:08.0,0.00276947,0.001121521,0.007404327,0,
00:08.0,0.002780914,0.001132965,0.007404327,0,
00:08.0,0.002786636,0.001138687,0.007387161,0,
00:08.0,0.002792358,0.001138687,0.007381439,0,
00:00:08,0.002786636,0.001132965,0.007381439,0,
00:08.0,0.002786636,0.001138687,0.007381439,0,
00:08.0,0.002775192,0.001132965,0.007369995,0,
00:08.0,0.002803802,0.001150131,0.007352829,0,
00:08.0,0.002803802,0.001155853,0.007364273,0,
00:08.0,0.002780914,0.001132965,0.007358551,0,
00:08.0,0.002780914,0.001132965,0.007347107,0,
00:08.0,0.002780914,0.001138687,0.007358551,0,
00:08.0,0.002780914,0.001127243,0.007369995,0,
00:08.0,0.00276947,0.001115799,0.007369995,0,
00:08.0,0.00276947,0.001127243,0.007375717,0,
00:08.0,0.002775192,0.001127243,0.007364273,0,
00:08.0,0.002763748,0.001110077,0.007341385,0,
00:08.1,0.00279808,0.001132965,0.007358551,0,
00:08.1,0.002803802,0.001144409,0.007352829,0,
00:08.1,0.002780914,0.001150131,0.007352829,0,
00:08.1,0.002803802,0.001167297,0.007364273,0,
00:08.1,0.002792358,0.001144409,0.007347107,0,
00:08.1,0.002826691,0.001161575,0.007347107,0,
00:08.1,0.002780914,0.001110077,0.007347107,0,
00:08.1,0.002775192,0.001110077,0.007364273,0,
00:08.1,0.002786636,0.001138687,0.007358551,0,
00:08.1,0.00279808,0.001144409,0.007347107,0,
00:08.1,0.002786636,0.001121521,0.007347107,0,
00:08.1,0.002786636,0.001138687,0.007341385,0,
00:08.1,0.002786636,0.001138687,0.007347107,0,
00:08.1,0.00279808,0.001132965,0.007347107,0,
00:08.1,0.002792358,0.001127243,0.007318497,0,
00:08.1,0.002786636,0.001132965,0.007341385,0,
00:08.1,0.002775192,0.001104355,0.007347107,0,
00:08.1,0.002780914,0.001098633,0.007341385,0,
00:08.1,0.00276947,0.001104355,0.007341385,0,
00:08.1,0.002780914,0.001127243,0.007329941,0,
00:08.1,0.002786636,0.001167297,0.007335663,0,
00:08.1,0.002763748,0.001138687,0.007352829,0,
00:08.1,0.002809525,0.001161575,0.007335663,0,
00:08.1,0.002792358,0.001132965,0.007335663,0,
00:08.1,0.002780914,0.001150131,0.007329941,0,
00:08.2,0.002815247,0.001184464,0.007335663,0,
00:08.2,0.002820969,0.001161575,0.007347107,0,
00:08.2,0.002803802,0.001161575,0.007335663,0,
00:08.2,0.002792358,0.001150131,0.007347107,0,
00:08.2,0.00279808,0.001161575,0.007335663,0,
00:08.2,0.002820969,0.001167297,0.007312775,0,
00:08.2,0.00276947,0.001121521,0.007364273,0,
00:08.2,0.002792358,0.001138687,0.007329941,0,
00:08.2,0.002809525,0.001155853,0.007347107,0,
00:08.2,0.002803802,0.001161575,0.007335663,0,
00:08.2,0.002809525,0.001167297,0.007335663,0,
00:08.2,0.00279808,0.001161575,0.007329941,0,
00:08.2,0.002809525,0.001178741,0.007324219,0,
00:08.2,0.00276947,0.001144409,0.007318497,0,
00:08.2,0.002758026,0.001115799,0.007335663,0,
00:08.2,0.002786636,0.001138687,0.007341385,0,
00:08.2,0.002786636,0.001138687,0.007347107,0,
00:08.2,0.00276947,0.001132965,0.007347107,0,
00:08.2,0.002820969,0.001173019,0.007307053,0,
00:08.2,0.00279808,0.001161575,0.007307053,0,
00:08.2,0.00279808,0.001150131,0.007352829,0,
00:08.2,0.002803802,0.001161575,0.007341385,0,
00:08.2,0.00279808,0.001167297,0.007318497,0,
00:08.2,0.002809525,0.001178741,0.007352829,0,
00:08.2,0.002803802,0.001161575,0.007341385,0,
00:08.3,0.002792358,0.001150131,0.007335663,0,
00:08.3,0.00279808,0.001155853,0.007318497,0,
00:08.3,0.00279808,0.001161575,0.007335663,0,
00:08.3,0.002792358,0.001155853,0.007318497,0,
00:08.3,0.002803802,0.001167297,0.007341385,0,
00:08.3,0.002803802,0.001178741,0.007329941,0,
00:08.3,0.00279808,0.001167297,0.007318497,0,
00:08.3,0.002792358,0.001155853,0.007335663,0,
00:08.3,0.002780914,0.001155853,0.007352829,0,
00:08.3,0.00279808,0.001161575,0.007347107,0,
00:08.3,0.00279808,0.001167297,0.007341385,0,
00:08.3,0.002786636,0.001155853,0.007335663,0,
00:08.3,0.002775192,0.001150131,0.007335663,0,
00:08.3,0.002780914,0.001161575,0.007352829,0,
00:08.3,0.002815247,0.001190186,0.007341385,0,
00:08.3,0.002786636,0.001173019,0.007329941,0,
00:08.3,0.002803802,0.001190186,0.007329941,0,
00:08.3,0.002815247,0.001178741,0.007307053,0,
00:08.3,0.002786636,0.001167297,0.007347107,0,
00:08.3,0.00279808,0.001173019,0.007347107,0,
00:08.3,0.002792358,0.001178741,0.007329941,0,
00:08.3,0.002815247,0.001207352,0.007341385,0,
00:08.3,0.002820969,0.001224518,0.007295609,0,
00:08.3,0.002786636,0.001173019,0.007301331,0,
00:08.3,0.002803802,0.001178741,0.007341385,0,
00:08.4,0.002792358,0.001173019,0.007358551,0,
00:08.4,0.002803802,0.001184464,0.007324219,0,
00:08.4,0.002809525,0.001195908,0.007295609,0,
00:08.4,0.00279808,0.001184464,0.007358551,0,
00:08.4,0.002780914,0.001173019,0.007352829,0,
00:08.4,0.002780914,0.001178741,0.007329941,0,
00:08.4,0.002820969,0.001224518,0.007335663,0,
00:08.4,0.002820969,0.00120163,0.007347107,0,
00:08.4,0.002803802,0.00120163,0.007329941,0,
00:08.4,0.002803802,0.00120163,0.007335663,0,
00:08.4,0.002803802,0.001190186,0.007324219,0,
00:08.4,0.002809525,0.001207352,0.007329941,0,
00:08.4,0.002780914,0.001173019,0.007329941,0,
00:08.4,0.00276947,0.001167297,0.007324219,0,
00:08.4,0.002786636,0.001190186,0.007307053,0,
00:08.4,0.002809525,0.00120163,0.007352829,0,
00:08.4,0.002815247,0.00120163,0.007347107,0,
00:08.4,0.002803802,0.001195908,0.007312775,0,
00:08.4,0.002809525,0.001195908,0.007312775,0,
00:08.4,0.002809525,0.00120163,0.007341385,0,
00:08.4,0.002815247,0.001207352,0.007329941,0,
00:08.4,0.002809525,0.00120163,0.007324219,0,
00:08.4,0.002815247,0.001218796,0.007364273,0,
00:08.4,0.002820969,0.001218796,0.007335663,0,
00:08.4,0.002832413,0.001218796,0.007312775,0,
00:08.5,0.002832413,0.001218796,0.007358551,0,
00:08.5,0.00279808,0.00120163,0.007341385,0,
00:08.5,0.00279808,0.00120163,0.007341385,0,
00:08.5,0.002809525,0.001218796,0.007347107,0,
00:08.5,0.002826691,0.00123024,0.007341385,0,
00:08.5,0.002809525,0.001213074,0.007312775,0,
00:08.5,0.002815247,0.001218796,0.007329941,0,
00:08.5,0.002820969,0.001224518,0.007341385,0,
00:08.5,0.002803802,0.001213074,0.007347107,0,
00:08.5,0.00279808,0.001213074,0.007324219,0,
00:08.5,0.00279808,0.001207352,0.007352829,0,
00:08.5,0.002815247,0.001218796,0.007335663,0,
00:08.5,0.002815247,0.00123024,0.007329941,0,
00:08.5,0.002826691,0.001241684,0.007312775,0,
00:08.5,0.002803802,0.001235962,0.007324219,0,
00:08.5,0.002803802,0.00123024,0.007329941,0,
00:08.5,0.002843857,0.001253128,0.007341385,0,
00:08.5,0.002826691,0.001241684,0.007352829,0,
00:08.5,0.00279808,0.001218796,0.007335663,0,
00:08.5,0.002815247,0.00123024,0.007347107,0,
00:08.5,0.002820969,0.00123024,0.007341385,0,
00:08.5,0.002826691,0.00123024,0.007335663,0,
00:08.5,0.002826691,0.001235962,0.007329941,0,
00:08.5,0.002826691,0.001247406,0.007329941,0,
00:08.5,0.002826691,0.001253128,0.007347107,0,
00:08.6,0.002826691,0.001247406,0.007347107,0,
00:08.6,0.002826691,0.00123024,0.007312775,0,
00:08.6,0.002815247,0.00123024,0.007335663,0,
00:08.6,0.002815247,0.001235962,0.007358551,0,
00:08.6,0.002826691,0.001253128,0.007352829,0,
00:08.6,0.002843857,0.001264572,0.007329941,0,
00:08.6,0.002815247,0.001247406,0.007335663,0,
00:08.6,0.002815247,0.001241684,0.007329941,0,
00:08.6,0.002792358,0.001241684,0.007335663,0,
00:08.6,0.002843857,0.001264572,0.007318497,0,
00:08.6,0.002832413,0.001247406,0.007329941,0,
00:08.6,0.002809525,0.001247406,0.007329941,0,
00:08.6,0.002832413,0.001253128,0.007335663,0,
00:08.6,0.002820969,0.001247406,0.007358551,0,
00:08.6,0.002832413,0.001247406,0.007347107,0,
00:08.6,0.002855301,0.001276016,0.007335663,0,
00:08.6,0.002843857,0.001270294,0.007329941,0,
00:08.6,0.002832413,0.00125885,0.007358551,0,
00:08.6,0.002832413,0.00125885,0.007352829,0,
00:08.6,0.002838135,0.001270294,0.007341385,0,
00:08.6,0.002838135,0.001264572,0.007335663,0,
00:08.6,0.002826691,0.001264572,0.007352829,0,
00:08.6,0.002832413,0.001264572,0.007347107,0,
00:08.6,0.002832413,0.001264572,0.007341385,0,
00:08.6,0.002849579,0.001281738,0.007341385,0,
00:08.7,0.002861023,0.001298904,0.007324219,0,
00:08.7,0.002826691,0.001281738,0.007301331,0,
00:08.7,0.002826691,0.00125885,0.007347107,0,
00:08.7,0.002832413,0.001264572,0.007375717,0,
00:08.7,0.002826691,0.001264572,0.007358551,0,
00:08.7,0.002838135,0.001276016,0.007352829,0,
00:08.7,0.002838135,0.001276016,0.007347107,0,
00:08.7,0.002832413,0.001270294,0.007352829,0,
00:08.7,0.002809525,0.00125885,0.007352829,0,
00:08.7,0.002815247,0.001270294,0.007358551,0,
00:08.7,0.002889633,0.001333237,0.007329941,0,
00:08.7,0.002895355,0.001344681,0.007301331,0,
00:08.7,0.002872467,0.001310349,0.007312775,0,
00:08.7,0.002832413,0.00125885,0.007375717,0,
00:08.7,0.002832413,0.001270294,0.007352829,0,
00:08.7,0.002843857,0.001281738,0.007381439,0,
00:08.7,0.002855301,0.00128746,0.007352829,0,
00:08.7,0.002855301,0.001304626,0.007341385,0,
00:08.7,0.002866745,0.001321793,0.007324219,0,
00:08.7,0.002866745,0.001327515,0.007341385,0,
00:08.7,0.002838135,0.001293182,0.007352829,0,
00:08.7,0.002838135,0.001293182,0.007329941,0,
00:08.7,0.002849579,0.001293182,0.007347107,0,
00:08.7,0.002849579,0.001298904,0.007369995,0,
00:08.7,0.002855301,0.001304626,0.007352829,0,
00:08.8,0.002861023,0.001310349,0.007335663,0,
00:08.8,0.002855301,0.001310349,0.007347107,0,
00:08.8,0.002861023,0.001316071,0.007352829,0,
00:08.8,0.002838135,0.001298904,0.007335663,0,
00:08.8,0.002866745,0.001321793,0.007375717,0,
00:08.8,0.002849579,0.001293182,0.007352829,0,
00:08.8,0.002826691,0.001276016,0.007358551,0,
00:08.8,0.002855301,0.001316071,0.007352829,0,
00:08.8,0.002872467,0.001321793,0.007358551,0,
00:08.8,0.002883911,0.001304626,0.007341385,0,
00:08.8,0.002872467,0.001270294,0.007329941,0,
00:08.8,0.002849579,0.001247406,0.007364273,0,
00:08.8,0.002855301,0.001270294,0.007352829,0,
00:08.8,0.002861023,0.001304626,0.007347107,0,
00:08.8,0.002855301,0.001321793,0.007335663,0,
00:08.8,0.002872467,0.001361847,0.007335663,0,
00:08.8,0.002883911,0.001379013,0.007312775,0,
00:08.8,0.002855301,0.001361847,0.007352829,0,
00:08.8,0.002889633,0.001361847,0.007352829,0,
00:08.8,0.002906799,0.001373291,0.007341385,0,
00:08.8,0.002878189,0.001350403,0.007358551,0,
00:08.8,0.002883911,0.001350403,0.007335663,0,
00:08.8,0.002889633,0.001356125,0.007364273,0,
00:08.8,0.002878189,0.001338959,0.007381439,0,
00:08.8,0.002866745,0.001338959,0.007347107,0,
00:08.9,0.002855301,0.001321793,0.007358551,0,
00:08.9,0.002878189,0.001350403,0.007358551,0,
00:08.9,0.002883911,0.001350403,0.007347107,0,
00:08.9,0.002883911,0.001356125,0.007352829,0,
00:08.9,0.002861023,0.001350403,0.007358551,0,
00:08.9,0.002878189,0.001350403,0.007358551,0,
00:08.9,0.002912521,0.001379013,0.007341385,0,
00:08.9,0.002901077,0.001361847,0.007347107,0,
00:08.9,0.002889633,0.001356125,0.007329941,0,
00:08.9,0.002895355,0.001361847,0.007335663,0,
00:08.9,0.002895355,0.001361847,0.007347107,0,
00:08.9,0.002895355,0.001361847,0.007364273,0,
00:08.9,0.002895355,0.001367569,0.007335663,0,
00:08.9,0.002906799,0.001379013,0.007352829,0,
00:08.9,0.002912521,0.001384735,0.007341385,0,
00:08.9,0.002895355,0.001373291,0.007318497,0,
00:08.9,0.002878189,0.001367569,0.007329941,0,
00:08.9,0.002866745,0.001344681,0.007375717,0,
00:08.9,0.002895355,0.001373291,0.007369995,0,
00:08.9,0.002912521,0.001379013,0.007347107,0,
00:08.9,0.002906799,0.001373291,0.007364273,0,
00:08.9,0.002906799,0.001384735,0.007358551,0,
00:08.9,0.002912521,0.001384735,0.007352829,0,
00:08.9,0.002906799,0.001390457,0.007352829,0,
00:08.9,0.002906799,0.001384735,0.007341385,0,
00:09.0,0.002912521,0.001384735,0.007312775,0,
00:09.0,0.002906799,0.001384735,0.007347107,0,
00:09.0,0.002923965,0.001390457,0.007352829,0,
00:09.0,0.002923965,0.001384735,0.007335663,0,
00:09.0,0.002906799,0.001390457,0.007358551,0,
00:09.0,0.002918243,0.001390457,0.007347107,0,
00:09.0,0.002918243,0.001390457,0.007347107,0,
00:09.0,0.002918243,0.001396179,0.007352829,0,
00:09.0,0.002923965,0.001401901,0.007347107,0,
00:09.0,0.002923965,0.001401901,0.007341385,0,
00:09.0,0.002929688,0.001419067,0.007352829,0,
00:09.0,0.002918243,0.001413345,0.007341385,0,
00:00:09,0.002912521,0.001401901,0.007341385,0,
00:09.0,0.002901077,0.001407623,0.007335663,0,
00:09.0,0.002941132,0.001401901,0.007335663,0,
00:09.0,0.002929688,0.001413345,0.007335663,0,
00:09.0,0.002929688,0.001419067,0.007352829,0,
00:09.0,0.002929688,0.001413345,0.007341385,0,
00:09.0,0.002923965,0.001407623,0.007341385,0,
00:09.0,0.002906799,0.001396179,0.007335663,0,
00:09.0,0.002918243,0.001413345,0.007352829,0,
00:09.0,0.002969742,0.0014534,0.007341385,0,
00:09.0,0.002929688,0.001419067,0.007341385,0,
00:09.0,0.002912521,0.001401901,0.007358551,0,
00:09.0,0.002941132,0.001419067,0.007341385,0,
00:09.1,0.002929688,0.001407623,0.007341385,0,
00:09.1,0.002946854,0.001430511,0.007341385,0,
00:09.1,0.002952576,0.001430511,0.007352829,0,
00:09.1,0.002946854,0.001430511,0.007324219,0,
00:09.1,0.002952576,0.001436234,0.007341385,0,
00:09.1,0.002975464,0.0014534,0.007324219,0,
00:09.1,0.002929688,0.001419067,0.007329941,0,
00:09.1,0.002923965,0.001407623,0.007324219,0,
00:09.1,0.002941132,0.001424789,0.007352829,0,
00:09.1,0.002946854,0.001441956,0.007329941,0,
00:09.1,0.002958298,0.001447678,0.007329941,0,
00:09.1,0.002946854,0.001419067,0.007352829,0,
00:09.1,0.002946854,0.001424789,0.007341385,0,
00:09.1,0.002946854,0.001430511,0.007335663,0,
00:09.1,0.002946854,0.001430511,0.007329941,0,
00:09.1,0.00293541,0.001424789,0.007329941,0,
00:09.1,0.002952576,0.001459122,0.007324219,0,
00:09.1,0.00296402,0.001464844,0.007307053,0,
00:09.1,0.00293541,0.001424789,0.007318497,0,
00:09.1,0.00296402,0.001441956,0.007335663,0,
00:09.1,0.002952576,0.001441956,0.007324219,0,
00:09.1,0.002958298,0.001441956,0.007324219,0,
00:09.1,0.002952576,0.001441956,0.007324219,0,
00:09.1,0.002952576,0.001441956,0.007329941,0,
00:09.1,0.002946854,0.001447678,0.007329941,0,
00:09.2,0.002958298,0.001447678,0.007329941,0,
00:09.2,0.002981186,0.0014534,0.007307053,0,
00:09.2,0.002952576,0.001430511,0.007307053,0,
00:09.2,0.002946854,0.001436234,0.007352829,0,
00:09.2,0.00296402,0.001441956,0.007341385,0,
00:09.2,0.002986908,0.001447678,0.007341385,0,
00:09.2,0.002975464,0.001447678,0.007347107,0,
00:09.2,0.002958298,0.001436234,0.007335663,0,
00:09.2,0.002969742,0.001441956,0.007324219,0,
00:09.2,0.002958298,0.001430511,0.007335663,0,
00:09.2,0.00296402,0.001441956,0.007307053,0,
00:09.2,0.002975464,0.001459122,0.007301331,0,
00:09.2,0.002975464,0.001441956,0.007341385,0,
00:09.2,0.002981186,0.001447678,0.007335663,0,
00:09.2,0.002981186,0.001447678,0.007329941,0,
00:09.2,0.002969742,0.001447678,0.007335663,0,
00:09.2,0.002986908,0.001464844,0.007312775,0,
00:09.2,0.002969742,0.001447678,0.007295609,0,
00:09.2,0.002969742,0.001441956,0.007289886,0,
00:09.2,0.00299263,0.001447678,0.007318497,0,
00:09.2,0.002952576,0.001424789,0.007347107,0,
00:09.2,0.00296402,0.001436234,0.007335663,0,
00:09.2,0.002975464,0.001447678,0.007335663,0,
00:09.2,0.002981186,0.001436234,0.007324219,0,
00:09.2,0.002969742,0.001441956,0.007318497,0,
00:09.3,0.002975464,0.001447678,0.007312775,0,
00:09.3,0.00299263,0.001459122,0.00727272,0,
00:09.3,0.002981186,0.0014534,0.00727272,0,
00:09.3,0.00299263,0.0014534,0.007312775,0,
00:09.3,0.002986908,0.001430511,0.007341385,0,
00:09.3,0.002981186,0.001436234,0.007318497,0,
00:09.3,0.002981186,0.001436234,0.007301331,0,
00:09.3,0.002981186,0.001441956,0.007312775,0,
00:09.3,0.002981186,0.001447678,0.007307053,0,
00:09.3,0.002981186,0.0014534,0.007295609,0,
00:09.3,0.002981186,0.001447678,0.007301331,0,
00:09.3,0.00299263,0.001470566,0.007301331,0,
00:09.3,0.002981186,0.001459122,0.007295609,0,
00:09.3,0.002975464,0.001447678,0.00727272,0,
00:09.3,0.002981186,0.001447678,0.007278442,0,
00:09.3,0.00299263,0.001441956,0.007278442,0,
00:09.3,0.002975464,0.001436234,0.007266998,0,
00:09.3,0.002958298,0.001436234,0.007295609,0,
00:09.3,0.002969742,0.001441956,0.007295609,0,
00:09.3,0.002958298,0.001430511,0.007289886,0,
00:09.3,0.002946854,0.001430511,0.007278442,0,
00:09.3,0.002975464,0.001441956,0.007261276,0,
00:09.3,0.002975464,0.001441956,0.007255554,0,
00:09.3,0.003015518,0.00148201,0.007278442,0,
00:09.3,0.003009796,0.001476288,0.007289886,0,
00:09.4,0.002998352,0.001464844,0.007266998,0,
00:09.4,0.002969742,0.001430511,0.00727272,0,
00:09.4,0.002981186,0.001441956,0.007278442,0,
00:09.4,0.002981186,0.001447678,0.007266998,0,
00:09.4,0.002981186,0.001441956,0.00727272,0,
00:09.4,0.002981186,0.001447678,0.00727272,0,
00:09.4,0.002986908,0.001464844,0.007255554,0,
00:09.4,0.003009796,0.001487732,0.00724411,0,
00:09.4,0.00299263,0.001459122,0.007255554,0,
00:09.4,0.002969742,0.001424789,0.007289886,0,
00:09.4,0.002981186,0.0014534,0.007238388,0,
00:09.4,0.002981186,0.001459122,0.007249832,0,
00:09.4,0.00299263,0.0014534,0.007266998,0,
00:09.4,0.002998352,0.001459122,0.007261276,0,
00:09.4,0.002986908,0.001447678,0.007255554,0,
00:09.4,0.002958298,0.001441956,0.00724411,0,
00:09.4,0.00299263,0.001476288,0.007255554,0,
00:09.4,0.00302124,0.001476288,0.007249832,0,
00:09.4,0.003009796,0.001464844,0.007249832,0,
00:09.4,0.003015518,0.001464844,0.00724411,0,
00:09.4,0.002998352,0.0014534,0.007249832,0,
00:09.4,0.003009796,0.001464844,0.007249832,0,
00:09.4,0.00302124,0.001464844,0.00724411,0,
00:09.4,0.003009796,0.0014534,0.007249832,0,
00:09.4,0.003004074,0.001464844,0.007249832,0,
00:09.5,0.003009796,0.001470566,0.007232666,0,
00:09.5,0.003015518,0.001470566,0.007249832,0,
00:09.5,0.003026962,0.001487732,0.00724411,0,
00:09.5,0.00302124,0.001476288,0.007204056,0,
00:09.5,0.002998352,0.001436234,0.007249832,0,
00:09.5,0.003004074,0.0014534,0.007266998,0,
00:09.5,0.003004074,0.0014534,0.007249832,0,
00:09.5,0.003009796,0.001459122,0.007226944,0,
00:09.5,0.00299263,0.0014534,0.007238388,0,
00:09.5,0.003009796,0.0014534,0.007249832,0,
00:09.5,0.003032684,0.001476288,0.007249832,0,
00:09.5,0.003015518,0.001470566,0.007249832,0,
00:09.5,0.003004074,0.0014534,0.007226944,0,
00:09.5,0.002998352,0.001441956,0.00724411,0,
00:09.5,0.002986908,0.0014534,0.007249832,0,
00:09.5,0.002969742,0.001436234,0.007249832,0,
00:09.5,0.00304985,0.00148201,0.007232666,0,
00:09.5,0.003032684,0.001464844,0.007204056,0,
00:09.5,0.00302124,0.001447678,0.007226944,0,
00:09.5,0.00302124,0.0014534,0.007249832,0,
00:09.5,0.003015518,0.001441956,0.007232666,0,
00:09.5,0.003015518,0.001430511,0.007221222,0,
00:09.5,0.003004074,0.001447678,0.00724411,0,
00:09.5,0.003009796,0.001447678,0.007232666,0,
00:09.5,0.003026962,0.001464844,0.0072155,0,
00:09.6,0.003026962,0.001464844,0.007226944,0,
00:09.6,0.003026962,0.0014534,0.00724411,0,
00:09.6,0.003026962,0.0014534,0.0072155,0,
00:09.6,0.003015518,0.001436234,0.007209778,0,
00:09.6,0.003015518,0.001436234,0.007221222,0,
00:09.6,0.00302124,0.0014534,0.007226944,0,
00:09.6,0.00302124,0.001447678,0.007238388,0,
00:09.6,0.003026962,0.0014534,0.007226944,0,
00:09.6,0.00302124,0.001459122,0.007232666,0,
00:09.6,0.003004074,0.001441956,0.007238388,0,
00:09.6,0.00302124,0.001441956,0.007226944,0,
00:09.6,0.00302124,0.001441956,0.007226944,0,
00:09.6,0.003026962,0.0014534,0.007221222,0,
00:09.6,0.003044128,0.001459122,0.0072155,0,
00:09.6,0.003026962,0.0014534,0.007221222,0,
00:09.6,0.003015518,0.001441956,0.0072155,0,
00:09.6,0.003009796,0.001447678,0.007198334,0,
00:09.6,0.002998352,0.001430511,0.007221222,0,
00:09.6,0.003044128,0.001476288,0.007198334,0,
00:09.6,0.00304985,0.001476288,0.00718689,0,
00:09.6,0.003032684,0.001447678,0.007226944,0,
00:09.6,0.003026962,0.001447678,0.007226944,0,
00:09.6,0.003026962,0.0014534,0.0072155,0,
00:09.6,0.003032684,0.0014534,0.007209778,0,
00:09.6,0.003038406,0.001464844,0.007192612,0,
00:09.7,0.003038406,0.001476288,0.007169724,0,
00:09.7,0.003032684,0.001459122,0.007198334,0,
00:09.7,0.003015518,0.0014534,0.007221222,0,
00:09.7,0.00304985,0.001487732,0.007209778,0,
00:09.7,0.003032684,0.001459122,0.007209778,0,
00:09.7,0.00302124,0.001430511,0.007169724,0,
00:09.7,0.00302124,0.001441956,0.007221222,0,
00:09.7,0.003015518,0.001447678,0.007209778,0,
00:09.7,0.003009796,0.001447678,0.00718689,0,
00:09.7,0.003009796,0.001447678,0.007192612,0,
00:09.7,0.003032684,0.001441956,0.007164001,0,
00:09.7,0.00302124,0.001447678,0.007198334,0,
00:09.7,0.003026962,0.0014534,0.007198334,0,
00:09.7,0.003044128,0.001447678,0.00718689,0,
00:09.7,0.003032684,0.001447678,0.007181168,0,
00:09.7,0.003032684,0.001459122,0.00718689,0,
00:09.7,0.00304985,0.001476288,0.00718689,0,
00:09.7,0.003055573,0.001487732,0.007169724,0,
00:09.7,0.003026962,0.0014534,0.007175446,0,
00:09.7,0.003026962,0.001441956,0.007169724,0,
00:09.7,0.00302124,0.0014534,0.007152557,0,
00:09.7,0.003026962,0.0014534,0.007204056,0,
00:09.7,0.003032684,0.001447678,0.007192612,0,
00:09.7,0.003032684,0.001447678,0.007181168,0,
00:09.7,0.003038406,0.001447678,0.007169724,0,
00:09.8,0.003038406,0.0014534,0.007158279,0,
00:09.8,0.003038406,0.001459122,0.007141113,0,
00:09.8,0.003038406,0.001464844,0.007164001,0,
00:09.8,0.003038406,0.001459122,0.007169724,0,
00:09.8,0.003032684,0.001447678,0.007164001,0,
00:09.8,0.003026962,0.001430511,0.007175446,0,
00:09.8,0.003038406,0.001441956,0.007164001,0,
00:09.8,0.003044128,0.001447678,0.007169724,0,
00:09.8,0.003032684,0.001441956,0.007164001,0,
00:09.8,0.003004074,0.001430511,0.007164001,0,
00:09.8,0.003032684,0.001436234,0.007164001,0,
00:09.8,0.003078461,0.00148201,0.007141113,0,
00:09.8,0.003055573,0.001487732,0.007129669,0,
00:09.8,0.003004074,0.001419067,0.007135391,0,
00:09.8,0.003044128,0.001430511,0.007152557,0,
00:09.8,0.003044128,0.001447678,0.007141113,0,
00:09.8,0.00304985,0.0014534,0.007146835,0,
00:09.8,0.003044128,0.001459122,0.007141113,0,
00:09.8,0.003055573,0.001464844,0.007141113,0,
00:09.8,0.00304985,0.001459122,0.007141113,0,
00:09.8,0.00304985,0.001459122,0.007141113,0,
00:09.8,0.003044128,0.001464844,0.007141113,0,
00:09.8,0.003055573,0.001470566,0.007135391,0,
00:09.8,0.003044128,0.0014534,0.007123947,0,
00:09.8,0.003044128,0.001447678,0.007129669,0,
00:09.9,0.003032684,0.001447678,0.007152557,0,
00:09.9,0.003055573,0.001459122,0.007164001,0,
00:09.9,0.003061295,0.001459122,0.007141113,0,
00:09.9,0.00304985,0.001459122,0.007129669,0,
00:09.9,0.003044128,0.001459122,0.007129669,0,
00:09.9,0.003026962,0.001441956,0.007129669,0,
00:09.9,0.00302124,0.001447678,0.007141113,0,
00:09.9,0.003061295,0.001470566,0.007169724,0,
00:09.9,0.00304985,0.001470566,0.007141113,0,
00:09.9,0.003061295,0.001476288,0.007135391,0,
00:09.9,0.003072739,0.001487732,0.007141113,0,
00:09.9,0.003067017,0.00148201,0.007146835,0,
00:09.9,0.003061295,0.001476288,0.007141113,0,
00:09.9,0.003061295,0.00148201,0.007112503,0,
00:09.9,0.003055573,0.001487732,0.007141113,0,
00:09.9,0.003061295,0.00148201,0.007129669,0,
00:09.9,0.003061295,0.001487732,0.007129669,0,
00:09.9,0.003067017,0.00151062,0.007129669,0,
00:09.9,0.003067017,0.001487732,0.007135391,0,
00:09.9,0.003044128,0.001459122,0.007123947,0,
00:09.9,0.003032684,0.001464844,0.007106781,0,
00:09.9,0.003015518,0.001464844,0.007129669,0,
00:09.9,0.003032684,0.001476288,0.007146835,0,
00:09.9,0.00304985,0.00148201,0.007152557,0,
00:09.9,0.003061295,0.00148201,0.007129669,0,
00:10.0,0.003044128,0.001476288,0.007152557,0,
00:10.0,0.003026962,0.001487732,0.007135391,0,
00:10.0,0.003067017,0.001516342,0.007141113,0,
00:10.0,0.003078461,0.001487732,0.007123947,0,
00:10.0,0.003078461,0.001499176,0.007129669,0,
00:10.0,0.003078461,0.001516342,0.007112503,0,
00:10.0,0.003084183,0.001527786,0.007095337,0,
00:10.0,0.003072739,0.001522064,0.007135391,0,
00:10.0,0.003061295,0.001487732,0.007129669,0,
00:10.0,0.003067017,0.001499176,0.007141113,0,
00:10.0,0.003061295,0.00151062,0.007135391,0,
00:10.0,0.003072739,0.001522064,0.007101059,0,
00:00:10,0.003055573,0.001493454,0.007118225,0,
00:10.0,0.003067017,0.001504898,0.007123947,0,
00:10.0,0.003055573,0.001499176,0.007118225,0,
00:10.0,0.003055573,0.001504898,0.007106781,0,
00:10.0,0.003078461,0.001533508,0.007123947,0,
00:10.0,0.003044128,0.001516342,0.007101059,0,
00:10.0,0.003044128,0.001504898,0.007112503,0,
00:10.0,0.003044128,0.001493454,0.007123947,0,
00:10.0,0.00304985,0.001504898,0.007118225,0,
00:10.0,0.003055573,0.001516342,0.007106781,0,
00:10.0,0.003026962,0.001493454,0.007106781,0,
00:10.0,0.003061295,0.001533508,0.007129669,0,
00:10.0,0.003084183,0.001522064,0.007123947,0,
00:10.1,0.003061295,0.001516342,0.007118225,0,
00:10.1,0.003061295,0.001522064,0.007118225,0,
00:10.1,0.003055573,0.001522064,0.007106781,0,
00:10.1,0.003072739,0.00153923,0.007101059,0,
00:10.1,0.003055573,0.001522064,0.007135391,0,
00:10.1,0.003044128,0.001504898,0.007112503,0,
00:10.1,0.003061295,0.001522064,0.007123947,0,
00:10.1,0.003067017,0.001527786,0.007101059,0,
00:10.1,0.003061295,0.001516342,0.007101059,0,
00:10.1,0.003055573,0.001516342,0.007118225,0,
00:10.1,0.003055573,0.001522064,0.007101059,0,
00:10.1,0.003072739,0.001533508,0.007095337,0,
00:10.1,0.003032684,0.00151062,0.007101059,0,
00:10.1,0.003038406,0.001504898,0.007095337,0,
00:10.1,0.003078461,0.001533508,0.007095337,0,
00:10.1,0.003067017,0.001533508,0.007089615,0,
00:10.1,0.00304985,0.001527786,0.007089615,0,
00:10.1,0.003061295,0.001550674,0.007095337,0,
00:10.1,0.003038406,0.001522064,0.007118225,0,
00:10.1,0.003078461,0.00153923,0.007089615,0,
00:10.1,0.003078461,0.001527786,0.007106781,0,
00:10.1,0.003055573,0.001516342,0.007106781,0,
00:10.1,0.003061295,0.00153923,0.007106781,0,
00:10.1,0.003067017,0.00153923,0.007095337,0,
00:10.1,0.003067017,0.00153923,0.007095337,0,
00:10.2,0.003067017,0.001544952,0.007095337,0,
00:10.2,0.003044128,0.001533508,0.007089615,0,
00:10.2,0.00304985,0.001533508,0.007095337,0,
00:10.2,0.003067017,0.00153923,0.007101059,0,
00:10.2,0.00304985,0.001533508,0.007089615,0,
00:10.2,0.003067017,0.00153923,0.007089615,0,
00:10.2,0.003032684,0.00153923,0.007089615,0,
00:10.2,0.003055573,0.001550674,0.007072449,0,
00:10.2,0.003095627,0.001556396,0.007106781,0,
00:10.2,0.003078461,0.001562119,0.007101059,0,
00:10.2,0.003061295,0.001556396,0.007101059,0,
00:10.2,0.00302124,0.001533508,0.007101059,0,
00:10.2,0.003044128,0.001533508,0.007083893,0,
00:10.2,0.003095627,0.001562119,0.007066727,0,
00:10.2,0.003084183,0.001550674,0.007072449,0,
00:10.2,0.003067017,0.001562119,0.007066727,0,
00:10.2,0.003055573,0.001544952,0.007095337,0,
00:10.2,0.00304985,0.001533508,0.007095337,0,
00:10.2,0.003084183,0.001562119,0.007095337,0,
00:10.2,0.003084183,0.001567841,0.007089615,0,
00:10.2,0.003078461,0.001567841,0.007089615,0,
00:10.2,0.003067017,0.001556396,0.007095337,0,
00:10.2,0.003078461,0.001579285,0.007089615,0,
00:10.2,0.003061295,0.001579285,0.007072449,0,
00:10.2,0.003032684,0.001544952,0.007061005,0,
00:10.3,0.003084183,0.001562119,0.007078171,0,
00:10.3,0.003078461,0.001567841,0.007089615,0,
00:10.3,0.003032684,0.001544952,0.007089615,0,
