Elapsed_Time,EMG1,EMG2,EMG3,BioRadio Event,Unnamed: 5
00:00:00,0.002025604,0.005115509,0.00525856,0,
00:00.0,0.002048492,0.005104065,0.005207062,0,
00:00.0,0.002019882,0.005109787,0.005172729,0,
00:00.0,0.00201416,0.005098343,0.005149841,0,
00:00.0,0.00201416,0.005092621,0.005172729,0,
00:00.0,0.001979828,0.005075455,0.005235672,0,
00:00.0,0.001991272,0.005081177,0.005189896,0,
00:00.0,0.002008438,0.005092621,0.005161285,0,
00:00.0,0.002002716,0.005109787,0.005247116,0,
00:00.0,0.002002716,0.005132675,0.005212784,0,
00:00.0,0.002019882,0.005144119,0.005189896,0,
00:00.0,0.002019882,0.005121231,0.005212784,0,
00:00.0,0.002002716,0.005092621,0.00520134,0,
00:00.1,0.002008438,0.005104065,0.00520134,0,
00:00.1,0.002031326,0.005132675,0.005172729,0,
00:00.1,0.002037048,0.005132675,0.005138397,0,
00:00.1,0.002025604,0.005121231,0.005161285,0,
00:00.1,0.002025604,0.005121231,0.005161285,0,
00:00.1,0.00204277,0.005109787,0.005167007,0,
00:00.1,0.002031326,0.005121231,0.005189896,0,
00:00.1,0.002071381,0.005126953,0.005138397,0,
00:00.1,0.001979828,0.005115509,0.005224228,0,
00:00.1,0.001974106,0.005126953,0.00522995,0,
00:00.1,0.002008438,0.005109787,0.005184174,0,
00:00.1,0.002002716,0.005109787,0.005195618,0,
00:00.1,0.002019882,0.005104065,0.005195618,0,
00:00.1,0.002002716,0.005086899,0.005218506,0,
00:00.1,0.001979828,0.005069733,0.005218506,0,
00:00.1,0.00198555,0.005064011,0.005178452,0,
00:00.1,0.002002716,0.005115509,0.00520134,0,
00:00.1,0.002019882,0.005121231,0.005172729,0,
00:00.1,0.00204277,0.005138397,0.005161285,0,
00:00.1,0.002037048,0.005121231,0.005172729,0,
00:00.1,0.001991272,0.005115509,0.005224228,0,
00:00.1,0.002002716,0.005132675,0.005189896,0,
00:00.1,0.002002716,0.005121231,0.005212784,0,
00:00.1,0.002025604,0.005109787,0.005207062,0,
00:00.1,0.00201416,0.005109787,0.005121231,0,
00:00.2,0.002019882,0.005121231,0.005109787,0,
00:00.2,0.00204277,0.005132675,0.005184174,0,
00:00.2,0.002065659,0.005138397,0.005172729,0,
00:00.2,0.00195694,0.005115509,0.005224228,0,
00:00.2,0.002037048,0.005138397,0.005098343,0,
00:00.2,0.00204277,0.005109787,0.005121231,0,
00:00.2,0.001979828,0.005086899,0.00525856,0,
00:00.2,0.001996994,0.005115509,0.005224228,0,
00:00.2,0.002002716,0.005115509,0.005189896,0,
00:00.2,0.002008438,0.005098343,0.005207062,0,
00:00.2,0.001996994,0.005109787,0.005178452,0,
00:00.2,0.001996994,0.005092621,0.005189896,0,
00:00.2,0.001996994,0.005092621,0.005195618,0,
00:00.2,0.001996994,0.005109787,0.005189896,0,
00:00.2,0.00201416,0.005138397,0.005184174,0,
00:00.2,0.002019882,0.005149841,0.005172729,0,
00:00.2,0.002008438,0.005121231,0.00520134,0,
00:00.2,0.002008438,0.005109787,0.005195618,0,
00:00.2,0.002031326,0.005115509,0.005189896,0,
00:00.2,0.00204277,0.005121231,0.005126953,0,
00:00.2,0.002037048,0.005121231,0.0050354,0,
00:00.2,0.002008438,0.005144119,0.005195618,0,
00:00.2,0.002019882,0.005155563,0.00520134,0,
00:00.2,0.002025604,0.005144119,0.005167007,0,
00:00.2,0.001979828,0.005121231,0.005207062,0,
00:00.3,0.002031326,0.005132675,0.005144119,0,
00:00.3,0.00204277,0.005121231,0.005195618,0,
00:00.3,0.002048492,0.005144119,0.005167007,0,
00:00.3,0.001996994,0.005109787,0.005132675,0,
00:00.3,0.002008438,0.005098343,0.005167007,0,
00:00.3,0.001991272,0.005098343,0.005252838,0,
00:00.3,0.002008438,0.005115509,0.00520134,0,
00:00.3,0.002002716,0.005121231,0.005184174,0,
00:00.3,0.00201416,0.005115509,0.005167007,0,
00:00.3,0.002002716,0.005132675,0.005195618,0,
00:00.3,0.002008438,0.005132675,0.005207062,0,
00:00.3,0.002008438,0.005126953,0.005184174,0,
00:00.3,0.002019882,0.005138397,0.005189896,0,
00:00.3,0.002025604,0.005126953,0.005189896,0,
00:00.3,0.002025604,0.005126953,0.005178452,0,
00:00.3,0.002025604,0.005132675,0.005184174,0,
00:00.3,0.002077103,0.005144119,0.005092621,0,
00:00.3,0.002140045,0.005161285,0.004880905,0,
00:00.3,0.002025604,0.005138397,0.005132675,0,
00:00.3,0.001991272,0.005132675,0.005270004,0,
00:00.3,0.001991272,0.005126953,0.00520134,0,
00:00.3,0.001968384,0.005109787,0.00525856,0,
00:00.3,0.002002716,0.005126953,0.005207062,0,
00:00.3,0.002031326,0.005126953,0.005132675,0,
00:00.3,0.002059937,0.005104065,0.005138397,0,
00:00.4,0.00198555,0.005098343,0.005212784,0,
00:00.4,0.001996994,0.005115509,0.005218506,0,
00:00.4,0.001996994,0.005126953,0.005195618,0,
00:00.4,0.001996994,0.005115509,0.005189896,0,
00:00.4,0.002008438,0.005109787,0.005189896,0,
00:00.4,0.00201416,0.005109787,0.005172729,0,
00:00.4,0.00201416,0.005149841,0.005161285,0,
00:00.4,0.002025604,0.005172729,0.005172729,0,
00:00.4,0.002019882,0.005149841,0.005161285,0,
00:00.4,0.002025604,0.005144119,0.005161285,0,
00:00.4,0.002025604,0.005144119,0.005178452,0,
00:00.4,0.00204277,0.005126953,0.005138397,0,
00:00.4,0.002037048,0.005126953,0.005144119,0,
00:00.4,0.002031326,0.005144119,0.005155563,0,
00:00.4,0.002037048,0.005161285,0.005126953,0,
00:00.4,0.002054214,0.005155563,0.005172729,0,
00:00.4,0.002031326,0.005138397,0.005144119,0,
00:00.4,0.00201416,0.005132675,0.005138397,0,
00:00.4,0.00204277,0.005126953,0.005109787,0,
00:00.4,0.001974106,0.005104065,0.005270004,0,
00:00.4,0.001968384,0.005109787,0.005218506,0,
00:00.4,0.001996994,0.005126953,0.005189896,0,
00:00.4,0.002002716,0.005121231,0.005167007,0,
00:00.4,0.002037048,0.005098343,0.005121231,0,
00:00.4,0.002031326,0.005132675,0.005149841,0,
00:00.5,0.002002716,0.005149841,0.005195618,0,
00:00.5,0.00201416,0.005138397,0.005178452,0,
00:00.5,0.002019882,0.005138397,0.005172729,0,
00:00.5,0.002037048,0.005149841,0.005104065,0,
00:00.5,0.002025604,0.005149841,0.005086899,0,
00:00.5,0.001996994,0.005138397,0.005224228,0,
00:00.5,0.002002716,0.005126953,0.005207062,0,
00:00.5,0.002008438,0.005132675,0.005178452,0,
00:00.5,0.002019882,0.005126953,0.005155563,0,
00:00.5,0.00204277,0.005144119,0.005104065,0,
00:00.5,0.002025604,0.005144119,0.005109787,0,
00:00.5,0.002031326,0.005138397,0.005144119,0,
00:00.5,0.002019882,0.005155563,0.005161285,0,
00:00.5,0.002019882,0.005172729,0.005104065,0,
00:00.5,0.002094269,0.005172729,0.005058289,0,
00:00.5,0.002025604,0.005132675,0.005092621,0,
00:00.5,0.001979828,0.005115509,0.005247116,0,
00:00.5,0.001991272,0.005115509,0.005235672,0,
00:00.5,0.001996994,0.005126953,0.005195618,0,
00:00.5,0.002002716,0.005092621,0.005172729,0,
00:00.5,0.002019882,0.005115509,0.005132675,0,
00:00.5,0.002008438,0.005149841,0.005149841,0,
00:00.5,0.001996994,0.005144119,0.005189896,0,
00:00.5,0.002002716,0.005126953,0.005167007,0,
00:00.5,0.002019882,0.005149841,0.005161285,0,
00:00.6,0.00201416,0.005149841,0.005161285,0,
00:00.6,0.002008438,0.005149841,0.005172729,0,
00:00.6,0.002019882,0.005155563,0.005149841,0,
00:00.6,0.002065659,0.005155563,0.005069733,0,
00:00.6,0.002037048,0.005132675,0.005064011,0,
00:00.6,0.001996994,0.005155563,0.005189896,0,
00:00.6,0.002008438,0.005167007,0.005149841,0,
00:00.6,0.002002716,0.005149841,0.005212784,0,
00:00.6,0.002054214,0.005161285,0.005121231,0,
00:00.6,0.002094269,0.005172729,0.005052567,0,
00:00.6,0.001996994,0.005132675,0.005086899,0,
00:00.6,0.001962662,0.005104065,0.005247116,0,
00:00.6,0.001979828,0.005121231,0.005178452,0,
00:00.6,0.002048492,0.005138397,0.005109787,0,
00:00.6,0.002059937,0.005138397,0.005012512,0,
00:00.6,0.00198555,0.005132675,0.005247116,0,
00:00.6,0.002002716,0.005144119,0.005212784,0,
00:00.6,0.002002716,0.005126953,0.005172729,0,
00:00.6,0.002002716,0.005121231,0.005161285,0,
00:00.6,0.00201416,0.005155563,0.005155563,0,
00:00.6,0.002019882,0.005167007,0.005167007,0,
00:00.6,0.002037048,0.005172729,0.005132675,0,
00:00.6,0.002025604,0.005155563,0.005092621,0,
00:00.6,0.002025604,0.005126953,0.005138397,0,
00:00.6,0.002031326,0.005138397,0.005132675,0,
00:00.7,0.002008438,0.005167007,0.00520134,0,
00:00.7,0.002025604,0.005167007,0.005167007,0,
00:00.7,0.002025604,0.005161285,0.005132675,0,
00:00.7,0.00204277,0.005161285,0.005161285,0,
00:00.7,0.002048492,0.005172729,0.005109787,0,
00:00.7,0.002088547,0.005167007,0.00494957,0,
00:00.7,0.00201416,0.005132675,0.005167007,0,
00:00.7,0.001979828,0.005132675,0.005281448,0,
00:00.7,0.002008438,0.005132675,0.005207062,0,
00:00.7,0.002002716,0.005138397,0.005184174,0,
00:00.7,0.00201416,0.005149841,0.005161285,0,
00:00.7,0.00204277,0.005132675,0.005149841,0,
00:00.7,0.002031326,0.005115509,0.005144119,0,
00:00.7,0.002031326,0.005132675,0.005115509,0,
00:00.7,0.002037048,0.005172729,0.005092621,0,
00:00.7,0.00201416,0.005155563,0.005189896,0,
00:00.7,0.00201416,0.005144119,0.005167007,0,
00:00.7,0.002019882,0.005161285,0.005138397,0,
00:00.7,0.002048492,0.005189896,0.005126953,0,
00:00.7,0.002048492,0.005172729,0.005098343,0,
00:00.7,0.002025604,0.005155563,0.005132675,0,
00:00.7,0.002002716,0.005155563,0.00522995,0,
00:00.7,0.002008438,0.005149841,0.005189896,0,
00:00.7,0.00201416,0.005155563,0.005161285,0,
00:00.7,0.002059937,0.005189896,0.005115509,0,
00:00.8,0.002059937,0.005172729,0.005092621,0,
00:00.8,0.002031326,0.005172729,0.005121231,0,
00:00.8,0.002054214,0.005167007,0.005052567,0,
00:00.8,0.001996994,0.005149841,0.00520134,0,
00:00.8,0.002008438,0.005149841,0.005224228,0,
00:00.8,0.002025604,0.005167007,0.005155563,0,
00:00.8,0.002031326,0.005132675,0.005132675,0,
00:00.8,0.002031326,0.005121231,0.005098343,0,
00:00.8,0.002025604,0.005161285,0.005144119,0,
00:00.8,0.002019882,0.005155563,0.005155563,0,
00:00.8,0.002002716,0.005172729,0.005144119,0,
00:00.8,0.002002716,0.005178452,0.005184174,0,
00:00.8,0.002008438,0.005172729,0.005155563,0,
00:00.8,0.002025604,0.005144119,0.005132675,0,
00:00.8,0.002019882,0.005138397,0.005121231,0,
00:00.8,0.002031326,0.005184174,0.005155563,0,
00:00.8,0.002008438,0.005172729,0.005144119,0,
00:00.8,0.002008438,0.005167007,0.005115509,0,
00:00.8,0.002037048,0.005178452,0.005098343,0,
00:00.8,0.00204277,0.005167007,0.005092621,0,
00:00.8,0.002037048,0.005149841,0.005098343,0,
00:00.8,0.00204277,0.005167007,0.005098343,0,
00:00.8,0.001991272,0.005144119,0.005172729,0,
00:00.8,0.00204277,0.005155563,0.005155563,0,
00:00.8,0.002031326,0.005149841,0.005178452,0,
00:00.9,0.001996994,0.005138397,0.005126953,0,
00:00.9,0.002008438,0.005144119,0.005167007,0,
00:00.9,0.002002716,0.005115509,0.005172729,0,
00:00.9,0.002031326,0.005126953,0.005104065,0,
00:00.9,0.002019882,0.005132675,0.005149841,0,
00:00.9,0.001991272,0.005138397,0.005144119,0,
00:00.9,0.002019882,0.005167007,0.005121231,0,
00:00.9,0.002031326,0.005189896,0.005172729,0,
00:00.9,0.002031326,0.005184174,0.005155563,0,
00:00.9,0.002019882,0.005167007,0.005132675,0,
00:00.9,0.002025604,0.005167007,0.005138397,0,
00:00.9,0.002059937,0.005178452,0.005121231,0,
00:00.9,0.002031326,0.005178452,0.005052567,0,
00:00.9,0.002002716,0.005161285,0.005195618,0,
00:00.9,0.002025604,0.005172729,0.005138397,0,
00:00.9,0.002031326,0.005172729,0.005104065,0,
00:00.9,0.00204277,0.005172729,0.005149841,0,
00:00.9,0.002082825,0.005167007,0.005109787,0,
00:00.9,0.002025604,0.005161285,0.005126953,0,
00:00.9,0.001991272,0.005155563,0.005172729,0,
00:00.9,0.002008438,0.005149841,0.005189896,0,
00:00.9,0.002002716,0.005149841,0.005172729,0,
00:00.9,0.002002716,0.005149841,0.005161285,0,
00:00.9,0.002019882,0.005149841,0.005121231,0,
00:00.9,0.002019882,0.005126953,0.005069733,0,
00:01.0,0.002008438,0.005138397,0.005195618,0,
00:01.0,0.002019882,0.005161285,0.005172729,0,
00:01.0,0.002048492,0.00520134,0.005115509,0,
00:01.0,0.002037048,0.005167007,0.005092621,0,
00:01.0,0.002025604,0.005126953,0.005144119,0,
00:01.0,0.002031326,0.005195618,0.00520134,0,
00:01.0,0.002008438,0.005195618,0.005138397,0,
00:01.0,0.002037048,0.005161285,0.005098343,0,
00:01.0,0.002048492,0.005172729,0.005189896,0,
00:01.0,0.00201416,0.005172729,0.005138397,0,
00:01.0,0.002025604,0.005172729,0.005109787,0,
00:01.0,0.002088547,0.005184174,0.005052567,0,
00:00:01,0.002065659,0.005184174,0.005144119,0,
00:01.0,0.00201416,0.005184174,0.005155563,0,
00:01.0,0.00198555,0.005172729,0.005155563,0,
00:01.0,0.001996994,0.005155563,0.005144119,0,
00:01.0,0.002059937,0.005172729,0.005167007,0,
00:01.0,0.002031326,0.005167007,0.005155563,0,
00:01.0,0.002025604,0.005149841,0.005132675,0,
00:01.0,0.002002716,0.005161285,0.00520134,0,
00:01.0,0.002002716,0.005161285,0.005172729,0,
00:01.0,0.001996994,0.005132675,0.005172729,0,
00:01.0,0.00201416,0.005144119,0.005149841,0,
00:01.0,0.002008438,0.005155563,0.005149841,0,
00:01.0,0.00201416,0.005178452,0.005189896,0,
00:01.1,0.002025604,0.005178452,0.005172729,0,
00:01.1,0.002025604,0.00520134,0.005149841,0,
00:01.1,0.002002716,0.005184174,0.005149841,0,
00:01.1,0.002019882,0.005178452,0.005155563,0,
00:01.1,0.002025604,0.005184174,0.005138397,0,
00:01.1,0.002019882,0.005167007,0.005132675,0,
00:01.1,0.002065659,0.005184174,0.005086899,0,
00:01.1,0.002105713,0.005189896,0.005086899,0,
00:01.1,0.002025604,0.005161285,0.005161285,0,
00:01.1,0.001991272,0.005155563,0.005167007,0,
00:01.1,0.002008438,0.005167007,0.00520134,0,
00:01.1,0.002054214,0.005172729,0.005121231,0,
00:01.1,0.00201416,0.005138397,0.005189896,0,
00:01.1,0.001974106,0.005126953,0.00520134,0,
00:01.1,0.001991272,0.005138397,0.005195618,0,
00:01.1,0.002031326,0.005121231,0.005155563,0,
00:01.1,0.002008438,0.005144119,0.005126953,0,
00:01.1,0.002008438,0.005167007,0.005178452,0,
00:01.1,0.00201416,0.005184174,0.005167007,0,
00:01.1,0.002008438,0.005172729,0.005189896,0,
00:01.1,0.00201416,0.005161285,0.005195618,0,
00:01.1,0.00201416,0.005172729,0.005172729,0,
00:01.1,0.00201416,0.005167007,0.005167007,0,
00:01.1,0.00201416,0.005155563,0.005161285,0,
00:01.1,0.00204277,0.005149841,0.005109787,0,
00:01.2,0.002071381,0.005178452,0.005121231,0,
00:01.2,0.00204277,0.005195618,0.005064011,0,
00:01.2,0.002037048,0.005178452,0.005155563,0,
00:01.2,0.002025604,0.005172729,0.005189896,0,
00:01.2,0.002054214,0.005178452,0.005195618,0,
00:01.2,0.00204277,0.005178452,0.005161285,0,
00:01.2,0.002008438,0.005167007,0.005161285,0,
00:01.2,0.00195694,0.005155563,0.005184174,0,
00:01.2,0.002019882,0.005155563,0.005115509,0,
00:01.2,0.00201416,0.005149841,0.00520134,0,
00:01.2,0.002008438,0.005126953,0.005195618,0,
00:01.2,0.002008438,0.005132675,0.005172729,0,
00:01.2,0.002002716,0.005132675,0.005189896,0,
00:01.2,0.002019882,0.005189896,0.005189896,0,
00:01.2,0.002019882,0.005184174,0.005212784,0,
00:01.2,0.002019882,0.005172729,0.00520134,0,
00:01.2,0.002031326,0.005207062,0.005184174,0,
00:01.2,0.002054214,0.005195618,0.005167007,0,
00:01.2,0.002037048,0.005172729,0.005155563,0,
00:01.2,0.002031326,0.005172729,0.005155563,0,
00:01.2,0.002025604,0.005161285,0.005161285,0,
00:01.2,0.002037048,0.005184174,0.005195618,0,
00:01.2,0.002065659,0.00520134,0.005167007,0,
00:01.2,0.002111435,0.00520134,0.005098343,0,
00:01.2,0.002065659,0.005161285,0.005132675,0,
00:01.3,0.002002716,0.005149841,0.005178452,0,
00:01.3,0.00198555,0.005172729,0.005178452,0,
00:01.3,0.002019882,0.005178452,0.005155563,0,
00:01.3,0.002002716,0.005144119,0.005178452,0,
00:01.3,0.002008438,0.005138397,0.005270004,0,
00:01.3,0.002025604,0.005155563,0.005224228,0,
00:01.3,0.002019882,0.005149841,0.005184174,0,
00:01.3,0.002002716,0.005144119,0.005184174,0,
00:01.3,0.002008438,0.005161285,0.005167007,0,
00:01.3,0.002008438,0.005167007,0.005138397,0,
00:01.3,0.002019882,0.005172729,0.005212784,0,
00:01.3,0.002025604,0.005195618,0.005235672,0,
00:01.3,0.002031326,0.00520134,0.005207062,0,
00:01.3,0.002037048,0.005189896,0.005195618,0,
00:01.3,0.002037048,0.005172729,0.005184174,0,
00:01.3,0.002077103,0.005172729,0.005138397,0,
00:01.3,0.00204277,0.005184174,0.005155563,0,
00:01.3,0.002019882,0.005184174,0.005178452,0,
00:01.3,0.002071381,0.005184174,0.005092621,0,
00:01.3,0.002065659,0.005178452,0.005069733,0,
00:01.3,0.002019882,0.005161285,0.005292892,0,
00:01.3,0.002025604,0.005155563,0.005275726,0,
00:01.3,0.00198555,0.005155563,0.00522995,0,
00:01.3,0.002002716,0.005172729,0.005144119,0,
00:01.3,0.002025604,0.005167007,0.005161285,0,
00:01.4,0.002019882,0.005155563,0.005207062,0,
00:01.4,0.00201416,0.005149841,0.00525856,0,
00:01.4,0.00201416,0.005144119,0.005235672,0,
00:01.4,0.00201416,0.005138397,0.005212784,0,
00:01.4,0.002019882,0.005126953,0.00520134,0,
00:01.4,0.00204277,0.005178452,0.005189896,0,
00:01.4,0.002025604,0.005195618,0.005207062,0,
00:01.4,0.002019882,0.005178452,0.005212784,0,
00:01.4,0.00204277,0.005212784,0.00520134,0,
00:01.4,0.002059937,0.005195618,0.005195618,0,
00:01.4,0.00204277,0.005195618,0.005161285,0,
00:01.4,0.002077103,0.005189896,0.005086899,0,
00:01.4,0.002059937,0.005178452,0.005172729,0,
00:01.4,0.001991272,0.005167007,0.005241394,0,
00:01.4,0.002019882,0.005172729,0.005264282,0,
00:01.4,0.002048492,0.005189896,0.005178452,0,
00:01.4,0.002037048,0.005178452,0.005207062,0,
00:01.4,0.00201416,0.005155563,0.005241394,0,
00:01.4,0.002054214,0.005178452,0.005207062,0,
00:01.4,0.002037048,0.005161285,0.00520134,0,
00:01.4,0.001991272,0.005149841,0.005235672,0,
00:01.4,0.00201416,0.005161285,0.00522995,0,
00:01.4,0.002019882,0.005167007,0.00522995,0,
00:01.4,0.002025604,0.005149841,0.005207062,0,
00:01.4,0.002037048,0.005155563,0.005167007,0,
00:01.5,0.00201416,0.005189896,0.005270004,0,
00:01.5,0.002019882,0.005189896,0.00525856,0,
00:01.5,0.002031326,0.005178452,0.005212784,0,
00:01.5,0.002037048,0.005189896,0.005189896,0,
00:01.5,0.00204277,0.005178452,0.00522995,0,
00:01.5,0.002037048,0.005161285,0.005218506,0,
00:01.5,0.002037048,0.005184174,0.005218506,0,
00:01.5,0.002077103,0.005195618,0.005189896,0,
00:01.5,0.002054214,0.005184174,0.005081177,0,
00:01.5,0.002025604,0.005189896,0.005149841,0,
00:01.5,0.001996994,0.005178452,0.005298615,0,
00:01.5,0.002002716,0.005184174,0.005270004,0,
00:01.5,0.002065659,0.005184174,0.005275726,0,
00:01.5,0.002054214,0.005178452,0.005241394,0,
00:01.5,0.00204277,0.005155563,0.005224228,0,
00:01.5,0.002008438,0.005155563,0.005224228,0,
00:01.5,0.002008438,0.005167007,0.005270004,0,
00:01.5,0.002019882,0.005172729,0.005264282,0,
00:01.5,0.00201416,0.005172729,0.00525856,0,
00:01.5,0.00201416,0.005155563,0.005247116,0,
00:01.5,0.002025604,0.005161285,0.005241394,0,
00:01.5,0.002025604,0.005195618,0.005252838,0,
00:01.5,0.002031326,0.005195618,0.005247116,0,
00:01.5,0.002037048,0.005184174,0.005207062,0,
00:01.5,0.002048492,0.005184174,0.005212784,0,
00:01.6,0.00204277,0.005178452,0.005235672,0,
00:01.6,0.00201416,0.005178452,0.00528717,0,
00:01.6,0.00201416,0.005167007,0.005264282,0,
00:01.6,0.002088547,0.005178452,0.00520134,0,
00:01.6,0.002099991,0.005189896,0.005069733,0,
00:01.6,0.00204277,0.005189896,0.005149841,0,
00:01.6,0.001974106,0.005149841,0.005344391,0,
00:01.6,0.001996994,0.005149841,0.005327225,0,
00:01.6,0.002054214,0.005184174,0.005281448,0,
00:01.6,0.002048492,0.005195618,0.005264282,0,
00:01.6,0.00201416,0.005178452,0.005264282,0,
00:01.6,0.002025604,0.005155563,0.005264282,0,
00:01.6,0.002025604,0.005144119,0.005252838,0,
00:01.6,0.00201416,0.005132675,0.00525856,0,
00:01.6,0.002019882,0.005178452,0.005275726,0,
00:01.6,0.002025604,0.005167007,0.005292892,0,
00:01.6,0.002025604,0.005172729,0.005264282,0,
00:01.6,0.002019882,0.00520134,0.005252838,0,
00:01.6,0.002031326,0.00520134,0.00525856,0,
00:01.6,0.00204277,0.005184174,0.005241394,0,
00:01.6,0.002019882,0.005155563,0.005252838,0,
00:01.6,0.002037048,0.005172729,0.005270004,0,
00:01.6,0.002037048,0.005172729,0.00525856,0,
00:01.6,0.002037048,0.005189896,0.005264282,0,
00:01.6,0.002031326,0.005184174,0.00525856,0,
00:01.7,0.00204277,0.005172729,0.005178452,0,
00:01.7,0.002025604,0.005161285,0.005235672,0,
00:01.7,0.001968384,0.005144119,0.00528717,0,
00:01.7,0.002025604,0.005144119,0.005241394,0,
00:01.7,0.002054214,0.005155563,0.005344391,0,
00:01.7,0.002025604,0.005161285,0.005321503,0,
00:01.7,0.002019882,0.005155563,0.005298615,0,
00:01.7,0.00201416,0.005149841,0.00528717,0,
00:01.7,0.002031326,0.005178452,0.005298615,0,
00:01.7,0.002025604,0.005161285,0.005275726,0,
00:01.7,0.002025604,0.005155563,0.005264282,0,
00:01.7,0.002008438,0.005167007,0.005292892,0,
00:01.7,0.002002716,0.005149841,0.00528717,0,
00:01.7,0.00201416,0.005167007,0.005310059,0,
00:01.7,0.002037048,0.005189896,0.005275726,0,
00:01.7,0.00204277,0.005189896,0.00528717,0,
00:01.7,0.002025604,0.005172729,0.005298615,0,
00:01.7,0.002077103,0.005178452,0.005178452,0,
00:01.7,0.00201416,0.005155563,0.005310059,0,
00:01.7,0.00198555,0.005149841,0.005338669,0,
00:01.7,0.002019882,0.005167007,0.005281448,0,
00:01.7,0.002059937,0.005167007,0.005264282,0,
00:01.7,0.002065659,0.005167007,0.005218506,0,
00:01.7,0.002008438,0.005155563,0.005292892,0,
00:01.7,0.002019882,0.005161285,0.005304337,0,
00:01.8,0.001996994,0.005144119,0.005378723,0,
00:01.8,0.002019882,0.005144119,0.005350113,0,
00:01.8,0.00201416,0.005144119,0.005310059,0,
00:01.8,0.002031326,0.005144119,0.005281448,0,
00:01.8,0.002031326,0.005149841,0.00525856,0,
00:01.8,0.002019882,0.005167007,0.005338669,0,
00:01.8,0.002025604,0.005167007,0.005344391,0,
00:01.8,0.002019882,0.005167007,0.005338669,0,
00:01.8,0.002019882,0.005167007,0.005327225,0,
00:01.8,0.002025604,0.005149841,0.005321503,0,
00:01.8,0.002031326,0.005167007,0.005304337,0,
00:01.8,0.00204277,0.005184174,0.00525856,0,
00:01.8,0.002059937,0.005184174,0.005327225,0,
00:01.8,0.002025604,0.005172729,0.005298615,0,
00:01.8,0.002025604,0.005167007,0.005315781,0,
00:01.8,0.002019882,0.005155563,0.005350113,0,
00:01.8,0.00204277,0.005178452,0.005292892,0,
00:01.8,0.002071381,0.005161285,0.005218506,0,
00:01.8,0.002019882,0.005155563,0.005281448,0,
00:01.8,0.002002716,0.005172729,0.005338669,0,
00:01.8,0.002031326,0.005155563,0.005384445,0,
00:01.8,0.002048492,0.005149841,0.005350113,0,
00:01.8,0.002031326,0.005149841,0.005327225,0,
00:01.8,0.002037048,0.005144119,0.005338669,0,
00:01.8,0.002008438,0.005138397,0.005344391,0,
00:01.9,0.00201416,0.005155563,0.005332947,0,
00:01.9,0.002031326,0.005155563,0.005344391,0,
00:01.9,0.002025604,0.005149841,0.005350113,0,
00:01.9,0.002019882,0.005167007,0.005332947,0,
00:01.9,0.002048492,0.005167007,0.005292892,0,
00:01.9,0.002031326,0.005155563,0.005292892,0,
00:01.9,0.00201416,0.005161285,0.005367279,0,
00:01.9,0.00204277,0.005178452,0.005361557,0,
00:01.9,0.002025604,0.005184174,0.005344391,0,
00:01.9,0.002031326,0.005178452,0.005367279,0,
00:01.9,0.002019882,0.005161285,0.005338669,0,
00:01.9,0.002031326,0.005167007,0.005327225,0,
00:01.9,0.002082825,0.005178452,0.005252838,0,
00:01.9,0.002048492,0.005167007,0.005327225,0,
00:01.9,0.002037048,0.005161285,0.005332947,0,
00:01.9,0.00201416,0.005161285,0.005361557,0,
00:01.9,0.002019882,0.005172729,0.005390167,0,
00:01.9,0.002025604,0.005161285,0.005338669,0,
00:01.9,0.002059937,0.005144119,0.005264282,0,
00:01.9,0.00204277,0.005138397,0.005332947,0,
00:01.9,0.00201416,0.005155563,0.005384445,0,
00:01.9,0.00201416,0.005178452,0.005384445,0,
00:01.9,0.002008438,0.005161285,0.005390167,0,
00:01.9,0.00201416,0.005144119,0.005378723,0,
00:01.9,0.002031326,0.005155563,0.005355835,0,
00:02.0,0.00204277,0.005184174,0.005304337,0,
00:02.0,0.002008438,0.005178452,0.005395889,0,
00:02.0,0.002019882,0.005189896,0.005401611,0,
00:02.0,0.002025604,0.005184174,0.005378723,0,
00:02.0,0.002048492,0.005189896,0.005361557,0,
00:02.0,0.002031326,0.005178452,0.005332947,0,
00:02.0,0.002031326,0.005178452,0.005332947,0,
00:02.0,0.002037048,0.005172729,0.005395889,0,
00:02.0,0.002054214,0.005184174,0.005395889,0,
00:02.0,0.002048492,0.005184174,0.005355835,0,
00:02.0,0.00201416,0.005167007,0.005344391,0,
00:02.0,0.00201416,0.005167007,0.005395889,0,
00:00:02,0.002025604,0.005167007,0.005355835,0,
00:02.0,0.002065659,0.005167007,0.005350113,0,
00:02.0,0.002082825,0.005155563,0.005384445,0,
00:02.0,0.002008438,0.005149841,0.005373001,0,
00:02.0,0.002002716,0.005149841,0.005378723,0,
00:02.0,0.00201416,0.005167007,0.005338669,0,
00:02.0,0.002019882,0.005172729,0.005395889,0,
00:02.0,0.002019882,0.005184174,0.005407333,0,
00:02.0,0.002031326,0.005184174,0.005401611,0,
00:02.0,0.002037048,0.005195618,0.005373001,0,
00:02.0,0.002025604,0.005189896,0.005355835,0,
00:02.0,0.002019882,0.005172729,0.005395889,0,
00:02.0,0.002019882,0.005172729,0.005418777,0,
00:02.1,0.002037048,0.005172729,0.005418777,0,
00:02.1,0.002037048,0.005167007,0.005407333,0,
00:02.1,0.002008438,0.005178452,0.005384445,0,
00:02.1,0.002037048,0.005184174,0.005418777,0,
00:02.1,0.002048492,0.005189896,0.005407333,0,
00:02.1,0.002025604,0.005184174,0.005395889,0,
00:02.1,0.00204277,0.005161285,0.005367279,0,
00:02.1,0.002054214,0.005189896,0.005327225,0,
00:02.1,0.002082825,0.00520134,0.005350113,0,
00:02.1,0.002019882,0.005172729,0.005435944,0,
00:02.1,0.002002716,0.005161285,0.005441666,0,
00:02.1,0.002037048,0.005167007,0.005413055,0,
00:02.1,0.002065659,0.005167007,0.005378723,0,
00:02.1,0.00201416,0.005167007,0.005344391,0,
00:02.1,0.002002716,0.005155563,0.005441666,0,
00:02.1,0.002008438,0.005149841,0.00545311,0,
00:02.1,0.00201416,0.005167007,0.005470276,0,
00:02.1,0.002025604,0.00520134,0.005430222,0,
00:02.1,0.002025604,0.005195618,0.005441666,0,
00:02.1,0.002019882,0.005172729,0.005435944,0,
00:02.1,0.002019882,0.005144119,0.005413055,0,
00:02.1,0.002037048,0.005195618,0.005390167,0,
00:02.1,0.00204277,0.00520134,0.0054245,0,
00:02.1,0.00204277,0.005189896,0.00545311,0,
00:02.1,0.002019882,0.00520134,0.0054245,0,
00:02.2,0.002054214,0.005207062,0.005413055,0,
00:02.2,0.002031326,0.00520134,0.005441666,0,
00:02.2,0.002059937,0.00520134,0.005350113,0,
00:02.2,0.002059937,0.005184174,0.00525856,0,
00:02.2,0.002008438,0.005195618,0.005470276,0,
00:02.2,0.002037048,0.005184174,0.005458832,0,
00:02.2,0.00201416,0.005172729,0.005470276,0,
00:02.2,0.002037048,0.005195618,0.005435944,0,
00:02.2,0.002048492,0.005184174,0.005487442,0,
00:02.2,0.00201416,0.005172729,0.005464554,0,
00:02.2,0.002002716,0.005167007,0.005458832,0,
00:02.2,0.002019882,0.005149841,0.005441666,0,
00:02.2,0.002025604,0.005155563,0.0054245,0,
00:02.2,0.002002716,0.005189896,0.00545311,0,
00:02.2,0.002019882,0.005207062,0.005464554,0,
00:02.2,0.002025604,0.005189896,0.005447388,0,
00:02.2,0.002019882,0.005189896,0.005475998,0,
00:02.2,0.002025604,0.005218506,0.005464554,0,
00:02.2,0.002031326,0.005207062,0.005464554,0,
00:02.2,0.002037048,0.005207062,0.00545311,0,
00:02.2,0.002025604,0.005189896,0.005441666,0,
00:02.2,0.00204277,0.005184174,0.005413055,0,
00:02.2,0.002071381,0.00520134,0.005373001,0,
00:02.2,0.002054214,0.005207062,0.005407333,0,
00:02.2,0.002059937,0.005218506,0.005344391,0,
00:02.3,0.001996994,0.005184174,0.005458832,0,
00:02.3,0.002054214,0.005184174,0.005544662,0,
00:02.3,0.002019882,0.005178452,0.00551033,0,
00:02.3,0.002025604,0.005178452,0.005464554,0,
00:02.3,0.00204277,0.005178452,0.005470276,0,
00:02.3,0.001996994,0.005167007,0.005447388,0,
00:02.3,0.002008438,0.005132675,0.00551033,0,
00:02.3,0.001996994,0.005126953,0.00551033,0,
00:02.3,0.002002716,0.005167007,0.005475998,0,
00:02.3,0.00201416,0.005189896,0.005464554,0,
00:02.3,0.00201416,0.005207062,0.005504608,0,
00:02.3,0.002019882,0.005195618,0.005521774,0,
00:02.3,0.002019882,0.005195618,0.00551033,0,
00:02.3,0.002048492,0.005212784,0.005470276,0,
00:02.3,0.002054214,0.005212784,0.005475998,0,
00:02.3,0.002025604,0.005195618,0.005493164,0,
00:02.3,0.001996994,0.005189896,0.005504608,0,
00:02.3,0.002019882,0.00520134,0.005493164,0,
00:02.3,0.002048492,0.005195618,0.00545311,0,
00:02.3,0.002071381,0.00520134,0.005401611,0,
00:02.3,0.002048492,0.005195618,0.005464554,0,
00:02.3,0.002037048,0.005189896,0.005464554,0,
00:02.3,0.002008438,0.005189896,0.005447388,0,
00:02.3,0.001996994,0.005161285,0.005556107,0,
00:02.3,0.002008438,0.005161285,0.005544662,0,
00:02.4,0.002019882,0.005184174,0.00545311,0,
00:02.4,0.002008438,0.005184174,0.005527496,0,
00:02.4,0.00204277,0.005167007,0.00551033,0,
00:02.4,0.002008438,0.005155563,0.005498886,0,
00:02.4,0.001991272,0.005161285,0.005527496,0,
00:02.4,0.002002716,0.005184174,0.005516052,0,
00:02.4,0.002025604,0.005218506,0.005516052,0,
00:02.4,0.00201416,0.005207062,0.005527496,0,
00:02.4,0.00201416,0.005218506,0.005527496,0,
00:02.4,0.001996994,0.00520134,0.005527496,0,
00:02.4,0.002008438,0.005184174,0.00551033,0,
00:02.4,0.00201416,0.005184174,0.005487442,0,
00:02.4,0.00201416,0.005184174,0.005516052,0,
00:02.4,0.002019882,0.005189896,0.005498886,0,
00:02.4,0.002025604,0.005189896,0.005504608,0,
00:02.4,0.002059937,0.005207062,0.005441666,0,
00:02.4,0.002008438,0.005218506,0.005384445,0,
00:02.4,0.002037048,0.005212784,0.005487442,0,
00:02.4,0.002054214,0.005195618,0.005556107,0,
00:02.4,0.002077103,0.005172729,0.005527496,0,
00:02.4,0.002037048,0.005184174,0.005516052,0,
00:02.4,0.001991272,0.005184174,0.005550385,0,
00:02.4,0.001979828,0.005184174,0.005567551,0,
00:02.4,0.002019882,0.005184174,0.005550385,0,
00:02.4,0.002008438,0.005167007,0.005516052,0,
00:02.5,0.002002716,0.005144119,0.005544662,0,
00:02.5,0.002008438,0.005172729,0.005533218,0,
00:02.5,0.002019882,0.005212784,0.005556107,0,
00:02.5,0.002031326,0.005218506,0.005550385,0,
00:02.5,0.002025604,0.00520134,0.005544662,0,
00:02.5,0.002025604,0.005212784,0.00553894,0,
00:02.5,0.002025604,0.00520134,0.005521774,0,
00:02.5,0.002025604,0.00520134,0.005544662,0,
00:02.5,0.002048492,0.005212784,0.005544662,0,
00:02.5,0.002059937,0.005212784,0.00548172,0,
00:02.5,0.002071381,0.005224228,0.005464554,0,
00:02.5,0.00204277,0.005212784,0.005458832,0,
00:02.5,0.002037048,0.005189896,0.005458832,0,
00:02.5,0.002082825,0.005207062,0.005487442,0,
00:02.5,0.001974106,0.005189896,0.005659103,0,
00:02.5,0.002054214,0.005195618,0.005590439,0,
00:02.5,0.002031326,0.005172729,0.005516052,0,
00:02.5,0.002025604,0.005172729,0.005561829,0,
00:02.5,0.002008438,0.005189896,0.005573273,0,
00:02.5,0.002002716,0.005189896,0.005567551,0,
00:02.5,0.002008438,0.005184174,0.005556107,0,
00:02.5,0.00201416,0.005195618,0.005544662,0,
00:02.5,0.002031326,0.005207062,0.005544662,0,
00:02.5,0.002025604,0.005218506,0.005550385,0,
00:02.5,0.002019882,0.005207062,0.005573273,0,
00:02.6,0.002019882,0.005184174,0.005561829,0,
00:02.6,0.002025604,0.005178452,0.005544662,0,
00:02.6,0.002031326,0.005207062,0.00553894,0,
00:02.6,0.002025604,0.005212784,0.005521774,0,
00:02.6,0.002048492,0.005218506,0.00545311,0,
00:02.6,0.002099991,0.005212784,0.005418777,0,
00:02.6,0.002054214,0.00520134,0.005533218,0,
00:02.6,0.002002716,0.00520134,0.005561829,0,
00:02.6,0.00198555,0.005189896,0.005636215,0,
00:02.6,0.002002716,0.005184174,0.005533218,0,
00:02.6,0.002037048,0.005178452,0.005550385,0,
00:02.6,0.002019882,0.005178452,0.005607605,0,
00:02.6,0.002054214,0.005184174,0.005561829,0,
00:02.6,0.002019882,0.005184174,0.005584717,0,
00:02.6,0.002008438,0.005178452,0.005573273,0,
00:02.6,0.001996994,0.005161285,0.005561829,0,
00:02.6,0.002002716,0.005178452,0.005561829,0,
00:02.6,0.002019882,0.005178452,0.005578995,0,
00:02.6,0.002025604,0.005195618,0.005567551,0,
00:02.6,0.002025604,0.005224228,0.005567551,0,
00:02.6,0.002025604,0.005212784,0.005578995,0,
00:02.6,0.002025604,0.005218506,0.005578995,0,
00:02.6,0.002031326,0.005212784,0.005578995,0,
00:02.6,0.002037048,0.005207062,0.005567551,0,
00:02.6,0.002054214,0.005224228,0.005487442,0,
00:02.7,0.002054214,0.005218506,0.00553894,0,
00:02.7,0.002048492,0.005195618,0.005561829,0,
00:02.7,0.002025604,0.00520134,0.005584717,0,
00:02.7,0.002071381,0.005212784,0.005475998,0,
00:02.7,0.002025604,0.005184174,0.005521774,0,
00:02.7,0.002019882,0.005184174,0.005624771,0,
00:02.7,0.002037048,0.005212784,0.005578995,0,
00:02.7,0.001996994,0.005178452,0.005596161,0,
00:02.7,0.001996994,0.005161285,0.005607605,0,
00:02.7,0.002008438,0.005178452,0.005596161,0,
00:02.7,0.002031326,0.005184174,0.005573273,0,
00:02.7,0.002019882,0.00520134,0.005578995,0,
00:02.7,0.002025604,0.005207062,0.005596161,0,
00:02.7,0.002019882,0.005207062,0.005607605,0,
00:02.7,0.002019882,0.005212784,0.005601883,0,
00:02.7,0.002025604,0.00520134,0.005590439,0,
00:02.7,0.002037048,0.005195618,0.005584717,0,
00:02.7,0.002031326,0.005195618,0.005578995,0,
00:02.7,0.002031326,0.005207062,0.005556107,0,
00:02.7,0.002048492,0.005241394,0.005561829,0,
00:02.7,0.002088547,0.005241394,0.005516052,0,
00:02.7,0.002071381,0.00522995,0.005475998,0,
00:02.7,0.002025604,0.00520134,0.005596161,0,
00:02.7,0.001991272,0.005189896,0.005624771,0,
00:02.7,0.002025604,0.005212784,0.005556107,0,
00:02.8,0.002048492,0.005195618,0.005544662,0,
00:02.8,0.00204277,0.005184174,0.005578995,0,
00:02.8,0.00198555,0.005178452,0.005624771,0,
00:02.8,0.002019882,0.005195618,0.005619049,0,
00:02.8,0.002025604,0.005189896,0.005601883,0,
00:02.8,0.002019882,0.005178452,0.005596161,0,
00:02.8,0.00201416,0.005189896,0.005596161,0,
00:02.8,0.002019882,0.005218506,0.005584717,0,
00:02.8,0.002025604,0.00520134,0.005578995,0,
00:02.8,0.002025604,0.005189896,0.005590439,0,
00:02.8,0.002025604,0.005212784,0.005596161,0,
00:02.8,0.002019882,0.005212784,0.005613327,0,
00:02.8,0.002037048,0.005224228,0.005584717,0,
00:02.8,0.002031326,0.005212784,0.005561829,0,
00:02.8,0.002031326,0.005212784,0.005561829,0,
00:02.8,0.002071381,0.00522995,0.005561829,0,
00:02.8,0.00204277,0.005218506,0.005533218,0,
00:02.8,0.001996994,0.005207062,0.005636215,0,
00:02.8,0.00204277,0.005224228,0.005584717,0,
00:02.8,0.002111435,0.005235672,0.005475998,0,
00:02.8,0.002025604,0.00520134,0.005533218,0,
00:02.8,0.00198555,0.005195618,0.005659103,0,
00:02.8,0.002002716,0.005184174,0.005653381,0,
00:02.8,0.002037048,0.005189896,0.005590439,0,
00:02.8,0.002019882,0.005184174,0.005584717,0,
00:02.9,0.002008438,0.005189896,0.005619049,0,
00:02.9,0.002019882,0.005184174,0.005613327,0,
00:02.9,0.002025604,0.005212784,0.005601883,0,
00:02.9,0.002025604,0.005189896,0.005584717,0,
00:02.9,0.002019882,0.005184174,0.005578995,0,
00:02.9,0.002031326,0.005207062,0.005596161,0,
00:02.9,0.002037048,0.005224228,0.005607605,0,
00:02.9,0.002037048,0.005235672,0.005596161,0,
00:02.9,0.002054214,0.005241394,0.005584717,0,
00:02.9,0.002054214,0.005224228,0.005567551,0,
00:02.9,0.002054214,0.005224228,0.005516052,0,
00:02.9,0.002048492,0.005212784,0.005590439,0,
00:02.9,0.002037048,0.005207062,0.005584717,0,
00:02.9,0.002077103,0.00522995,0.00551033,0,
00:02.9,0.001996994,0.00520134,0.005596161,0,
00:02.9,0.001979828,0.005189896,0.005607605,0,
00:02.9,0.002071381,0.005207062,0.005590439,0,
00:02.9,0.002031326,0.005195618,0.005590439,0,
00:02.9,0.00201416,0.005189896,0.005630493,0,
00:02.9,0.002031326,0.00520134,0.005601883,0,
00:02.9,0.002025604,0.005195618,0.005613327,0,
00:02.9,0.00201416,0.005195618,0.005596161,0,
00:02.9,0.002008438,0.005189896,0.005613327,0,
00:02.9,0.00201416,0.005195618,0.005607605,0,
00:02.9,0.002019882,0.005218506,0.005601883,0,
00:03.0,0.002025604,0.00522995,0.005607605,0,
00:03.0,0.002031326,0.005224228,0.005607605,0,
00:03.0,0.00204277,0.005241394,0.005584717,0,
00:03.0,0.002031326,0.005212784,0.005578995,0,
00:03.0,0.002048492,0.005207062,0.005567551,0,
00:03.0,0.00204277,0.005218506,0.005527496,0,
00:03.0,0.002031326,0.005218506,0.005561829,0,
00:03.0,0.002065659,0.005224228,0.005578995,0,
00:03.0,0.002025604,0.005224228,0.005533218,0,
00:03.0,0.002065659,0.00522995,0.005613327,0,
00:03.0,0.002094269,0.005235672,0.00553894,0,
00:03.0,0.002008438,0.00520134,0.005659103,0,
00:00:03,0.002002716,0.005195618,0.005613327,0,
00:03.0,0.002008438,0.005184174,0.005664825,0,
00:03.0,0.002008438,0.005172729,0.005624771,0,
00:03.0,0.002002716,0.005184174,0.005607605,0,
00:03.0,0.002031326,0.005195618,0.005607605,0,
00:03.0,0.002025604,0.005189896,0.005601883,0,
00:03.0,0.002019882,0.005212784,0.005607605,0,
00:03.0,0.002025604,0.005212784,0.005624771,0,
00:03.0,0.002031326,0.005218506,0.005607605,0,
00:03.0,0.002031326,0.005212784,0.005596161,0,
00:03.0,0.00204277,0.005212784,0.005567551,0,
00:03.0,0.002054214,0.005241394,0.005556107,0,
00:03.0,0.002031326,0.005218506,0.005619049,0,
00:03.1,0.002031326,0.005218506,0.005630493,0,
00:03.1,0.002054214,0.00522995,0.005584717,0,
00:03.1,0.002077103,0.005224228,0.005544662,0,
00:03.1,0.002065659,0.005224228,0.005487442,0,
00:03.1,0.002008438,0.005212784,0.005573273,0,
00:03.1,0.001996994,0.005195618,0.005641937,0,
00:03.1,0.002037048,0.00520134,0.005641937,0,
00:03.1,0.002077103,0.00520134,0.005590439,0,
00:03.1,0.002059937,0.005195618,0.005636215,0,
00:03.1,0.002002716,0.00520134,0.005630493,0,
00:03.1,0.00201416,0.005195618,0.005607605,0,
00:03.1,0.002031326,0.00520134,0.005601883,0,
00:03.1,0.002019882,0.005212784,0.005613327,0,
00:03.1,0.002025604,0.005212784,0.005619049,0,
00:03.1,0.002031326,0.00520134,0.005607605,0,
00:03.1,0.002019882,0.005178452,0.005567551,0,
00:03.1,0.002019882,0.005178452,0.005601883,0,
00:03.1,0.002025604,0.005218506,0.005619049,0,
00:03.1,0.002059937,0.005252838,0.005578995,0,
00:03.1,0.002065659,0.005252838,0.005504608,0,
00:03.1,0.002031326,0.00520134,0.005607605,0,
00:03.1,0.002031326,0.005224228,0.005636215,0,
00:03.1,0.00204277,0.005235672,0.005619049,0,
00:03.1,0.002065659,0.005224228,0.005561829,0,
00:03.1,0.00204277,0.005224228,0.005567551,0,
00:03.2,0.002077103,0.005218506,0.005556107,0,
00:03.2,0.002031326,0.005207062,0.005550385,0,
00:03.2,0.00201416,0.00520134,0.005619049,0,
00:03.2,0.002037048,0.005207062,0.005653381,0,
00:03.2,0.002048492,0.005218506,0.005601883,0,
00:03.2,0.002031326,0.005212784,0.005619049,0,
00:03.2,0.002025604,0.00520134,0.005567551,0,
00:03.2,0.00201416,0.005184174,0.005578995,0,
00:03.2,0.002008438,0.00520134,0.005647659,0,
00:03.2,0.00201416,0.005195618,0.005630493,0,
00:03.2,0.00201416,0.005207062,0.005636215,0,
00:03.2,0.00201416,0.00520134,0.005619049,0,
00:03.2,0.002019882,0.005195618,0.005613327,0,
00:03.2,0.002025604,0.005207062,0.005601883,0,
00:03.2,0.002037048,0.005218506,0.005619049,0,
00:03.2,0.002037048,0.005218506,0.005613327,0,
00:03.2,0.002048492,0.005241394,0.005607605,0,
00:03.2,0.002059937,0.005241394,0.005567551,0,
00:03.2,0.002065659,0.005235672,0.00553894,0,
00:03.2,0.00204277,0.005218506,0.005601883,0,
00:03.2,0.002059937,0.00522995,0.005556107,0,
00:03.2,0.002037048,0.00522995,0.00551033,0,
00:03.2,0.002025604,0.005207062,0.005596161,0,
00:03.2,0.002054214,0.005212784,0.005493164,0,
00:03.2,0.002031326,0.005195618,0.005619049,0,
00:03.3,0.002071381,0.005184174,0.005681992,0,
00:03.3,0.002065659,0.005184174,0.005659103,0,
00:03.3,0.002008438,0.005195618,0.005590439,0,
00:03.3,0.00201416,0.005207062,0.005641937,0,
00:03.3,0.002025604,0.005207062,0.005619049,0,
00:03.3,0.002025604,0.00520134,0.005619049,0,
00:03.3,0.002019882,0.005207062,0.005613327,0,
00:03.3,0.002019882,0.00520134,0.005613327,0,
00:03.3,0.002031326,0.005224228,0.005619049,0,
00:03.3,0.002037048,0.005235672,0.005613327,0,
00:03.3,0.002037048,0.005224228,0.005613327,0,
00:03.3,0.00204277,0.005207062,0.005607605,0,
00:03.3,0.002037048,0.00520134,0.005601883,0,
00:03.3,0.00204277,0.005218506,0.005578995,0,
00:03.3,0.002054214,0.00522995,0.005521774,0,
00:03.3,0.002031326,0.005218506,0.005561829,0,
00:03.3,0.002019882,0.005224228,0.005578995,0,
00:03.3,0.002054214,0.005224228,0.005533218,0,
00:03.3,0.002077103,0.005212784,0.005527496,0,
00:03.3,0.002071381,0.005224228,0.005584717,0,
00:03.3,0.002008438,0.005189896,0.005584717,0,
00:03.3,0.002002716,0.005161285,0.005670547,0,
00:03.3,0.002031326,0.005178452,0.005641937,0,
00:03.3,0.002002716,0.005195618,0.005636215,0,
00:03.3,0.002025604,0.005207062,0.005630493,0,
00:03.4,0.002048492,0.005189896,0.005601883,0,
00:03.4,0.002025604,0.005235672,0.005613327,0,
00:03.4,0.002019882,0.005247116,0.005619049,0,
00:03.4,0.002025604,0.00522995,0.005613327,0,
00:03.4,0.002025604,0.005224228,0.005613327,0,
00:03.4,0.002031326,0.005212784,0.005613327,0,
00:03.4,0.002025604,0.005224228,0.005607605,0,
00:03.4,0.002037048,0.005235672,0.005590439,0,
00:03.4,0.002059937,0.005247116,0.005556107,0,
00:03.4,0.002071381,0.005235672,0.005521774,0,
00:03.4,0.002054214,0.00522995,0.005527496,0,
00:03.4,0.002019882,0.005218506,0.005624771,0,
00:03.4,0.00201416,0.005218506,0.005624771,0,
00:03.4,0.002059937,0.005241394,0.00551033,0,
00:03.4,0.002037048,0.005212784,0.005590439,0,
00:03.4,0.002025604,0.005207062,0.005659103,0,
00:03.4,0.002031326,0.005212784,0.005613327,0,
00:03.4,0.002025604,0.005212784,0.005601883,0,
00:03.4,0.002019882,0.00522995,0.005601883,0,
00:03.4,0.00201416,0.005207062,0.005636215,0,
00:03.4,0.002008438,0.00520134,0.005613327,0,
00:03.4,0.002008438,0.005195618,0.005601883,0,
00:03.4,0.002019882,0.00520134,0.005567551,0,
00:03.4,0.002019882,0.005224228,0.005607605,0,
00:03.4,0.002019882,0.005241394,0.005607605,0,
00:03.5,0.002025604,0.005235672,0.005607605,0,
00:03.5,0.002031326,0.005235672,0.005590439,0,
00:03.5,0.002031326,0.005247116,0.005584717,0,
00:03.5,0.002037048,0.005264282,0.005573273,0,
00:03.5,0.002031326,0.005241394,0.005613327,0,
00:03.5,0.002059937,0.005241394,0.005584717,0,
00:03.5,0.002094269,0.005252838,0.00548172,0,
00:03.5,0.001979828,0.00522995,0.005601883,0,
00:03.5,0.001996994,0.005212784,0.005653381,0,
00:03.5,0.002054214,0.00522995,0.005584717,0,
00:03.5,0.002065659,0.005235672,0.00553894,0,
00:03.5,0.002019882,0.005224228,0.005578995,0,
00:03.5,0.002065659,0.005224228,0.005596161,0,
00:03.5,0.002019882,0.00522995,0.005584717,0,
00:03.5,0.00201416,0.00522995,0.005619049,0,
00:03.5,0.002008438,0.005224228,0.005607605,0,
00:03.5,0.002008438,0.00522995,0.005619049,0,
00:03.5,0.00201416,0.00522995,0.005607605,0,
00:03.5,0.00201416,0.005218506,0.005596161,0,
00:03.5,0.002019882,0.00522995,0.005590439,0,
00:03.5,0.002019882,0.005241394,0.005596161,0,
00:03.5,0.002019882,0.005241394,0.005590439,0,
00:03.5,0.002025604,0.005247116,0.005590439,0,
00:03.5,0.002037048,0.00525856,0.005578995,0,
00:03.5,0.002054214,0.005264282,0.005521774,0,
00:03.6,0.00204277,0.005247116,0.0054245,0,
00:03.6,0.002037048,0.005252838,0.005596161,0,
00:03.6,0.00201416,0.005218506,0.005641937,0,
00:03.6,0.00201416,0.005235672,0.005607605,0,
00:03.6,0.002019882,0.00522995,0.005578995,0,
00:03.6,0.002048492,0.005235672,0.005578995,0,
00:03.6,0.002037048,0.005241394,0.005567551,0,
00:03.6,0.001996994,0.00522995,0.005561829,0,
00:03.6,0.00204277,0.00522995,0.005596161,0,
00:03.6,0.002019882,0.005207062,0.005619049,0,
00:03.6,0.00201416,0.005212784,0.005613327,0,
00:03.6,0.00204277,0.005224228,0.005596161,0,
00:03.6,0.002031326,0.005241394,0.005590439,0,
00:03.6,0.00201416,0.005241394,0.005590439,0,
00:03.6,0.002019882,0.005212784,0.005590439,0,
00:03.6,0.002019882,0.00520134,0.005584717,0,
00:03.6,0.00201416,0.005241394,0.005584717,0,
00:03.6,0.002025604,0.005247116,0.005596161,0,
00:03.6,0.002025604,0.005252838,0.005578995,0,
00:03.6,0.002048492,0.005252838,0.005567551,0,
00:03.6,0.002037048,0.005235672,0.005516052,0,
00:03.6,0.002025604,0.005235672,0.005567551,0,
00:03.6,0.002025604,0.005247116,0.005475998,0,
00:03.6,0.002059937,0.005241394,0.005584717,0,
00:03.6,0.002037048,0.005241394,0.005630493,0,
00:03.7,0.00201416,0.005241394,0.005601883,0,
00:03.7,0.002008438,0.005252838,0.005556107,0,
00:03.7,0.002094269,0.00525856,0.00551033,0,
00:03.7,0.002019882,0.005241394,0.005596161,0,
00:03.7,0.002008438,0.00522995,0.005659103,0,
00:03.7,0.002008438,0.00522995,0.005607605,0,
00:03.7,0.002008438,0.005235672,0.005578995,0,
00:03.7,0.00201416,0.00522995,0.005613327,0,
00:03.7,0.002019882,0.00522995,0.005601883,0,
00:03.7,0.002025604,0.00522995,0.005596161,0,
00:03.7,0.002025604,0.005207062,0.005590439,0,
00:03.7,0.002025604,0.005247116,0.005584717,0,
00:03.7,0.002031326,0.00528717,0.005601883,0,
00:03.7,0.002025604,0.005252838,0.005590439,0,
00:03.7,0.002031326,0.005247116,0.005590439,0,
00:03.7,0.002031326,0.005235672,0.005584717,0,
00:03.7,0.002037048,0.005241394,0.005567551,0,
00:03.7,0.002048492,0.005247116,0.005533218,0,
00:03.7,0.002037048,0.00525856,0.005527496,0,
00:03.7,0.002117157,0.005264282,0.00551033,0,
00:03.7,0.002099991,0.005241394,0.005504608,0,
00:03.7,0.001974106,0.005207062,0.005659103,0,
00:03.7,0.001991272,0.005235672,0.005653381,0,
00:03.7,0.001996994,0.005241394,0.005607605,0,
00:03.7,0.002111435,0.00522995,0.00553894,0,
00:03.8,0.002054214,0.005212784,0.005556107,0,
00:03.8,0.002019882,0.005252838,0.005630493,0,
00:03.8,0.002019882,0.005247116,0.005619049,0,
00:03.8,0.002019882,0.005247116,0.005601883,0,
00:03.8,0.002019882,0.005224228,0.005590439,0,
00:03.8,0.002025604,0.005224228,0.005590439,0,
00:03.8,0.002031326,0.005241394,0.005590439,0,
00:03.8,0.00204277,0.005252838,0.005584717,0,
00:03.8,0.002037048,0.005247116,0.005584717,0,
00:03.8,0.002031326,0.005241394,0.005584717,0,
00:03.8,0.002031326,0.005247116,0.005590439,0,
00:03.8,0.002037048,0.005247116,0.005550385,0,
00:03.8,0.002077103,0.005264282,0.00545311,0,
00:03.8,0.002065659,0.00525856,0.005498886,0,
00:03.8,0.002031326,0.00522995,0.005613327,0,
00:03.8,0.002031326,0.00522995,0.005630493,0,
00:03.8,0.002031326,0.005247116,0.005584717,0,
00:03.8,0.00204277,0.005247116,0.005498886,0,
00:03.8,0.002037048,0.005212784,0.005544662,0,
00:03.8,0.002065659,0.00522995,0.005504608,0,
00:03.8,0.002002716,0.005207062,0.005607605,0,
00:03.8,0.001991272,0.005195618,0.005647659,0,
00:03.8,0.002019882,0.00522995,0.005613327,0,
00:03.8,0.002025604,0.005247116,0.005596161,0,
00:03.8,0.002025604,0.005235672,0.005578995,0,
00:03.9,0.002019882,0.005235672,0.005584717,0,
00:03.9,0.002025604,0.005235672,0.005573273,0,
00:03.9,0.002025604,0.005235672,0.005567551,0,
00:03.9,0.002025604,0.005235672,0.005584717,0,
00:03.9,0.002037048,0.005247116,0.005573273,0,
00:03.9,0.00204277,0.005252838,0.005504608,0,
00:03.9,0.00204277,0.00525856,0.005578995,0,
00:03.9,0.002037048,0.005252838,0.005601883,0,
00:03.9,0.002031326,0.005241394,0.005550385,0,
00:03.9,0.002025604,0.005235672,0.005573273,0,
00:03.9,0.002025604,0.005252838,0.005521774,0,
00:03.9,0.002071381,0.005252838,0.005487442,0,
00:03.9,0.00204277,0.005235672,0.005550385,0,
00:03.9,0.00201416,0.00522995,0.005630493,0,
00:03.9,0.002008438,0.00522995,0.005619049,0,
00:03.9,0.00204277,0.005224228,0.005556107,0,
00:03.9,0.002025604,0.005235672,0.005487442,0,
00:03.9,0.002025604,0.005218506,0.005578995,0,
00:03.9,0.002019882,0.005207062,0.005607605,0,
00:03.9,0.00201416,0.005218506,0.005596161,0,
00:03.9,0.00201416,0.005212784,0.005584717,0,
00:03.9,0.002019882,0.005218506,0.005578995,0,
00:03.9,0.002025604,0.00522995,0.005561829,0,
00:03.9,0.002031326,0.005241394,0.005578995,0,
00:03.9,0.002037048,0.005247116,0.005584717,0,
00:04.0,0.00204277,0.005264282,0.005578995,0,
00:04.0,0.002054214,0.00525856,0.005561829,0,
00:04.0,0.002054214,0.005247116,0.005487442,0,
00:04.0,0.002065659,0.005247116,0.005487442,0,
00:04.0,0.002065659,0.005241394,0.005550385,0,
00:04.0,0.002037048,0.005252838,0.005624771,0,
00:04.0,0.002025604,0.005247116,0.005578995,0,
00:04.0,0.002048492,0.005241394,0.005601883,0,
00:04.0,0.002105713,0.005247116,0.005573273,0,
00:04.0,0.002054214,0.005235672,0.005475998,0,
00:04.0,0.00198555,0.005218506,0.00553894,0,
00:04.0,0.00204277,0.00522995,0.005636215,0,
00:00:04,0.00204277,0.00522995,0.005596161,0,
00:04.0,0.002031326,0.00522995,0.005584717,0,
00:04.0,0.002031326,0.00522995,0.005584717,0,
00:04.0,0.002019882,0.005207062,0.005573273,0,
00:04.0,0.002019882,0.005218506,0.005561829,0,
00:04.0,0.00204277,0.00522995,0.005561829,0,
00:04.0,0.00204277,0.005235672,0.005573273,0,
00:04.0,0.002031326,0.005235672,0.005578995,0,
00:04.0,0.002048492,0.005252838,0.005573273,0,
00:04.0,0.002048492,0.005247116,0.005567551,0,
00:04.0,0.002065659,0.00525856,0.005527496,0,
00:04.0,0.002071381,0.005241394,0.005395889,0,
00:04.0,0.002019882,0.005218506,0.005561829,0,
00:04.1,0.002037048,0.00522995,0.005641937,0,
00:04.1,0.002054214,0.005247116,0.005613327,0,
00:04.1,0.002099991,0.005270004,0.005533218,0,
00:04.1,0.002059937,0.005264282,0.00551033,0,
00:04.1,0.002071381,0.005241394,0.00548172,0,
00:04.1,0.00204277,0.005218506,0.00553894,0,
00:04.1,0.002008438,0.005224228,0.005653381,0,
00:04.1,0.002025604,0.005252838,0.005630493,0,
00:04.1,0.00204277,0.005247116,0.005601883,0,
00:04.1,0.00204277,0.00522995,0.005590439,0,
00:04.1,0.002031326,0.005218506,0.005578995,0,
00:04.1,0.002031326,0.005224228,0.005578995,0,
00:04.1,0.002031326,0.005207062,0.005584717,0,
00:04.1,0.002037048,0.005212784,0.005573273,0,
00:04.1,0.00204277,0.00525856,0.005584717,0,
00:04.1,0.00204277,0.005252838,0.005584717,0,
00:04.1,0.00204277,0.005224228,0.005567551,0,
00:04.1,0.002037048,0.005224228,0.005561829,0,
00:04.1,0.002037048,0.00522995,0.005584717,0,
00:04.1,0.00204277,0.005235672,0.005573273,0,
00:04.1,0.002059937,0.005252838,0.005475998,0,
00:04.1,0.002088547,0.005252838,0.005521774,0,
00:04.1,0.002180099,0.005270004,0.005401611,0,
00:04.1,0.002031326,0.00522995,0.005619049,0,
00:04.1,0.002019882,0.005195618,0.00567627,0,
00:04.2,0.00201416,0.00520134,0.005613327,0,
00:04.2,0.00204277,0.005224228,0.005590439,0,
00:04.2,0.00204277,0.005235672,0.005613327,0,
00:04.2,0.002025604,0.005224228,0.005613327,0,
00:04.2,0.00204277,0.005224228,0.005601883,0,
00:04.2,0.002048492,0.005224228,0.005584717,0,
00:04.2,0.002037048,0.00520134,0.005590439,0,
00:04.2,0.002037048,0.005218506,0.005596161,0,
00:04.2,0.002054214,0.005224228,0.005596161,0,
00:04.2,0.002054214,0.005252838,0.005607605,0,
00:04.2,0.002059937,0.00525856,0.005607605,0,
00:04.2,0.002059937,0.005247116,0.005601883,0,
00:04.2,0.002059937,0.00522995,0.005596161,0,
00:04.2,0.002065659,0.005235672,0.005556107,0,
00:04.2,0.002077103,0.005247116,0.005527496,0,
00:04.2,0.002048492,0.005247116,0.005613327,0,
00:04.2,0.002037048,0.00522995,0.005641937,0,
00:04.2,0.002048492,0.005224228,0.005601883,0,
00:04.2,0.002151489,0.005252838,0.005533218,0,
00:04.2,0.002162933,0.005252838,0.0054245,0,
00:04.2,0.00198555,0.005207062,0.005659103,0,
00:04.2,0.002059937,0.005207062,0.005681992,0,
00:04.2,0.002048492,0.00520134,0.005664825,0,
00:04.2,0.002031326,0.005195618,0.005647659,0,
00:04.2,0.002048492,0.00520134,0.005641937,0,
00:04.3,0.002054214,0.005212784,0.005613327,0,
00:04.3,0.002059937,0.00522995,0.005630493,0,
00:04.3,0.002059937,0.005235672,0.005636215,0,
00:04.3,0.002054214,0.005218506,0.005636215,0,
00:04.3,0.002065659,0.00522995,0.005636215,0,
00:04.3,0.002065659,0.00522995,0.005647659,0,
00:04.3,0.002065659,0.005224228,0.005641937,0,
00:04.3,0.002065659,0.00522995,0.005630493,0,
00:04.3,0.002071381,0.005241394,0.005584717,0,
00:04.3,0.002088547,0.005224228,0.005624771,0,
00:04.3,0.002082825,0.005212784,0.005681992,0,
00:04.3,0.002071381,0.005207062,0.005641937,0,
00:04.3,0.002088547,0.00522995,0.005578995,0,
00:04.3,0.002140045,0.005235672,0.005521774,0,
00:04.3,0.002134323,0.005224228,0.00567627,0,
00:04.3,0.002077103,0.005212784,0.005739212,0,
00:04.3,0.002071381,0.005212784,0.00573349,0,
00:04.3,0.002054214,0.005195618,0.005693436,0,
00:04.3,0.00204277,0.005184174,0.005710602,0,
00:04.3,0.00201416,0.005189896,0.005681992,0,
00:04.3,0.002071381,0.005189896,0.005664825,0,
00:04.3,0.002065659,0.005184174,0.005681992,0,
00:04.3,0.002065659,0.005207062,0.005722046,0,
00:04.3,0.002088547,0.005195618,0.00570488,0,
00:04.3,0.002077103,0.005207062,0.005710602,0,
00:04.4,0.002071381,0.005218506,0.00570488,0,
00:04.4,0.002088547,0.005207062,0.00570488,0,
00:04.4,0.002088547,0.005224228,0.005722046,0,
00:04.4,0.002094269,0.005224228,0.00573349,0,
00:04.4,0.002088547,0.005195618,0.00573349,0,
00:04.4,0.002088547,0.005195618,0.005710602,0,
00:04.4,0.002082825,0.005207062,0.005693436,0,
00:04.4,0.002105713,0.005218506,0.005727768,0,
00:04.4,0.002140045,0.005218506,0.005584717,0,
00:04.4,0.002088547,0.005195618,0.005699158,0,
00:04.4,0.002054214,0.005189896,0.005819321,0,
00:04.4,0.002065659,0.005195618,0.005813599,0,
00:04.4,0.002111435,0.005189896,0.0057621,0,
00:04.4,0.002117157,0.005178452,0.005739212,0,
00:04.4,0.002099991,0.005184174,0.005773544,0,
00:04.4,0.002094269,0.005178452,0.005767822,0,
00:04.4,0.002059937,0.005161285,0.005819321,0,
00:04.4,0.002059937,0.005178452,0.005796432,0,
00:04.4,0.002071381,0.005184174,0.005813599,0,
00:04.4,0.002065659,0.005172729,0.005802155,0,
00:04.4,0.002071381,0.005155563,0.005807877,0,
00:04.4,0.002082825,0.005132675,0.005819321,0,
00:04.4,0.002082825,0.005184174,0.005813599,0,
00:04.4,0.002099991,0.005207062,0.005825043,0,
00:04.4,0.002094269,0.005189896,0.005825043,0,
00:04.5,0.002088547,0.005184174,0.005825043,0,
00:04.5,0.002094269,0.005184174,0.005825043,0,
00:04.5,0.002105713,0.005184174,0.005802155,0,
00:04.5,0.002140045,0.00520134,0.00579071,0,
00:04.5,0.002128601,0.005184174,0.005813599,0,
00:04.5,0.002134323,0.005178452,0.005767822,0,
00:04.5,0.002048492,0.005155563,0.005922318,0,
00:04.5,0.002082825,0.005155563,0.00592804,0,
00:04.5,0.002077103,0.005178452,0.005870819,0,
00:04.5,0.002145767,0.005172729,0.005893707,0,
00:04.5,0.002122879,0.005144119,0.005910873,0,
00:04.5,0.002077103,0.005138397,0.00592804,0,
00:04.5,0.002077103,0.005138397,0.005939484,0,
00:04.5,0.002088547,0.005132675,0.00592804,0,
00:04.5,0.002082825,0.005144119,0.005933762,0,
00:04.5,0.002088547,0.005155563,0.005933762,0,
00:04.5,0.002094269,0.005155563,0.005945206,0,
00:04.5,0.002094269,0.005149841,0.005945206,0,
00:04.5,0.002099991,0.005155563,0.005939484,0,
00:04.5,0.002105713,0.005155563,0.00595665,0,
00:04.5,0.002111435,0.005155563,0.005933762,0,
00:04.5,0.002117157,0.005172729,0.005979538,0,
00:04.5,0.002117157,0.005184174,0.005973816,0,
00:04.5,0.002122879,0.005167007,0.005916595,0,
00:04.5,0.002134323,0.005149841,0.00598526,0,
00:04.6,0.002105713,0.005132675,0.005973816,0,
00:04.6,0.002111435,0.005149841,0.005968094,0,
00:04.6,0.002140045,0.005172729,0.006065369,0,
00:04.6,0.002094269,0.005155563,0.006031036,0,
00:04.6,0.002151489,0.005172729,0.005950928,0,
00:04.6,0.002117157,0.005138397,0.006059647,0,
00:04.6,0.002088547,0.005121231,0.006065369,0,
00:04.6,0.002099991,0.005126953,0.006099701,0,
00:04.6,0.002094269,0.005109787,0.006111145,0,
00:04.6,0.002094269,0.005109787,0.006088257,0,
00:04.6,0.002099991,0.005126953,0.006093979,0,
00:04.6,0.002105713,0.005132675,0.006099701,0,
00:04.6,0.002111435,0.005149841,0.006099701,0,
00:04.6,0.002117157,0.005132675,0.006105423,0,
00:04.6,0.002117157,0.005132675,0.006116867,0,
00:04.6,0.002111435,0.005138397,0.006116867,0,
00:04.6,0.002122879,0.005155563,0.006116867,0,
00:04.6,0.002128601,0.005149841,0.006116867,0,
00:04.6,0.002140045,0.005132675,0.006128311,0,
00:04.6,0.002168655,0.005144119,0.006105423,0,
00:04.6,0.002151489,0.005144119,0.006134033,0,
00:04.6,0.002151489,0.005121231,0.006168365,0,
00:04.6,0.002162933,0.005126953,0.006116867,0,
00:04.6,0.002134323,0.005126953,0.006162643,0,
00:04.6,0.002111435,0.005109787,0.006214142,0,
00:04.7,0.002168655,0.005126953,0.006219864,0,
00:04.7,0.002122879,0.005109787,0.006202698,0,
00:04.7,0.002111435,0.005092621,0.006254196,0,
00:04.7,0.002105713,0.005075455,0.006271362,0,
00:04.7,0.002117157,0.005098343,0.006254196,0,
00:04.7,0.002134323,0.005104065,0.006254196,0,
00:04.7,0.002122879,0.005081177,0.006259918,0,
00:04.7,0.002128601,0.005081177,0.00626564,0,
00:04.7,0.002128601,0.005086899,0.006271362,0,
00:04.7,0.002128601,0.005126953,0.006282806,0,
00:04.7,0.002140045,0.005121231,0.006288528,0,
00:04.7,0.002145767,0.005121231,0.00629425,0,
00:04.7,0.002151489,0.005109787,0.006282806,0,
00:04.7,0.002174377,0.005098343,0.00626564,0,
00:04.7,0.002191544,0.005104065,0.00626564,0,
00:04.7,0.002134323,0.005086899,0.00629425,0,
00:04.7,0.002128601,0.005092621,0.006288528,0,
00:04.7,0.002168655,0.005098343,0.006282806,0,
00:04.7,0.002145767,0.005098343,0.006408691,0,
00:04.7,0.002162933,0.005086899,0.006362915,0,
00:04.7,0.002151489,0.005064011,0.006345749,0,
00:04.7,0.002180099,0.005064011,0.006340027,0,
00:04.7,0.002134323,0.005081177,0.006374359,0,
00:04.7,0.002145767,0.005081177,0.006414413,0,
00:04.7,0.002168655,0.005086899,0.006328583,0,
00:04.8,0.002140045,0.005075455,0.006397247,0,
00:04.8,0.002157211,0.005064011,0.006420135,0,
00:04.8,0.002145767,0.005058289,0.006414413,0,
00:04.8,0.002145767,0.005052567,0.006425858,0,
00:04.8,0.002151489,0.005041122,0.006420135,0,
00:04.8,0.002157211,0.005064011,0.00643158,0,
00:04.8,0.002162933,0.005064011,0.006420135,0,
00:04.8,0.002162933,0.005069733,0.00643158,0,
00:04.8,0.002174377,0.005075455,0.006425858,0,
00:04.8,0.002191544,0.005058289,0.006437302,0,
00:04.8,0.002185822,0.005064011,0.006437302,0,
00:04.8,0.002220154,0.005069733,0.006420135,0,
00:04.8,0.002157211,0.005041122,0.006397247,0,
00:04.8,0.002174377,0.0050354,0.006477356,0,
00:04.8,0.002185822,0.005046844,0.00651741,0,
00:04.8,0.002151489,0.005058289,0.006465912,0,
00:04.8,0.002191544,0.005046844,0.006500244,0,
00:04.8,0.002243042,0.005041122,0.006402969,0,
00:04.8,0.002197266,0.005012512,0.006494522,0,
00:04.8,0.002145767,0.00497818,0.006551743,0,
00:04.8,0.002157211,0.004989624,0.006540298,0,
00:04.8,0.002174377,0.005029678,0.006546021,0,
00:04.8,0.002191544,0.005041122,0.006540298,0,
00:04.8,0.002191544,0.0050354,0.006540298,0,
00:04.8,0.002191544,0.005023956,0.006523132,0,
00:04.9,0.002197266,0.005023956,0.006557465,0,
00:04.9,0.002185822,0.005012512,0.006551743,0,
00:04.9,0.002185822,0.005012512,0.006563187,0,
00:04.9,0.002202988,0.005012512,0.006563187,0,
00:04.9,0.002220154,0.005023956,0.006546021,0,
00:04.9,0.002191544,0.005018234,0.006568909,0,
00:04.9,0.002214432,0.005012512,0.006580353,0,
00:04.9,0.002243042,0.005018234,0.006546021,0,
00:04.9,0.00220871,0.005012512,0.006580353,0,
00:04.9,0.00223732,0.005012512,0.006511688,0,
00:04.9,0.00223732,0.005012512,0.006551743,0,
00:04.9,0.002202988,0.004995346,0.006603241,0,
00:04.9,0.002243042,0.005001068,0.006603241,0,
00:04.9,0.002220154,0.005001068,0.006586075,0,
00:04.9,0.002202988,0.004989624,0.006649017,0,
00:04.9,0.002197266,0.004972458,0.006660461,0,
00:04.9,0.002202988,0.004966736,0.006631851,0,
00:04.9,0.00220871,0.004966736,0.006626129,0,
00:04.9,0.002202988,0.004955292,0.006649017,0,
00:04.9,0.002202988,0.004955292,0.006649017,0,
00:04.9,0.002214432,0.00494957,0.006637573,0,
00:04.9,0.002214432,0.004955292,0.006626129,0,
00:04.9,0.002225876,0.004955292,0.006654739,0,
00:04.9,0.002231598,0.00500679,0.006660461,0,
00:04.9,0.002243042,0.00500679,0.006671906,0,
00:05.0,0.002254486,0.004989624,0.006666183,0,
00:05.0,0.002225876,0.004966736,0.006654739,0,
00:05.0,0.002254486,0.004972458,0.006671906,0,
00:05.0,0.002243042,0.004972458,0.006643295,0,
00:05.0,0.00223732,0.004961014,0.006626129,0,
00:05.0,0.002214432,0.004955292,0.006723404,0,
00:05.0,0.002225876,0.00494957,0.006706238,0,
00:05.0,0.002214432,0.004943848,0.00671196,0,
00:05.0,0.002231598,0.004961014,0.006689072,0,
00:05.0,0.002214432,0.00494957,0.006734848,0,
00:05.0,0.00223732,0.004943848,0.006757736,0,
00:05.0,0.002248764,0.004932404,0.006729126,0,
00:00:05,0.002231598,0.004920959,0.006723404,0,
00:05.0,0.002231598,0.004932404,0.00676918,0,
00:05.0,0.002243042,0.004926682,0.006729126,0,
00:05.0,0.002225876,0.004909515,0.006746292,0,
00:05.0,0.002214432,0.004898071,0.006786346,0,
00:05.0,0.002220154,0.00494957,0.006792068,0,
00:05.0,0.00223732,0.004961014,0.006792068,0,
00:05.0,0.002248764,0.004943848,0.006780624,0,
00:05.0,0.002225876,0.004932404,0.006786346,0,
00:05.0,0.00223732,0.004938126,0.006792068,0,
00:05.0,0.00226593,0.004932404,0.006803513,0,
00:05.0,0.002220154,0.004915237,0.006814957,0,
00:05.0,0.002231598,0.004926682,0.006837845,0,
00:05.1,0.002248764,0.004926682,0.006803513,0,
00:05.1,0.00223732,0.004926682,0.006820679,0,
00:05.1,0.00223732,0.004915237,0.006814957,0,
00:05.1,0.002243042,0.004932404,0.006849289,0,
00:05.1,0.002260208,0.004926682,0.006872177,0,
00:05.1,0.002243042,0.004915237,0.006849289,0,
00:05.1,0.00223732,0.004909515,0.006923676,0,
00:05.1,0.002243042,0.004903793,0.006906509,0,
00:05.1,0.002220154,0.004898071,0.006883621,0,
00:05.1,0.002220154,0.004909515,0.006912231,0,
00:05.1,0.002231598,0.004898071,0.006952286,0,
00:05.1,0.002248764,0.004903793,0.00693512,0,
00:05.1,0.002225876,0.004926682,0.006940842,0,
00:05.1,0.002231598,0.004926682,0.006958008,0,
00:05.1,0.002231598,0.004909515,0.00696373,0,
00:05.1,0.002225876,0.004892349,0.00696373,0,
00:05.1,0.002220154,0.004909515,0.00696373,0,
00:05.1,0.002220154,0.004926682,0.00696373,0,
00:05.1,0.00223732,0.004915237,0.006969452,0,
00:05.1,0.00226593,0.004909515,0.006975174,0,
00:05.1,0.002305984,0.004920959,0.006958008,0,
00:05.1,0.002243042,0.004915237,0.007015228,0,
00:05.1,0.002225876,0.004903793,0.006980896,0,
00:05.1,0.002214432,0.004915237,0.007026672,0,
00:05.1,0.002225876,0.004909515,0.007009506,0,
00:05.2,0.002283096,0.004898071,0.007009506,0,
00:05.2,0.002248764,0.004898071,0.007101059,0,
00:05.2,0.002220154,0.004886627,0.007118225,0,
00:05.2,0.00220871,0.004886627,0.007118225,0,
00:05.2,0.002214432,0.004903793,0.007112503,0,
00:05.2,0.002214432,0.004892349,0.007112503,0,
00:05.2,0.002197266,0.004880905,0.007123947,0,
00:05.2,0.002231598,0.004886627,0.007123947,0,
00:05.2,0.002243042,0.004898071,0.007129669,0,
00:05.2,0.002231598,0.004909515,0.007123947,0,
00:05.2,0.002231598,0.004892349,0.007169724,0,
00:05.2,0.002231598,0.004886627,0.007164001,0,
00:05.2,0.002225876,0.004886627,0.007175446,0,
00:05.2,0.002220154,0.004898071,0.007181168,0,
00:05.2,0.002231598,0.004909515,0.00718689,0,
00:05.2,0.00223732,0.004903793,0.007181168,0,
00:05.2,0.002231598,0.004892349,0.007146835,0,
00:05.2,0.002225876,0.004892349,0.007181168,0,
00:05.2,0.002248764,0.004903793,0.007164001,0,
00:05.2,0.00226593,0.004903793,0.0072155,0,
00:05.2,0.002243042,0.004898071,0.007226944,0,
00:05.2,0.002231598,0.004875183,0.007266998,0,
00:05.2,0.002197266,0.004875183,0.007266998,0,
00:05.2,0.00220871,0.004880905,0.007255554,0,
00:05.2,0.002231598,0.004886627,0.007266998,0,
00:05.3,0.002202988,0.004886627,0.007249832,0,
00:05.3,0.002197266,0.004875183,0.00727272,0,
00:05.3,0.002225876,0.004875183,0.007249832,0,
00:05.3,0.002202988,0.004846573,0.00727272,0,
00:05.3,0.002197266,0.004858017,0.007295609,0,
00:05.3,0.002220154,0.004880905,0.007301331,0,
00:05.3,0.002225876,0.004898071,0.007301331,0,
00:05.3,0.002220154,0.004863739,0.007301331,0,
00:05.3,0.002214432,0.004880905,0.007324219,0,
00:05.3,0.002214432,0.004892349,0.007329941,0,
00:05.3,0.002214432,0.004880905,0.007329941,0,
00:05.3,0.002220154,0.004886627,0.007318497,0,
00:05.3,0.002220154,0.004875183,0.007295609,0,
00:05.3,0.002243042,0.004892349,0.007318497,0,
00:05.3,0.00226593,0.004898071,0.007278442,0,
00:05.3,0.002277374,0.004875183,0.007307053,0,
00:05.3,0.002202988,0.004852295,0.007404327,0,
00:05.3,0.002191544,0.004846573,0.007427216,0,
00:05.3,0.002202988,0.004869461,0.007381439,0,
00:05.3,0.002220154,0.004869461,0.007392883,0,
00:05.3,0.002225876,0.004875183,0.007398605,0,
00:05.3,0.002180099,0.004858017,0.007415771,0,
00:05.3,0.002185822,0.004858017,0.007427216,0,
00:05.3,0.002191544,0.004852295,0.007427216,0,
00:05.3,0.002191544,0.004846573,0.007432938,0,
00:05.4,0.002197266,0.004823685,0.007432938,0,
00:05.4,0.002185822,0.004817963,0.00743866,0,
00:05.4,0.002191544,0.004875183,0.007444382,0,
00:05.4,0.00220871,0.004898071,0.007450104,0,
00:05.4,0.002202988,0.004880905,0.007450104,0,
00:05.4,0.002202988,0.004880905,0.007455826,0,
00:05.4,0.002191544,0.004846573,0.00746727,0,
00:05.4,0.002197266,0.004858017,0.007444382,0,
00:05.4,0.002202988,0.004880905,0.007410049,0,
00:05.4,0.002225876,0.004892349,0.007410049,0,
00:05.4,0.002225876,0.004869461,0.007335663,0,
00:05.4,0.002185822,0.004858017,0.007501602,0,
00:05.4,0.002214432,0.004863739,0.007564545,0,
00:05.4,0.002185822,0.004858017,0.007507324,0,
00:05.4,0.002191544,0.004852295,0.007461548,0,
00:05.4,0.002225876,0.004858017,0.007478714,0,
00:05.4,0.002180099,0.004858017,0.007507324,0,
00:05.4,0.002157211,0.004852295,0.007558823,0,
00:05.4,0.002168655,0.004858017,0.007541656,0,
00:05.4,0.002168655,0.004852295,0.007547379,0,
00:05.4,0.002174377,0.004858017,0.007547379,0,
00:05.4,0.002180099,0.004858017,0.007541656,0,
00:05.4,0.002185822,0.004840851,0.007535934,0,
00:05.4,0.002191544,0.004858017,0.007547379,0,
00:05.4,0.002185822,0.004898071,0.007553101,0,
00:05.5,0.002180099,0.004880905,0.007553101,0,
00:05.5,0.002180099,0.004869461,0.007558823,0,
00:05.5,0.002191544,0.004869461,0.007535934,0,
00:05.5,0.002191544,0.004875183,0.007513046,0,
00:05.5,0.002180099,0.004858017,0.007570267,0,
00:05.5,0.002197266,0.004852295,0.007564545,0,
00:05.5,0.002220154,0.004863739,0.007518768,0,
00:05.5,0.002202988,0.004875183,0.007547379,0,
00:05.5,0.002220154,0.004869461,0.007587433,0,
00:05.5,0.002191544,0.004840851,0.007593155,0,
00:05.5,0.002157211,0.004840851,0.007610321,0,
00:05.5,0.002180099,0.004840851,0.007616043,0,
00:05.5,0.002174377,0.004863739,0.007616043,0,
00:05.5,0.002134323,0.004858017,0.007616043,0,
00:05.5,0.002180099,0.004846573,0.007604599,0,
00:05.5,0.002185822,0.004823685,0.007575989,0,
00:05.5,0.002168655,0.004823685,0.007564545,0,
00:05.5,0.002168655,0.004835129,0.007633209,0,
00:05.5,0.002191544,0.004886627,0.007604599,0,
00:05.5,0.002191544,0.004892349,0.007627487,0,
00:05.5,0.002185822,0.004863739,0.007633209,0,
00:05.5,0.002185822,0.004858017,0.007610321,0,
00:05.5,0.002191544,0.004875183,0.007581711,0,
00:05.5,0.002191544,0.004858017,0.007633209,0,
00:05.5,0.002191544,0.004858017,0.007593155,0,
00:05.6,0.002168655,0.004852295,0.007616043,0,
00:05.6,0.002214432,0.004852295,0.007656097,0,
00:05.6,0.002197266,0.004858017,0.007581711,0,
00:05.6,0.002191544,0.004858017,0.007564545,0,
00:05.6,0.002180099,0.004846573,0.007656097,0,
00:05.6,0.002191544,0.004840851,0.007644653,0,
00:05.6,0.002202988,0.004846573,0.007564545,0,
00:05.6,0.002202988,0.004852295,0.007570267,0,
00:05.6,0.002197266,0.004835129,0.007661819,0,
00:05.6,0.002128601,0.004812241,0.007673264,0,
00:05.6,0.002151489,0.004835129,0.007684708,0,
00:05.6,0.002140045,0.004823685,0.007661819,0,
00:05.6,0.002151489,0.004846573,0.007633209,0,
00:05.6,0.002162933,0.004846573,0.007621765,0,
00:05.6,0.002157211,0.004846573,0.007678986,0,
00:05.6,0.002157211,0.004858017,0.007673264,0,
00:05.6,0.002162933,0.004863739,0.007656097,0,
00:05.6,0.002168655,0.004863739,0.007650375,0,
00:05.6,0.002157211,0.004840851,0.007650375,0,
00:05.6,0.002162933,0.004840851,0.007661819,0,
00:05.6,0.002162933,0.004852295,0.007673264,0,
00:05.6,0.002162933,0.004863739,0.007667542,0,
00:05.6,0.002162933,0.004858017,0.007638931,0,
00:05.6,0.002191544,0.004858017,0.007604599,0,
00:05.6,0.002185822,0.004858017,0.007656097,0,
00:05.7,0.002157211,0.004852295,0.007547379,0,
00:05.7,0.002151489,0.004840851,0.007667542,0,
00:05.7,0.00223732,0.004852295,0.007696152,0,
00:05.7,0.002202988,0.004840851,0.007616043,0,
00:05.7,0.002134323,0.004823685,0.007656097,0,
00:05.7,0.002151489,0.004817963,0.007730484,0,
00:05.7,0.002128601,0.004812241,0.00769043,0,
00:05.7,0.002134323,0.004823685,0.00769043,0,
00:05.7,0.002140045,0.004829407,0.007707596,0,
00:05.7,0.002134323,0.004806519,0.00769043,0,
00:05.7,0.002134323,0.004806519,0.007696152,0,
00:05.7,0.002145767,0.004846573,0.00769043,0,
00:05.7,0.002151489,0.004858017,0.00769043,0,
00:05.7,0.002151489,0.004852295,0.00769043,0,
00:05.7,0.002157211,0.004858017,0.00769043,0,
00:05.7,0.002151489,0.004840851,0.007684708,0,
00:05.7,0.002145767,0.004835129,0.00769043,0,
00:05.7,0.002162933,0.004835129,0.007667542,0,
00:05.7,0.002140045,0.004829407,0.00769043,0,
00:05.7,0.002128601,0.004840851,0.007696152,0,
00:05.7,0.002162933,0.004846573,0.007644653,0,
00:05.7,0.002174377,0.004846573,0.007638931,0,
00:05.7,0.002174377,0.004846573,0.007667542,0,
00:05.7,0.002157211,0.004823685,0.007707596,0,
00:05.7,0.002168655,0.004829407,0.00769043,0,
00:05.8,0.002140045,0.004817963,0.007678986,0,
00:05.8,0.002105713,0.004806519,0.00769043,0,
00:05.8,0.002094269,0.004806519,0.007707596,0,
00:05.8,0.002105713,0.004812241,0.007684708,0,
00:05.8,0.002140045,0.004800797,0.007673264,0,
00:05.8,0.002117157,0.004795074,0.007736206,0,
00:05.8,0.002122879,0.004806519,0.007730484,0,
00:05.8,0.002122879,0.004806519,0.007724762,0,
00:05.8,0.002122879,0.004812241,0.00771904,0,
00:05.8,0.002128601,0.004835129,0.007713318,0,
00:05.8,0.002128601,0.004840851,0.007724762,0,
00:05.8,0.002128601,0.004829407,0.00771904,0,
00:05.8,0.002128601,0.004817963,0.007707596,0,
00:05.8,0.002140045,0.004823685,0.007701874,0,
00:05.8,0.002157211,0.004829407,0.007678986,0,
00:05.8,0.002134323,0.004829407,0.007604599,0,
00:05.8,0.002111435,0.004812241,0.00774765,0,
00:05.8,0.002088547,0.004817963,0.007741928,0,
00:05.8,0.002077103,0.004823685,0.007759094,0,
00:05.8,0.002128601,0.004823685,0.007730484,0,
00:05.8,0.002151489,0.004812241,0.007684708,0,
00:05.8,0.002140045,0.004800797,0.007730484,0,
00:05.8,0.002140045,0.004800797,0.007736206,0,
00:05.8,0.002128601,0.004806519,0.007736206,0,
00:05.8,0.002082825,0.004800797,0.007753372,0,
00:05.9,0.002071381,0.004795074,0.007764816,0,
00:05.9,0.002077103,0.004789352,0.007759094,0,
00:05.9,0.002088547,0.004795074,0.007753372,0,
00:05.9,0.002099991,0.004800797,0.007753372,0,
00:05.9,0.002099991,0.004800797,0.007753372,0,
00:05.9,0.002099991,0.004806519,0.007753372,0,
00:05.9,0.002094269,0.004777908,0.00774765,0,
00:05.9,0.002088547,0.004800797,0.00774765,0,
00:05.9,0.002094269,0.004812241,0.007764816,0,
00:05.9,0.002099991,0.004800797,0.007759094,0,
00:05.9,0.002094269,0.004795074,0.007753372,0,
00:05.9,0.002077103,0.004812241,0.007759094,0,
00:05.9,0.002117157,0.004812241,0.007730484,0,
00:05.9,0.002122879,0.004806519,0.007667542,0,
00:05.9,0.002071381,0.004772186,0.007753372,0,
00:05.9,0.002088547,0.00478363,0.007724762,0,
00:05.9,0.002111435,0.004795074,0.007810593,0,
00:05.9,0.002077103,0.004766464,0.007804871,0,
00:05.9,0.002048492,0.004766464,0.007764816,0,
00:05.9,0.002065659,0.004760742,0.007804871,0,
00:05.9,0.002054214,0.00475502,0.007839203,0,
00:05.9,0.002054214,0.004749298,0.007804871,0,
00:05.9,0.002059937,0.00475502,0.007816315,0,
00:05.9,0.002054214,0.004749298,0.007816315,0,
00:05.9,0.002059937,0.004743576,0.007816315,0,
00:06.0,0.002054214,0.004743576,0.007816315,0,
00:06.0,0.002054214,0.004737854,0.007816315,0,
00:06.0,0.002054214,0.004749298,0.007816315,0,
00:06.0,0.002059937,0.004749298,0.007810593,0,
00:06.0,0.002054214,0.004749298,0.007810593,0,
00:06.0,0.002065659,0.004749298,0.007816315,0,
00:06.0,0.002065659,0.004749298,0.007810593,0,
00:06.0,0.002054214,0.004743576,0.007799149,0,
00:06.0,0.002077103,0.00472641,0.00777626,0,
00:06.0,0.002065659,0.004703522,0.007787704,0,
00:06.0,0.002054214,0.004709244,0.007799149,0,
00:06.0,0.002077103,0.004703522,0.00777626,0,
00:00:06,0.002054214,0.004709244,0.007810593,0,
00:06.0,0.002082825,0.004692078,0.007833481,0,
00:06.0,0.002002716,0.004657745,0.007902145,0,
00:06.0,0.001991272,0.004657745,0.007862091,0,
00:06.0,0.002071381,0.004652023,0.007844925,0,
00:06.0,0.002065659,0.004652023,0.007850647,0,
00:06.0,0.002059937,0.004634857,0.007839203,0,
00:06.0,0.002048492,0.004640579,0.007844925,0,
00:06.0,0.00204277,0.004629135,0.007844925,0,
00:06.0,0.002037048,0.004629135,0.007844925,0,
00:06.0,0.00204277,0.004640579,0.007839203,0,
00:06.0,0.00204277,0.004634857,0.007844925,0,
00:06.0,0.002065659,0.004634857,0.007844925,0,
00:06.1,0.002088547,0.004629135,0.007770538,0,
00:06.1,0.002059937,0.004657745,0.007833481,0,
00:06.1,0.002025604,0.004634857,0.007890701,0,
00:06.1,0.002031326,0.004623413,0.007862091,0,
00:06.1,0.002037048,0.004629135,0.007833481,0,
00:06.1,0.00204277,0.004629135,0.007839203,0,
00:06.1,0.00204277,0.004629135,0.007873535,0,
00:06.1,0.002071381,0.004640579,0.007850647,0,
00:06.1,0.002048492,0.004646301,0.007862091,0,
00:06.1,0.002059937,0.004652023,0.007833481,0,
00:06.1,0.002037048,0.004646301,0.007936478,0,
00:06.1,0.002019882,0.004646301,0.007919312,0,
00:06.1,0.002025604,0.004629135,0.007896423,0,
00:06.1,0.00201416,0.004629135,0.007890701,0,
00:06.1,0.002082825,0.004640579,0.007862091,0,
00:06.1,0.002025604,0.004623413,0.007919312,0,
00:06.1,0.002025604,0.004623413,0.007953644,0,
00:06.1,0.00201416,0.004623413,0.007936478,0,
00:06.1,0.002019882,0.004623413,0.007930756,0,
00:06.1,0.002031326,0.004646301,0.007925034,0,
00:06.1,0.002054214,0.004657745,0.007896423,0,
00:06.1,0.002037048,0.004652023,0.007925034,0,
00:06.1,0.00204277,0.004663467,0.007919312,0,
00:06.1,0.002037048,0.004652023,0.007907867,0,
00:06.1,0.002008438,0.004629135,0.007947922,0,
00:06.2,0.002008438,0.004623413,0.007965088,0,
00:06.2,0.002008438,0.004640579,0.007936478,0,
00:06.2,0.002019882,0.004646301,0.007925034,0,
00:06.2,0.002019882,0.004629135,0.007913589,0,
00:06.2,0.002025604,0.004634857,0.007953644,0,
00:06.2,0.002031326,0.004652023,0.007959366,0,
00:06.2,0.00204277,0.004652023,0.007919312,0,
00:06.2,0.00204277,0.004640579,0.007965088,0,
00:06.2,0.00204277,0.004640579,0.007936478,0,
00:06.2,0.002031326,0.004634857,0.007976532,0,
00:06.2,0.00201416,0.004640579,0.0079422,0,
00:06.2,0.00201416,0.004634857,0.007959366,0,
00:06.2,0.002019882,0.004640579,0.0079422,0,
00:06.2,0.00201416,0.004611969,0.007936478,0,
00:06.2,0.001996994,0.004594803,0.00797081,0,
00:06.2,0.001996994,0.004611969,0.008016586,0,
00:06.2,0.002008438,0.004611969,0.007987976,0,
00:06.2,0.00201416,0.004623413,0.00797081,0,
00:06.2,0.002025604,0.004640579,0.007976532,0,
00:06.2,0.002019882,0.004652023,0.00799942,0,
00:06.2,0.002025604,0.004652023,0.00799942,0,
00:06.2,0.002031326,0.004640579,0.00799942,0,
00:06.2,0.002025604,0.004634857,0.00799942,0,
00:06.2,0.002031326,0.004623413,0.007993698,0,
00:06.2,0.002048492,0.004617691,0.007987976,0,
00:06.3,0.002054214,0.004623413,0.0079422,0,
00:06.3,0.002065659,0.004629135,0.007930756,0,
00:06.3,0.002059937,0.004640579,0.007959366,0,
00:06.3,0.002117157,0.004646301,0.008045197,0,
00:06.3,0.002065659,0.004623413,0.00802803,0,
00:06.3,0.00204277,0.004623413,0.007947922,0,
00:06.3,0.002094269,0.004623413,0.008016586,0,
00:06.3,0.002065659,0.004611969,0.008073807,0,
00:06.3,0.002054214,0.004600525,0.008045197,0,
00:06.3,0.002059937,0.004594803,0.008039474,0,
00:06.3,0.002099991,0.004606247,0.008005142,0,
00:06.3,0.002077103,0.004606247,0.008010864,0,
00:06.3,0.002059937,0.004611969,0.008090973,0,
00:06.3,0.002059937,0.004594803,0.008096695,0,
00:06.3,0.002077103,0.004606247,0.008085251,0,
00:06.3,0.002088547,0.004594803,0.008079529,0,
00:06.3,0.002094269,0.004606247,0.008085251,0,
00:06.3,0.002088547,0.004611969,0.008096695,0,
00:06.3,0.002094269,0.004611969,0.008096695,0,
00:06.3,0.002088547,0.004594803,0.008096695,0,
00:06.3,0.002105713,0.004606247,0.008102417,0,
00:06.3,0.002122879,0.004617691,0.008102417,0,
00:06.3,0.002128601,0.004623413,0.008068085,0,
00:06.3,0.002117157,0.004606247,0.008108139,0,
00:06.3,0.002145767,0.004611969,0.008068085,0,
00:06.4,0.002134323,0.004606247,0.008050919,0,
00:06.4,0.002174377,0.004600525,0.008050919,0,
00:06.4,0.002111435,0.004589081,0.008131027,0,
00:06.4,0.002077103,0.004583359,0.008159637,0,
00:06.4,0.002151489,0.004594803,0.008108139,0,
00:06.4,0.002168655,0.004600525,0.008039474,0,
00:06.4,0.002117157,0.004560471,0.008148193,0,
00:06.4,0.002099991,0.004571915,0.008176804,0,
00:06.4,0.002122879,0.004594803,0.008148193,0,
00:06.4,0.002122879,0.004583359,0.008142471,0,
00:06.4,0.002128601,0.004566193,0.008136749,0,
00:06.4,0.002140045,0.004566193,0.008136749,0,
00:06.4,0.002140045,0.004571915,0.008131027,0,
00:06.4,0.002145767,0.004571915,0.008131027,0,
00:06.4,0.002157211,0.004594803,0.008131027,0,
00:06.4,0.002157211,0.004606247,0.008131027,0,
00:06.4,0.002151489,0.004600525,0.008136749,0,
00:06.4,0.002157211,0.004594803,0.008136749,0,
00:06.4,0.002168655,0.004583359,0.008131027,0,
00:06.4,0.002185822,0.004589081,0.008108139,0,
00:06.4,0.002157211,0.004583359,0.008108139,0,
00:06.4,0.002168655,0.004594803,0.008142471,0,
00:06.4,0.002191544,0.004606247,0.008079529,0,
00:06.4,0.00220871,0.004594803,0.008079529,0,
00:06.4,0.002185822,0.004577637,0.008136749,0,
00:06.5,0.002197266,0.004589081,0.008125305,0,
00:06.5,0.002220154,0.004571915,0.008079529,0,
00:06.5,0.002157211,0.004549026,0.008182526,0,
00:06.5,0.002122879,0.004566193,0.008216858,0,
00:06.5,0.002122879,0.004560471,0.008199692,0,
00:06.5,0.002151489,0.004571915,0.008182526,0,
00:06.5,0.002162933,0.004583359,0.008176804,0,
00:06.5,0.002174377,0.004589081,0.008171082,0,
00:06.5,0.002191544,0.004583359,0.008171082,0,
00:06.5,0.002174377,0.004554749,0.008171082,0,
00:06.5,0.002168655,0.004571915,0.008171082,0,
00:06.5,0.002174377,0.004583359,0.008176804,0,
00:06.5,0.002174377,0.004594803,0.008176804,0,
00:06.5,0.002180099,0.004583359,0.008176804,0,
00:06.5,0.002197266,0.004577637,0.008182526,0,
00:06.5,0.00223732,0.004571915,0.008153915,0,
00:06.5,0.002197266,0.004583359,0.008153915,0,
00:06.5,0.002174377,0.004589081,0.008153915,0,
00:06.5,0.002174377,0.004571915,0.008171082,0,
00:06.5,0.002180099,0.004566193,0.008142471,0,
00:06.5,0.002214432,0.004589081,0.008188248,0,
00:06.5,0.002283096,0.004600525,0.008108139,0,
00:06.5,0.002225876,0.004571915,0.008102417,0,
00:06.5,0.002140045,0.004537582,0.008285522,0,
00:06.5,0.002174377,0.004543304,0.008262634,0,
00:06.6,0.002174377,0.004554749,0.008239746,0,
00:06.6,0.002162933,0.004566193,0.00819397,0,
00:06.6,0.002191544,0.004577637,0.008176804,0,
00:06.6,0.002191544,0.004537582,0.008239746,0,
00:06.6,0.002180099,0.00453186,0.008216858,0,
00:06.6,0.002191544,0.004549026,0.008216858,0,
00:06.6,0.002197266,0.004554749,0.008211136,0,
00:06.6,0.002191544,0.004566193,0.008205414,0,
00:06.6,0.00220871,0.004600525,0.008205414,0,
00:06.6,0.002214432,0.004594803,0.008211136,0,
00:06.6,0.00223732,0.004594803,0.008188248,0,
00:06.6,0.002225876,0.004571915,0.008142471,0,
00:06.6,0.002214432,0.004577637,0.008211136,0,
00:06.6,0.002231598,0.004583359,0.008182526,0,
00:06.6,0.002197266,0.004566193,0.008216858,0,
00:06.6,0.002231598,0.004560471,0.008199692,0,
00:06.6,0.002254486,0.004577637,0.008102417,0,
00:06.6,0.00223732,0.004566193,0.008176804,0,
00:06.6,0.002214432,0.004554749,0.008216858,0,
00:06.6,0.002220154,0.004560471,0.00819397,0,
00:06.6,0.002214432,0.004560471,0.00819397,0,
00:06.6,0.002260208,0.004566193,0.008165359,0,
00:06.6,0.002248764,0.004560471,0.008211136,0,
00:06.6,0.00220871,0.004537582,0.008176804,0,
00:06.6,0.002248764,0.004537582,0.00819397,0,
00:06.7,0.002225876,0.004543304,0.008228302,0,
00:06.7,0.002225876,0.004560471,0.008228302,0,
00:06.7,0.002225876,0.004549026,0.00822258,0,
00:06.7,0.002231598,0.004549026,0.00822258,0,
00:06.7,0.00223732,0.004549026,0.00822258,0,
00:06.7,0.002243042,0.004560471,0.008211136,0,
00:06.7,0.002248764,0.004571915,0.00822258,0,
00:06.7,0.00223732,0.004549026,0.008205414,0,
00:06.7,0.002248764,0.004566193,0.008216858,0,
00:06.7,0.002260208,0.004560471,0.008199692,0,
00:06.7,0.002300262,0.004577637,0.008176804,0,
00:06.7,0.002271652,0.004566193,0.008211136,0,
00:06.7,0.00223732,0.004554749,0.008256912,0,
00:06.7,0.002248764,0.004566193,0.008216858,0,
00:06.7,0.002260208,0.004560471,0.008205414,0,
00:06.7,0.00226593,0.004560471,0.008216858,0,
00:06.7,0.002254486,0.004554749,0.008228302,0,
00:06.7,0.002283096,0.004549026,0.008211136,0,
00:06.7,0.002277374,0.004549026,0.00819397,0,
00:06.7,0.002340317,0.004577637,0.008119583,0,
00:06.7,0.002271652,0.004566193,0.008319855,0,
00:06.7,0.002243042,0.004554749,0.008296967,0,
00:06.7,0.002243042,0.004543304,0.008274078,0,
00:06.7,0.002248764,0.004549026,0.008262634,0,
00:06.7,0.002271652,0.004566193,0.008262634,0,
00:06.8,0.00226593,0.004566193,0.008262634,0,
00:06.8,0.00226593,0.004549026,0.00825119,0,
00:06.8,0.00226593,0.004554749,0.008245468,0,
00:06.8,0.002277374,0.004571915,0.008245468,0,
00:06.8,0.002288818,0.004600525,0.008262634,0,
00:06.8,0.002283096,0.004589081,0.008262634,0,
00:06.8,0.002288818,0.004571915,0.008228302,0,
00:06.8,0.002311707,0.004560471,0.008216858,0,
00:06.8,0.002334595,0.004577637,0.008228302,0,
00:06.8,0.002323151,0.004589081,0.008211136,0,
00:06.8,0.002288818,0.004589081,0.008199692,0,
00:06.8,0.002260208,0.004583359,0.0082798,0,
00:06.8,0.002283096,0.004566193,0.008285522,0,
00:06.8,0.002271652,0.004554749,0.008268356,0,
00:06.8,0.002300262,0.004571915,0.008262634,0,
00:06.8,0.002305984,0.004577637,0.008268356,0,
00:06.8,0.002305984,0.004566193,0.008234024,0,
00:06.8,0.002271652,0.004571915,0.008256912,0,
00:06.8,0.002357483,0.004577637,0.008239746,0,
00:06.8,0.002311707,0.004566193,0.008291245,0,
00:06.8,0.002277374,0.004554749,0.008314133,0,
00:06.8,0.00229454,0.004566193,0.008291245,0,
00:06.8,0.002300262,0.004554749,0.008285522,0,
00:06.8,0.002300262,0.004566193,0.008274078,0,
00:06.8,0.002305984,0.004571915,0.008285522,0,
00:06.9,0.002311707,0.004566193,0.0082798,0,
00:06.9,0.002305984,0.004554749,0.008268356,0,
00:06.9,0.002323151,0.004600525,0.008256912,0,
00:06.9,0.002340317,0.004629135,0.008285522,0,
00:06.9,0.002346039,0.004606247,0.008234024,0,
00:06.9,0.002334595,0.004594803,0.008268356,0,
00:06.9,0.002351761,0.004589081,0.00825119,0,
00:06.9,0.002305984,0.004566193,0.0082798,0,
00:06.9,0.002305984,0.004583359,0.008285522,0,
00:06.9,0.002340317,0.004594803,0.008274078,0,
00:06.9,0.002317429,0.004577637,0.008285522,0,
00:06.9,0.00229454,0.004577637,0.008285522,0,
00:06.9,0.002340317,0.004560471,0.008262634,0,
00:06.9,0.002346039,0.004554749,0.008239746,0,
00:06.9,0.002374649,0.004566193,0.008291245,0,
00:06.9,0.002305984,0.004560471,0.008331299,0,
00:06.9,0.002300262,0.004566193,0.008325577,0,
00:06.9,0.002317429,0.004577637,0.008274078,0,
00:06.9,0.002323151,0.004577637,0.008302689,0,
00:06.9,0.002317429,0.004554749,0.008314133,0,
00:06.9,0.002323151,0.004566193,0.008302689,0,
00:06.9,0.002328873,0.004560471,0.008296967,0,
00:06.9,0.002346039,0.004594803,0.008291245,0,
00:06.9,0.002346039,0.004594803,0.008291245,0,
00:06.9,0.002351761,0.004577637,0.008296967,0,
00:07.0,0.002368927,0.004583359,0.008268356,0,
00:07.0,0.002368927,0.004606247,0.008234024,0,
00:07.0,0.002323151,0.004594803,0.008285522,0,
00:07.0,0.002357483,0.004600525,0.008308411,0,
00:07.0,0.002351761,0.004594803,0.008291245,0,
00:07.0,0.002391815,0.004594803,0.008285522,0,
00:07.0,0.002403259,0.004589081,0.008262634,0,
00:07.0,0.002323151,0.004583359,0.008291245,0,
00:07.0,0.002380371,0.004583359,0.00822258,0,
00:07.0,0.002357483,0.004560471,0.008211136,0,
00:07.0,0.002340317,0.004566193,0.008388519,0,
00:07.0,0.002351761,0.004571915,0.008337021,0,
00:00:07,0.002363205,0.004583359,0.008302689,0,
00:07.0,0.002363205,0.004583359,0.008296967,0,
00:07.0,0.002357483,0.004577637,0.008308411,0,
00:07.0,0.002351761,0.004577637,0.008314133,0,
00:07.0,0.002357483,0.004566193,0.008302689,0,
00:07.0,0.002363205,0.004560471,0.008291245,0,
00:07.0,0.002374649,0.004594803,0.008302689,0,
00:07.0,0.002380371,0.004600525,0.008308411,0,
00:07.0,0.002380371,0.004600525,0.008302689,0,
00:07.0,0.002380371,0.004583359,0.008296967,0,
00:07.0,0.002414703,0.004594803,0.008268356,0,
00:07.0,0.002408981,0.004594803,0.008216858,0,
00:07.0,0.002357483,0.004583359,0.008256912,0,
00:07.1,0.002368927,0.004589081,0.008308411,0,
00:07.1,0.002437592,0.004606247,0.008314133,0,
00:07.1,0.002471924,0.004611969,0.008234024,0,
00:07.1,0.002380371,0.004600525,0.008182526,0,
00:07.1,0.002374649,0.004571915,0.00825119,0,
00:07.1,0.002408981,0.004571915,0.008314133,0,
00:07.1,0.002380371,0.004577637,0.008354187,0,
00:07.1,0.002386093,0.004566193,0.008342743,0,
00:07.1,0.002386093,0.004566193,0.008314133,0,
00:07.1,0.002386093,0.004566193,0.008302689,0,
00:07.1,0.002397537,0.004566193,0.008296967,0,
00:07.1,0.002408981,0.004571915,0.008285522,0,
00:07.1,0.002408981,0.004571915,0.008285522,0,
00:07.1,0.002408981,0.004583359,0.008291245,0,
00:07.1,0.002408981,0.004594803,0.008285522,0,
00:07.1,0.002420425,0.004606247,0.008296967,0,
00:07.1,0.00243187,0.004617691,0.008291245,0,
00:07.1,0.002443314,0.004600525,0.008262634,0,
00:07.1,0.002437592,0.004583359,0.008268356,0,
00:07.1,0.00243187,0.004577637,0.008291245,0,
00:07.1,0.002426147,0.004583359,0.008296967,0,
00:07.1,0.002414703,0.004571915,0.0082798,0,
00:07.1,0.002426147,0.004589081,0.008239746,0,
00:07.1,0.002471924,0.004606247,0.008188248,0,
00:07.1,0.002506256,0.004606247,0.008199692,0,
00:07.2,0.002403259,0.004560471,0.008245468,0,
00:07.2,0.002414703,0.004560471,0.008342743,0,
00:07.2,0.002443314,0.004583359,0.008302689,0,
00:07.2,0.002437592,0.004589081,0.008296967,0,
00:07.2,0.002437592,0.004583359,0.008291245,0,
00:07.2,0.002426147,0.004571915,0.008262634,0,
00:07.2,0.00243187,0.004577637,0.008268356,0,
00:07.2,0.002443314,0.004589081,0.0082798,0,
00:07.2,0.002443314,0.004589081,0.008268356,0,
00:07.2,0.002449036,0.004589081,0.008268356,0,
00:07.2,0.002449036,0.004571915,0.008268356,0,
00:07.2,0.002454758,0.004583359,0.008262634,0,
00:07.2,0.002466202,0.004589081,0.008262634,0,
00:07.2,0.002500534,0.004594803,0.00825119,0,
00:07.2,0.002471924,0.004606247,0.008245468,0,
00:07.2,0.002471924,0.004611969,0.008234024,0,
00:07.2,0.002477646,0.004600525,0.008245468,0,
00:07.2,0.002586365,0.004617691,0.008159637,0,
00:07.2,0.002523422,0.004611969,0.008085251,0,
00:07.2,0.002506256,0.004594803,0.008348465,0,
00:07.2,0.00246048,0.004583359,0.0082798,0,
00:07.2,0.002466202,0.004583359,0.008245468,0,
00:07.2,0.002557755,0.004600525,0.008125305,0,
00:07.2,0.002511978,0.004594803,0.008211136,0,
00:07.2,0.00243187,0.004566193,0.008234024,0,
00:07.3,0.00243187,0.004566193,0.008308411,0,
00:07.3,0.002443314,0.004566193,0.008296967,0,
00:07.3,0.002471924,0.004571915,0.008268356,0,
00:07.3,0.002477646,0.004589081,0.00825119,0,
00:07.3,0.002477646,0.004577637,0.008245468,0,
00:07.3,0.002483368,0.004571915,0.008234024,0,
00:07.3,0.00248909,0.004577637,0.008239746,0,
00:07.3,0.00248909,0.004606247,0.008234024,0,
00:07.3,0.002494812,0.004623413,0.008234024,0,
00:07.3,0.002500534,0.004611969,0.008234024,0,
00:07.3,0.002500534,0.004606247,0.008234024,0,
00:07.3,0.002506256,0.004611969,0.008228302,0,
00:07.3,0.002511978,0.004617691,0.008216858,0,
00:07.3,0.002511978,0.004606247,0.008216858,0,
00:07.3,0.002506256,0.004594803,0.008211136,0,
00:07.3,0.002523422,0.004600525,0.008188248,0,
00:07.3,0.002540588,0.004623413,0.008136749,0,
00:07.3,0.002471924,0.004611969,0.008165359,0,
00:07.3,0.002540588,0.004594803,0.00822258,0,
00:07.3,0.002552032,0.004606247,0.00819397,0,
00:07.3,0.002506256,0.004589081,0.008268356,0,
00:07.3,0.002500534,0.004583359,0.00825119,0,
00:07.3,0.0025177,0.004589081,0.008199692,0,
00:07.3,0.002580643,0.004606247,0.008171082,0,
00:07.3,0.002506256,0.004583359,0.008211136,0,
00:07.4,0.002500534,0.004577637,0.008188248,0,
00:07.4,0.002506256,0.004571915,0.008171082,0,
00:07.4,0.0025177,0.004594803,0.008216858,0,
00:07.4,0.002523422,0.004594803,0.008211136,0,
00:07.4,0.002534866,0.004606247,0.008199692,0,
00:07.4,0.002534866,0.004606247,0.008199692,0,
00:07.4,0.002534866,0.004606247,0.008188248,0,
00:07.4,0.002563477,0.004623413,0.008159637,0,
00:07.4,0.002552032,0.004617691,0.008153915,0,
00:07.4,0.002552032,0.004611969,0.008199692,0,
00:07.4,0.002552032,0.004606247,0.008165359,0,
00:07.4,0.002552032,0.004611969,0.008176804,0,
00:07.4,0.002580643,0.004617691,0.008096695,0,
00:07.4,0.002586365,0.004606247,0.008171082,0,
00:07.4,0.002592087,0.004611969,0.008188248,0,
00:07.4,0.002563477,0.004606247,0.008125305,0,
00:07.4,0.002500534,0.004583359,0.008131027,0,
00:07.4,0.002511978,0.004577637,0.00822258,0,
00:07.4,0.002597809,0.004589081,0.008188248,0,
00:07.4,0.002574921,0.004589081,0.008182526,0,
00:07.4,0.002552032,0.004600525,0.008176804,0,
00:07.4,0.002557755,0.004611969,0.008165359,0,
00:07.4,0.002563477,0.004611969,0.008165359,0,
00:07.4,0.002574921,0.004606247,0.008153915,0,
00:07.4,0.002569199,0.004583359,0.008148193,0,
00:07.5,0.002569199,0.004600525,0.008153915,0,
00:07.5,0.002592087,0.004611969,0.008153915,0,
00:07.5,0.002586365,0.004606247,0.008142471,0,
00:07.5,0.002569199,0.004611969,0.008148193,0,
00:07.5,0.002580643,0.004623413,0.008148193,0,
00:07.5,0.002586365,0.004623413,0.008142471,0,
00:07.5,0.002592087,0.004611969,0.008131027,0,
00:07.5,0.002592087,0.004611969,0.008131027,0,
00:07.5,0.002609253,0.004623413,0.008102417,0,
00:07.5,0.002649307,0.004629135,0.00799942,0,
00:07.5,0.002609253,0.004623413,0.008016586,0,
00:07.5,0.002592087,0.004623413,0.008153915,0,
00:07.5,0.002597809,0.004611969,0.008159637,0,
00:07.5,0.002563477,0.004617691,0.008096695,0,
00:07.5,0.002626419,0.004611969,0.008113861,0,
00:07.5,0.002597809,0.004606247,0.008176804,0,
00:07.5,0.002597809,0.004611969,0.008148193,0,
00:07.5,0.002603531,0.004606247,0.008131027,0,
00:07.5,0.002603531,0.004606247,0.008119583,0,
00:07.5,0.002609253,0.004606247,0.008113861,0,
00:07.5,0.002603531,0.004600525,0.008102417,0,
00:07.5,0.002609253,0.004611969,0.008108139,0,
00:07.5,0.002620697,0.004623413,0.008102417,0,
00:07.5,0.002620697,0.004617691,0.008090973,0,
00:07.5,0.002626419,0.004617691,0.008090973,0,
00:07.6,0.002632141,0.004611969,0.008090973,0,
00:07.6,0.002637863,0.004617691,0.008090973,0,
00:07.6,0.002632141,0.004629135,0.008050919,0,
00:07.6,0.002632141,0.004600525,0.008039474,0,
00:07.6,0.002643585,0.004594803,0.008079529,0,
00:07.6,0.00268364,0.004640579,0.008079529,0,
00:07.6,0.002677917,0.004663467,0.007993698,0,
00:07.6,0.002637863,0.004657745,0.008045197,0,
00:07.6,0.002655029,0.004640579,0.008102417,0,
00:07.6,0.002620697,0.004623413,0.008073807,0,
00:07.6,0.002569199,0.004623413,0.008090973,0,
00:07.6,0.002632141,0.004617691,0.008096695,0,
00:07.6,0.00268364,0.004617691,0.008033752,0,
00:07.6,0.002649307,0.004617691,0.008056641,0,
00:07.6,0.002632141,0.004629135,0.008096695,0,
00:07.6,0.002643585,0.004634857,0.008073807,0,
00:07.6,0.002643585,0.004623413,0.008068085,0,
00:07.6,0.002649307,0.004623413,0.008056641,0,
00:07.6,0.002660751,0.004634857,0.008050919,0,
00:07.6,0.002660751,0.004646301,0.008050919,0,
00:07.6,0.002660751,0.004629135,0.008056641,0,
00:07.6,0.002666473,0.004623413,0.008039474,0,
00:07.6,0.002677917,0.004640579,0.008033752,0,
00:07.6,0.002677917,0.004663467,0.008022308,0,
00:07.6,0.002672195,0.004657745,0.008022308,0,
00:07.7,0.002706528,0.004652023,0.007965088,0,
00:07.7,0.002700806,0.004646301,0.00797081,0,
00:07.7,0.002677917,0.004640579,0.008085251,0,
00:07.7,0.002655029,0.004646301,0.008033752,0,
00:07.7,0.002735138,0.004657745,0.007959366,0,
00:07.7,0.002729416,0.004640579,0.008005142,0,
00:07.7,0.002655029,0.004634857,0.008033752,0,
00:07.7,0.002637863,0.004629135,0.008090973,0,
00:07.7,0.002649307,0.004617691,0.008039474,0,
00:07.7,0.002677917,0.004623413,0.008022308,0,
00:07.7,0.002672195,0.004623413,0.00802803,0,
00:07.7,0.002677917,0.004617691,0.008022308,0,
00:07.7,0.002677917,0.004600525,0.008010864,0,
00:07.7,0.00268364,0.004652023,0.008010864,0,
00:07.7,0.002689362,0.004657745,0.008016586,0,
00:07.7,0.002689362,0.004646301,0.008010864,0,
00:07.7,0.002695084,0.004623413,0.008005142,0,
00:07.7,0.002700806,0.004652023,0.00799942,0,
00:07.7,0.002723694,0.004657745,0.00797081,0,
00:07.7,0.002729416,0.004652023,0.007976532,0,
00:07.7,0.002706528,0.004646301,0.007993698,0,
00:07.7,0.002700806,0.004634857,0.007930756,0,
00:07.7,0.002729416,0.004640579,0.00799942,0,
00:07.7,0.002746582,0.004646301,0.008010864,0,
00:07.7,0.002729416,0.004646301,0.007965088,0,
00:07.8,0.002706528,0.004629135,0.007907867,0,
00:07.8,0.002758026,0.004617691,0.00797081,0,
00:07.8,0.00271225,0.004606247,0.007947922,0,
00:07.8,0.002695084,0.004617691,0.008062363,0,
00:07.8,0.00271225,0.004617691,0.007987976,0,
00:07.8,0.002689362,0.004606247,0.007982254,0,
00:07.8,0.002689362,0.004606247,0.008010864,0,
00:07.8,0.002695084,0.004600525,0.00799942,0,
00:07.8,0.00271225,0.004617691,0.007976532,0,
00:07.8,0.002723694,0.004617691,0.007993698,0,
00:07.8,0.002706528,0.004611969,0.007987976,0,
00:07.8,0.002729416,0.004640579,0.007976532,0,
00:07.8,0.002729416,0.004646301,0.00797081,0,
00:07.8,0.002717972,0.004640579,0.007976532,0,
00:07.8,0.002729416,0.004652023,0.007976532,0,
00:07.8,0.00274086,0.004640579,0.007965088,0,
00:07.8,0.00274086,0.004623413,0.007965088,0,
00:07.8,0.002723694,0.004629135,0.007953644,0,
00:07.8,0.00274086,0.004646301,0.007925034,0,
00:07.8,0.002763748,0.004663467,0.007913589,0,
00:07.8,0.00279808,0.004663467,0.007902145,0,
00:07.8,0.002758026,0.004640579,0.007856369,0,
00:07.8,0.002763748,0.004634857,0.007902145,0,
00:07.8,0.002706528,0.004623413,0.00799942,0,
00:07.8,0.002717972,0.004634857,0.00797081,0,
00:07.9,0.002729416,0.004629135,0.007959366,0,
00:07.9,0.002780914,0.004617691,0.0079422,0,
00:07.9,0.00274086,0.004623413,0.007907867,0,
00:07.9,0.002717972,0.004623413,0.007953644,0,
00:07.9,0.002723694,0.004611969,0.007965088,0,
00:07.9,0.002723694,0.004606247,0.007947922,0,
00:07.9,0.002735138,0.004629135,0.007936478,0,
00:07.9,0.002746582,0.004646301,0.007930756,0,
00:07.9,0.002746582,0.004634857,0.007930756,0,
00:07.9,0.00274086,0.004634857,0.007930756,0,
00:07.9,0.00274086,0.004657745,0.007930756,0,
00:07.9,0.002752304,0.004657745,0.007930756,0,
00:07.9,0.002758026,0.004652023,0.007925034,0,
00:07.9,0.00276947,0.004652023,0.007913589,0,
00:07.9,0.002775192,0.004646301,0.007902145,0,
00:07.9,0.002780914,0.004640579,0.007856369,0,
00:07.9,0.002775192,0.004646301,0.007804871,0,
00:07.9,0.00276947,0.004663467,0.007902145,0,
00:07.9,0.002786636,0.004657745,0.007890701,0,
00:07.9,0.002723694,0.004634857,0.007896423,0,
00:07.9,0.00271225,0.004646301,0.007907867,0,
00:07.9,0.002780914,0.004646301,0.007913589,0,
00:07.9,0.002780914,0.004640579,0.007925034,0,
00:07.9,0.00276947,0.004617691,0.007902145,0,
00:07.9,0.002717972,0.004617691,0.007907867,0,
00:08.0,0.002746582,0.004652023,0.007902145,0,
00:08.0,0.002752304,0.004646301,0.007884979,0,
00:08.0,0.002758026,0.004640579,0.007867813,0,
00:08.0,0.00274086,0.004652023,0.007884979,0,
00:08.0,0.002746582,0.004652023,0.007884979,0,
00:08.0,0.002746582,0.004629135,0.007884979,0,
00:08.0,0.002752304,0.004652023,0.007873535,0,
00:08.0,0.002758026,0.004674911,0.007873535,0,
00:08.0,0.002763748,0.004686356,0.007867813,0,
00:08.0,0.002763748,0.004669189,0.007862091,0,
00:08.0,0.002758026,0.004663467,0.007862091,0,
00:08.0,0.002763748,0.004663467,0.007844925,0,
00:00:08,0.002792358,0.004663467,0.007741928,0,
00:08.0,0.002820969,0.004674911,0.007764816,0,
00:08.0,0.002820969,0.004680634,0.007816315,0,
00:08.0,0.002752304,0.004652023,0.007827759,0,
00:08.0,0.002786636,0.004640579,0.007816315,0,
00:08.0,0.002723694,0.004629135,0.007873535,0,
00:08.0,0.002717972,0.004634857,0.007884979,0,
00:08.0,0.00274086,0.004640579,0.007844925,0,
00:08.0,0.002752304,0.004640579,0.007850647,0,
00:08.0,0.002763748,0.004652023,0.007833481,0,
00:08.0,0.00276947,0.004657745,0.007816315,0,
00:08.0,0.002752304,0.004663467,0.007833481,0,
00:08.0,0.002746582,0.004657745,0.007833481,0,
00:08.1,0.002746582,0.004629135,0.007827759,0,
00:08.1,0.00274086,0.004623413,0.007822037,0,
00:08.1,0.002746582,0.004663467,0.007810593,0,
00:08.1,0.002758026,0.004674911,0.007816315,0,
00:08.1,0.002763748,0.004674911,0.007810593,0,
00:08.1,0.002780914,0.0046978,0.007793427,0,
00:08.1,0.002780914,0.004686356,0.007741928,0,
00:08.1,0.002758026,0.004669189,0.007770538,0,
00:08.1,0.002763748,0.004663467,0.007844925,0,
00:08.1,0.00279808,0.004663467,0.007741928,0,
00:08.1,0.002792358,0.004669189,0.007713318,0,
00:08.1,0.002758026,0.004663467,0.007816315,0,
00:08.1,0.002735138,0.004663467,0.007810593,0,
00:08.1,0.002758026,0.004663467,0.007787704,0,
00:08.1,0.00276947,0.004657745,0.007770538,0,
00:08.1,0.002758026,0.004652023,0.007793427,0,
00:08.1,0.002723694,0.004652023,0.007827759,0,
00:08.1,0.002735138,0.004669189,0.007781982,0,
00:08.1,0.002717972,0.004652023,0.007787704,0,
00:08.1,0.002763748,0.004640579,0.007793427,0,
00:08.1,0.002758026,0.004652023,0.007781982,0,
00:08.1,0.002752304,0.004669189,0.007770538,0,
00:08.1,0.002763748,0.004680634,0.007759094,0,
00:08.1,0.002758026,0.004669189,0.007741928,0,
00:08.1,0.00276947,0.004657745,0.007713318,0,
00:08.2,0.002763748,0.004646301,0.007741928,0,
00:08.2,0.002752304,0.004669189,0.007793427,0,
00:08.2,0.002763748,0.004703522,0.007764816,0,
00:08.2,0.002763748,0.0046978,0.007724762,0,
00:08.2,0.002775192,0.004686356,0.007724762,0,
00:08.2,0.002758026,0.004657745,0.007759094,0,
00:08.2,0.002775192,0.004674911,0.007741928,0,
00:08.2,0.002775192,0.004680634,0.007684708,0,
00:08.2,0.002763748,0.004674911,0.007678986,0,
00:08.2,0.002752304,0.004669189,0.007759094,0,
00:08.2,0.00274086,0.004669189,0.007764816,0,
00:08.2,0.002735138,0.004663467,0.00777626,0,
00:08.2,0.00276947,0.004669189,0.00774765,0,
00:08.2,0.00276947,0.004674911,0.007678986,0,
00:08.2,0.00274086,0.004663467,0.007730484,0,
00:08.2,0.002735138,0.004652023,0.007759094,0,
00:08.2,0.00274086,0.004663467,0.007730484,0,
00:08.2,0.00274086,0.004674911,0.007724762,0,
00:08.2,0.002746582,0.004669189,0.007724762,0,
00:08.2,0.002746582,0.004669189,0.007713318,0,
00:08.2,0.002752304,0.004686356,0.007684708,0,
00:08.2,0.002752304,0.004680634,0.007707596,0,
00:08.2,0.002758026,0.004674911,0.00771904,0,
00:08.2,0.00276947,0.004663467,0.007696152,0,
00:08.2,0.002775192,0.004692078,0.007644653,0,
00:08.3,0.002775192,0.004703522,0.007661819,0,
00:08.3,0.002758026,0.004703522,0.007707596,0,
00:08.3,0.002780914,0.004692078,0.007661819,0,
00:08.3,0.002803802,0.0046978,0.007541656,0,
00:08.3,0.00271225,0.004680634,0.007713318,0,
00:08.3,0.002660751,0.004686356,0.00777626,0,
00:08.3,0.002780914,0.004680634,0.007678986,0,
00:08.3,0.002786636,0.004669189,0.007661819,0,
00:08.3,0.00276947,0.004680634,0.00769043,0,
00:08.3,0.002752304,0.004674911,0.007667542,0,
00:08.3,0.002752304,0.004674911,0.007673264,0,
00:08.3,0.002752304,0.004680634,0.007656097,0,
00:08.3,0.002746582,0.004686356,0.007678986,0,
00:08.3,0.002752304,0.004680634,0.007678986,0,
00:08.3,0.002746582,0.004669189,0.007667542,0,
00:08.3,0.002746582,0.004663467,0.007661819,0,
00:08.3,0.002752304,0.004674911,0.007656097,0,
00:08.3,0.002752304,0.004686356,0.007650375,0,
00:08.3,0.002763748,0.0046978,0.007650375,0,
00:08.3,0.002775192,0.0046978,0.007633209,0,
00:08.3,0.002775192,0.004680634,0.007604599,0,
00:08.3,0.002763748,0.004686356,0.007598877,0,
00:08.3,0.002780914,0.004686356,0.007558823,0,
00:08.3,0.002763748,0.004669189,0.007678986,0,
00:08.3,0.002775192,0.004669189,0.007633209,0,
00:08.4,0.00274086,0.004669189,0.007621765,0,
00:08.4,0.002758026,0.004680634,0.007650375,0,
00:08.4,0.00274086,0.004686356,0.007610321,0,
00:08.4,0.002735138,0.004686356,0.007587433,0,
00:08.4,0.002752304,0.004680634,0.007638931,0,
00:08.4,0.002746582,0.004663467,0.007633209,0,
00:08.4,0.002735138,0.004652023,0.007621765,0,
00:08.4,0.002735138,0.004663467,0.007633209,0,
00:08.4,0.00274086,0.004686356,0.007610321,0,
00:08.4,0.002752304,0.0046978,0.007616043,0,
00:08.4,0.002752304,0.004692078,0.007610321,0,
00:08.4,0.00274086,0.004674911,0.007610321,0,
00:08.4,0.002746582,0.004680634,0.007610321,0,
00:08.4,0.002752304,0.004692078,0.007598877,0,
00:08.4,0.002746582,0.004686356,0.007593155,0,
00:08.4,0.002746582,0.004686356,0.007598877,0,
00:08.4,0.002746582,0.004680634,0.007581711,0,
00:08.4,0.002752304,0.004674911,0.007575989,0,
00:08.4,0.00276947,0.004680634,0.007541656,0,
00:08.4,0.002763748,0.004674911,0.00743866,0,
00:08.4,0.002792358,0.004680634,0.007616043,0,
00:08.4,0.002746582,0.004674911,0.007633209,0,
00:08.4,0.002706528,0.004657745,0.007564545,0,
00:08.4,0.002717972,0.004669189,0.007570267,0,
00:08.4,0.00274086,0.004692078,0.007518768,0,
00:08.5,0.002758026,0.004652023,0.00752449,0,
00:08.5,0.002729416,0.004629135,0.007587433,0,
00:08.5,0.002729416,0.004663467,0.007570267,0,
00:08.5,0.002735138,0.004692078,0.007535934,0,
00:08.5,0.002729416,0.004680634,0.007575989,0,
00:08.5,0.002735138,0.004674911,0.007558823,0,
00:08.5,0.002729416,0.004680634,0.007553101,0,
00:08.5,0.002723694,0.004663467,0.007547379,0,
00:08.5,0.002729416,0.004674911,0.007541656,0,
00:08.5,0.002735138,0.004703522,0.007553101,0,
00:08.5,0.002729416,0.004692078,0.007547379,0,
00:08.5,0.002729416,0.004686356,0.007541656,0,
00:08.5,0.002735138,0.004692078,0.007535934,0,
00:08.5,0.002752304,0.0046978,0.00752449,0,
00:08.5,0.002763748,0.0046978,0.007472992,0,
00:08.5,0.002752304,0.004692078,0.007415771,0,
00:08.5,0.002735138,0.004680634,0.007472992,0,
00:08.5,0.002752304,0.004674911,0.007593155,0,
00:08.5,0.00276947,0.004669189,0.007530212,0,
00:08.5,0.002735138,0.004674911,0.007450104,0,
00:08.5,0.00268364,0.004674911,0.007490158,0,
00:08.5,0.002689362,0.004663467,0.007564545,0,
00:08.5,0.002729416,0.004663467,0.007535934,0,
00:08.5,0.002723694,0.004674911,0.00752449,0,
00:08.5,0.00274086,0.004692078,0.00749588,0,
00:08.6,0.002723694,0.004669189,0.007507324,0,
00:08.6,0.002717972,0.004646301,0.007507324,0,
00:08.6,0.00271225,0.004663467,0.00752449,0,
00:08.6,0.002717972,0.0046978,0.007518768,0,
00:08.6,0.002729416,0.004686356,0.007513046,0,
00:08.6,0.002717972,0.004657745,0.007513046,0,
00:08.6,0.002717972,0.004686356,0.00749588,0,
00:08.6,0.002729416,0.004703522,0.00749588,0,
00:08.6,0.002735138,0.004692078,0.007490158,0,
00:08.6,0.002729416,0.004692078,0.00749588,0,
00:08.6,0.002723694,0.004680634,0.007472992,0,
00:08.6,0.002735138,0.004686356,0.007472992,0,
00:08.6,0.002729416,0.004686356,0.007455826,0,
00:08.6,0.002746582,0.004680634,0.007432938,0,
00:08.6,0.002752304,0.004680634,0.007450104,0,
00:08.6,0.002746582,0.004692078,0.007484436,0,
00:08.6,0.002723694,0.004680634,0.007392883,0,
00:08.6,0.002735138,0.004686356,0.00749588,0,
00:08.6,0.002717972,0.004680634,0.007518768,0,
00:08.6,0.002706528,0.004663467,0.007513046,0,
00:08.6,0.00271225,0.004663467,0.007472992,0,
00:08.6,0.00271225,0.004669189,0.007461548,0,
00:08.6,0.00271225,0.004663467,0.007484436,0,
00:08.6,0.002729416,0.004663467,0.007455826,0,
00:08.6,0.002723694,0.004652023,0.007461548,0,
00:08.7,0.002689362,0.004663467,0.007478714,0,
00:08.7,0.002700806,0.004669189,0.007478714,0,
00:08.7,0.002706528,0.004686356,0.007461548,0,
00:08.7,0.00271225,0.004692078,0.007461548,0,
00:08.7,0.002706528,0.004686356,0.00746727,0,
00:08.7,0.002706528,0.004680634,0.007461548,0,
00:08.7,0.002706528,0.004657745,0.007455826,0,
00:08.7,0.00271225,0.004674911,0.007450104,0,
00:08.7,0.00274086,0.004692078,0.007415771,0,
00:08.7,0.00271225,0.004692078,0.007421494,0,
00:08.7,0.002717972,0.0046978,0.007455826,0,
00:08.7,0.002700806,0.004686356,0.007461548,0,
00:08.7,0.002735138,0.004686356,0.007432938,0,
00:08.7,0.002717972,0.004680634,0.007461548,0,
00:08.7,0.002695084,0.004686356,0.007375717,0,
00:08.7,0.002763748,0.004686356,0.007318497,0,
00:08.7,0.002729416,0.004674911,0.007478714,0,
00:08.7,0.00268364,0.004657745,0.00749588,0,
00:08.7,0.002735138,0.004657745,0.007387161,0,
00:08.7,0.002735138,0.004663467,0.007427216,0,
00:08.7,0.00268364,0.004663467,0.007455826,0,
00:08.7,0.002677917,0.004657745,0.00746727,0,
00:08.7,0.002689362,0.004669189,0.00743866,0,
00:08.7,0.002689362,0.004652023,0.007415771,0,
00:08.7,0.002695084,0.004674911,0.00743866,0,
00:08.8,0.002700806,0.004686356,0.007427216,0,
00:08.8,0.002706528,0.004703522,0.007444382,0,
00:08.8,0.002695084,0.004692078,0.007432938,0,
00:08.8,0.002700806,0.004692078,0.007427216,0,
00:08.8,0.002717972,0.004692078,0.007421494,0,
00:08.8,0.002700806,0.004686356,0.007404327,0,
00:08.8,0.002677917,0.004680634,0.007410049,0,
00:08.8,0.002735138,0.004686356,0.007387161,0,
00:08.8,0.00274086,0.004686356,0.007364273,0,
00:08.8,0.002746582,0.004686356,0.007421494,0,
00:08.8,0.002717972,0.004680634,0.007347107,0,
00:08.8,0.002689362,0.004669189,0.007358551,0,
00:08.8,0.002660751,0.004657745,0.007392883,0,
00:08.8,0.002729416,0.004652023,0.007398605,0,
00:08.8,0.00271225,0.004657745,0.007352829,0,
00:08.8,0.002689362,0.004657745,0.007398605,0,
00:08.8,0.002717972,0.004652023,0.007404327,0,
00:08.8,0.002700806,0.004652023,0.007410049,0,
00:08.8,0.00268364,0.004663467,0.007404327,0,
00:08.8,0.002689362,0.004663467,0.007392883,0,
00:08.8,0.002689362,0.004652023,0.007387161,0,
00:08.8,0.002689362,0.004663467,0.007381439,0,
00:08.8,0.00268364,0.004669189,0.007381439,0,
00:08.8,0.002689362,0.004674911,0.007404327,0,
00:08.8,0.00271225,0.004674911,0.007381439,0,
00:08.9,0.002700806,0.004674911,0.007381439,0,
00:08.9,0.002695084,0.004674911,0.007369995,0,
00:08.9,0.002700806,0.004663467,0.007364273,0,
00:08.9,0.002706528,0.004663467,0.007352829,0,
00:08.9,0.002746582,0.004669189,0.007364273,0,
00:08.9,0.002717972,0.004674911,0.007301331,0,
00:08.9,0.002689362,0.004669189,0.007278442,0,
00:08.9,0.002677917,0.004663467,0.007318497,0,
00:08.9,0.002723694,0.004669189,0.007352829,0,
00:08.9,0.002729416,0.004663467,0.007358551,0,
00:08.9,0.002677917,0.004669189,0.007387161,0,
00:08.9,0.002689362,0.004652023,0.007387161,0,
00:08.9,0.002706528,0.004646301,0.007335663,0,
00:08.9,0.00271225,0.004652023,0.007318497,0,
00:08.9,0.002672195,0.004646301,0.007369995,0,
00:08.9,0.002672195,0.004652023,0.007358551,0,
00:08.9,0.002689362,0.004657745,0.007347107,0,
00:08.9,0.002677917,0.004663467,0.007352829,0,
00:08.9,0.002689362,0.004680634,0.007335663,0,
00:08.9,0.00268364,0.004680634,0.007335663,0,
00:08.9,0.002677917,0.004657745,0.007352829,0,
00:08.9,0.002672195,0.004652023,0.007352829,0,
00:08.9,0.002672195,0.004646301,0.007341385,0,
00:08.9,0.002695084,0.004674911,0.007329941,0,
00:08.9,0.002677917,0.004657745,0.007335663,0,
00:09.0,0.002689362,0.004657745,0.007341385,0,
00:09.0,0.00274086,0.004686356,0.007307053,0,
00:09.0,0.002700806,0.004680634,0.007261276,0,
00:09.0,0.002643585,0.004652023,0.007347107,0,
00:09.0,0.002677917,0.004652023,0.007295609,0,
00:09.0,0.002660751,0.004646301,0.007301331,0,
00:09.0,0.002672195,0.004646301,0.007261276,0,
00:09.0,0.002700806,0.004646301,0.007289886,0,
00:09.0,0.002695084,0.004657745,0.007404327,0,
00:09.0,0.002689362,0.004680634,0.007341385,0,
00:09.0,0.002672195,0.004657745,0.007341385,0,
00:09.0,0.002666473,0.004640579,0.007329941,0,
00:00:09,0.002672195,0.004646301,0.007318497,0,
00:09.0,0.002666473,0.004669189,0.007312775,0,
00:09.0,0.002672195,0.004669189,0.007312775,0,
00:09.0,0.002672195,0.004657745,0.007301331,0,
00:09.0,0.002672195,0.004646301,0.007324219,0,
00:09.0,0.002655029,0.004640579,0.007312775,0,
00:09.0,0.002666473,0.004663467,0.007301331,0,
00:09.0,0.00268364,0.004686356,0.007278442,0,
00:09.0,0.002672195,0.004669189,0.007278442,0,
00:09.0,0.002655029,0.004652023,0.007318497,0,
00:09.0,0.002672195,0.004657745,0.007312775,0,
00:09.0,0.00271225,0.004663467,0.007301331,0,
00:09.0,0.002723694,0.004663467,0.007266998,0,
00:09.1,0.002649307,0.004657745,0.007266998,0,
00:09.1,0.002666473,0.004646301,0.007221222,0,
00:09.1,0.002649307,0.004646301,0.007266998,0,
00:09.1,0.002649307,0.004634857,0.007329941,0,
00:09.1,0.002643585,0.004646301,0.007318497,0,
00:09.1,0.002649307,0.004646301,0.007307053,0,
00:09.1,0.002655029,0.004629135,0.007318497,0,
00:09.1,0.002655029,0.004629135,0.007312775,0,
00:09.1,0.002643585,0.004646301,0.007312775,0,
00:09.1,0.002649307,0.004663467,0.007295609,0,
00:09.1,0.002655029,0.004652023,0.007301331,0,
00:09.1,0.002649307,0.004640579,0.007295609,0,
00:09.1,0.002643585,0.004634857,0.007289886,0,
00:09.1,0.002649307,0.004657745,0.007295609,0,
00:09.1,0.002655029,0.004663467,0.007295609,0,
00:09.1,0.002666473,0.004674911,0.007284164,0,
00:09.1,0.002649307,0.004663467,0.00727272,0,
00:09.1,0.002689362,0.004669189,0.0072155,0,
00:09.1,0.00268364,0.004674911,0.007255554,0,
00:09.1,0.002643585,0.004663467,0.007295609,0,
00:09.1,0.002632141,0.004646301,0.007226944,0,
00:09.1,0.002637863,0.004652023,0.007209778,0,
00:09.1,0.002649307,0.004663467,0.007312775,0,
00:09.1,0.002677917,0.004646301,0.007249832,0,
00:09.1,0.002620697,0.004617691,0.007347107,0,
00:09.2,0.002620697,0.004634857,0.007324219,0,
00:09.2,0.002620697,0.004646301,0.007295609,0,
00:09.2,0.002643585,0.004640579,0.0072155,0,
00:09.2,0.002620697,0.004634857,0.007295609,0,
00:09.2,0.002620697,0.004629135,0.007324219,0,
00:09.2,0.002626419,0.004634857,0.007295609,0,
00:09.2,0.002632141,0.004652023,0.007284164,0,
00:09.2,0.002632141,0.004640579,0.007284164,0,
00:09.2,0.002620697,0.004634857,0.007278442,0,
00:09.2,0.002626419,0.004640579,0.007284164,0,
00:09.2,0.002620697,0.004640579,0.007289886,0,
00:09.2,0.002620697,0.004646301,0.007289886,0,
00:09.2,0.002643585,0.004669189,0.007266998,0,
00:09.2,0.002660751,0.004674911,0.007249832,0,
00:09.2,0.002637863,0.004652023,0.007221222,0,
00:09.2,0.002666473,0.004646301,0.007289886,0,
00:09.2,0.002660751,0.004652023,0.007209778,0,
00:09.2,0.002609253,0.004640579,0.007301331,0,
00:09.2,0.002632141,0.004634857,0.007209778,0,
00:09.2,0.002626419,0.004629135,0.00718689,0,
00:09.2,0.002597809,0.004640579,0.007347107,0,
00:09.2,0.002626419,0.004634857,0.007301331,0,
00:09.2,0.002609253,0.004629135,0.007301331,0,
00:09.2,0.002609253,0.004629135,0.007289886,0,
00:09.2,0.002609253,0.004629135,0.007289886,0,
00:09.3,0.002609253,0.004629135,0.007278442,0,
00:09.3,0.002609253,0.004611969,0.007266998,0,
00:09.3,0.002603531,0.004617691,0.00727272,0,
00:09.3,0.002609253,0.004634857,0.00727272,0,
00:09.3,0.002620697,0.004640579,0.00727272,0,
00:09.3,0.002614975,0.004629135,0.007278442,0,
00:09.3,0.002609253,0.004629135,0.007278442,0,
00:09.3,0.002614975,0.004640579,0.00727272,0,
00:09.3,0.002614975,0.004640579,0.007289886,0,
00:09.3,0.002614975,0.004629135,0.00727272,0,
00:09.3,0.002637863,0.004652023,0.007232666,0,
00:09.3,0.002626419,0.004652023,0.00724411,0,
00:09.3,0.002620697,0.004629135,0.007238388,0,
00:09.3,0.002637863,0.004617691,0.007221222,0,
00:09.3,0.002603531,0.004606247,0.007324219,0,
00:09.3,0.002609253,0.004629135,0.007278442,0,
00:09.3,0.002614975,0.004640579,0.007289886,0,
00:09.3,0.002597809,0.004623413,0.007255554,0,
00:09.3,0.002586365,0.004611969,0.007261276,0,
00:09.3,0.002609253,0.004617691,0.007261276,0,
00:09.3,0.002620697,0.004623413,0.007312775,0,
00:09.3,0.002614975,0.004617691,0.007301331,0,
00:09.3,0.002592087,0.004611969,0.00727272,0,
00:09.3,0.002580643,0.004594803,0.007301331,0,
00:09.3,0.002597809,0.004611969,0.007295609,0,
00:09.4,0.002609253,0.004623413,0.007284164,0,
00:09.4,0.002609253,0.004611969,0.007284164,0,
00:09.4,0.002597809,0.004611969,0.007289886,0,
00:09.4,0.002597809,0.004629135,0.007284164,0,
00:09.4,0.002614975,0.004634857,0.007284164,0,
00:09.4,0.002632141,0.004634857,0.007255554,0,
00:09.4,0.002614975,0.004617691,0.007232666,0,
00:09.4,0.002614975,0.004623413,0.00724411,0,
00:09.4,0.002580643,0.004617691,0.007238388,0,
00:09.4,0.002626419,0.004600525,0.007295609,0,
00:09.4,0.002643585,0.004617691,0.007278442,0,
00:09.4,0.002580643,0.004629135,0.007249832,0,
00:09.4,0.002563477,0.004623413,0.007278442,0,
00:09.4,0.002603531,0.004611969,0.00724411,0,
00:09.4,0.002592087,0.004600525,0.007347107,0,
00:09.4,0.002586365,0.004600525,0.007318497,0,
00:09.4,0.002586365,0.004606247,0.007307053,0,
00:09.4,0.002592087,0.004606247,0.007284164,0,
00:09.4,0.002597809,0.004611969,0.007278442,0,
00:09.4,0.002580643,0.004600525,0.007284164,0,
00:09.4,0.002586365,0.004600525,0.007295609,0,
00:09.4,0.002580643,0.004589081,0.007301331,0,
00:09.4,0.002580643,0.004583359,0.007295609,0,
00:09.4,0.002580643,0.004606247,0.007289886,0,
00:09.4,0.002592087,0.004611969,0.007295609,0,
00:09.5,0.002592087,0.004611969,0.007295609,0,
00:09.5,0.002597809,0.004617691,0.007307053,0,
00:09.5,0.002586365,0.004594803,0.007301331,0,
00:09.5,0.002592087,0.004600525,0.007249832,0,
00:09.5,0.002655029,0.004629135,0.007192612,0,
00:09.5,0.002626419,0.004623413,0.007289886,0,
00:09.5,0.002586365,0.004606247,0.00724411,0,
00:09.5,0.002574921,0.004600525,0.007301331,0,
00:09.5,0.002574921,0.004606247,0.007329941,0,
00:09.5,0.002569199,0.004600525,0.007312775,0,
00:09.5,0.002569199,0.004594803,0.007335663,0,
00:09.5,0.002574921,0.004594803,0.007312775,0,
00:09.5,0.002580643,0.004594803,0.007318497,0,
00:09.5,0.002569199,0.004594803,0.007318497,0,
00:09.5,0.002563477,0.004577637,0.007307053,0,
00:09.5,0.002563477,0.004589081,0.007312775,0,
00:09.5,0.002569199,0.004594803,0.007318497,0,
00:09.5,0.002563477,0.004583359,0.007312775,0,
00:09.5,0.002563477,0.004594803,0.007312775,0,
00:09.5,0.002574921,0.004606247,0.007307053,0,
00:09.5,0.002580643,0.004606247,0.007307053,0,
00:09.5,0.002574921,0.004606247,0.007318497,0,
00:09.5,0.002580643,0.004611969,0.007307053,0,
00:09.5,0.002563477,0.004606247,0.007307053,0,
00:09.5,0.002580643,0.004600525,0.007295609,0,
00:09.6,0.002580643,0.004600525,0.007318497,0,
00:09.6,0.002569199,0.004600525,0.007295609,0,
00:09.6,0.002552032,0.004600525,0.007238388,0,
00:09.6,0.002643585,0.004611969,0.007226944,0,
00:09.6,0.002649307,0.004611969,0.00724411,0,
00:09.6,0.002534866,0.004571915,0.007341385,0,
00:09.6,0.002529144,0.004589081,0.007415771,0,
00:09.6,0.002552032,0.004589081,0.007352829,0,
00:09.6,0.002534866,0.004577637,0.007341385,0,
00:09.6,0.00254631,0.004583359,0.007341385,0,
00:09.6,0.002563477,0.004577637,0.007329941,0,
00:09.6,0.002552032,0.004560471,0.007335663,0,
00:09.6,0.002540588,0.004554749,0.007335663,0,
00:09.6,0.00254631,0.004583359,0.007329941,0,
00:09.6,0.00254631,0.004589081,0.007329941,0,
00:09.6,0.002552032,0.004589081,0.007335663,0,
00:09.6,0.002552032,0.004606247,0.007335663,0,
00:09.6,0.002557755,0.004594803,0.007329941,0,
00:09.6,0.002574921,0.004589081,0.007318497,0,
00:09.6,0.002563477,0.004577637,0.007312775,0,
00:09.6,0.002540588,0.004566193,0.007324219,0,
00:09.6,0.002552032,0.004589081,0.007324219,0,
00:09.6,0.002586365,0.004606247,0.007249832,0,
00:09.6,0.0025177,0.004583359,0.007324219,0,
00:09.6,0.00254631,0.004571915,0.007347107,0,
00:09.7,0.002597809,0.004577637,0.007347107,0,
00:09.7,0.002592087,0.004577637,0.007358551,0,
00:09.7,0.00254631,0.004566193,0.007324219,0,
00:09.7,0.002534866,0.004566193,0.007295609,0,
00:09.7,0.002534866,0.004571915,0.007375717,0,
00:09.7,0.00254631,0.004571915,0.007364273,0,
00:09.7,0.002540588,0.004560471,0.007341385,0,
00:09.7,0.002529144,0.004549026,0.007358551,0,
00:09.7,0.0025177,0.004543304,0.007358551,0,
00:09.7,0.002529144,0.004554749,0.007352829,0,
00:09.7,0.002540588,0.004571915,0.007352829,0,
00:09.7,0.002557755,0.004577637,0.007358551,0,
00:09.7,0.002552032,0.004577637,0.007352829,0,
00:09.7,0.002534866,0.004560471,0.007341385,0,
00:09.7,0.002534866,0.004554749,0.007347107,0,
00:09.7,0.002540588,0.004577637,0.007335663,0,
00:09.7,0.002552032,0.004583359,0.007335663,0,
00:09.7,0.002557755,0.004577637,0.007278442,0,
00:09.7,0.002569199,0.004583359,0.007347107,0,
00:09.7,0.002574921,0.004577637,0.007307053,0,
00:09.7,0.002557755,0.004560471,0.007352829,0,
00:09.7,0.002569199,0.004560471,0.007381439,0,
00:09.7,0.00248909,0.004549026,0.007301331,0,
00:09.7,0.002511978,0.004526138,0.007387161,0,
00:09.7,0.002552032,0.004543304,0.007398605,0,
00:09.8,0.002540588,0.004560471,0.007375717,0,
00:09.8,0.002540588,0.004554749,0.007369995,0,
00:09.8,0.002540588,0.004543304,0.007324219,0,
00:09.8,0.002540588,0.004543304,0.007358551,0,
00:09.8,0.002529144,0.004549026,0.007369995,0,
00:09.8,0.002523422,0.004549026,0.007341385,0,
00:09.8,0.002523422,0.004549026,0.007381439,0,
00:09.8,0.002534866,0.004571915,0.007369995,0,
00:09.8,0.002534866,0.004571915,0.007358551,0,
00:09.8,0.002534866,0.004554749,0.007381439,0,
00:09.8,0.002540588,0.004566193,0.007375717,0,
00:09.8,0.002552032,0.004560471,0.007341385,0,
00:09.8,0.002534866,0.004554749,0.007335663,0,
00:09.8,0.002529144,0.004543304,0.007358551,0,
00:09.8,0.002534866,0.004543304,0.007387161,0,
00:09.8,0.002540588,0.004560471,0.007375717,0,
00:09.8,0.002557755,0.004566193,0.007324219,0,
00:09.8,0.002540588,0.004560471,0.007341385,0,
00:09.8,0.002557755,0.004560471,0.007341385,0,
00:09.8,0.002569199,0.004549026,0.007341385,0,
00:09.8,0.00248909,0.004526138,0.007375717,0,
00:09.8,0.002483368,0.00453186,0.007415771,0,
00:09.8,0.002511978,0.004543304,0.007335663,0,
00:09.8,0.00254631,0.004543304,0.007318497,0,
00:09.8,0.002534866,0.004543304,0.007415771,0,
00:09.9,0.002529144,0.00453186,0.007387161,0,
00:09.9,0.002523422,0.00453186,0.007358551,0,
00:09.9,0.002529144,0.00453186,0.007352829,0,
00:09.9,0.0025177,0.004537582,0.007387161,0,
00:09.9,0.0025177,0.00453186,0.007392883,0,
00:09.9,0.0025177,0.004537582,0.007398605,0,
00:09.9,0.0025177,0.004537582,0.007392883,0,
00:09.9,0.002529144,0.004554749,0.007381439,0,
00:09.9,0.002529144,0.004566193,0.007375717,0,
00:09.9,0.002523422,0.004543304,0.007375717,0,
00:09.9,0.002534866,0.004543304,0.007381439,0,
00:09.9,0.002552032,0.004554749,0.007364273,0,
00:09.9,0.002534866,0.004549026,0.007352829,0,
00:09.9,0.002540588,0.004543304,0.007398605,0,
00:09.9,0.002523422,0.004543304,0.007387161,0,
00:09.9,0.002597809,0.004554749,0.007341385,0,
00:09.9,0.00254631,0.00453186,0.00724411,0,
00:09.9,0.002454758,0.004508972,0.007450104,0,
00:09.9,0.002511978,0.004526138,0.007381439,0,
00:09.9,0.0025177,0.004520416,0.007295609,0,
00:09.9,0.002506256,0.004514694,0.007421494,0,
00:09.9,0.002523422,0.004526138,0.007415771,0,
00:09.9,0.002529144,0.004520416,0.007404327,0,
00:09.9,0.002494812,0.004514694,0.007410049,0,
00:09.9,0.002500534,0.004526138,0.007404327,0,
00:10.0,0.002511978,0.004514694,0.007410049,0,
00:10.0,0.002511978,0.004508972,0.007410049,0,
00:10.0,0.002511978,0.004537582,0.007404327,0,
00:10.0,0.002511978,0.00453186,0.007404327,0,
00:10.0,0.0025177,0.00453186,0.007398605,0,
00:10.0,0.002534866,0.004549026,0.007398605,0,
00:10.0,0.002529144,0.004537582,0.007404327,0,
00:10.0,0.0025177,0.004537582,0.007392883,0,
00:10.0,0.0025177,0.00453186,0.007387161,0,
00:10.0,0.002511978,0.004543304,0.007410049,0,
00:10.0,0.002523422,0.004543304,0.007415771,0,
00:10.0,0.002552032,0.004537582,0.007358551,0,
00:00:10,0.002523422,0.004537582,0.007352829,0,
00:10.0,0.002523422,0.004537582,0.007295609,0,
00:10.0,0.002454758,0.004497528,0.007461548,0,
00:10.0,0.002523422,0.004508972,0.007404327,0,
00:10.0,0.002540588,0.00453186,0.007432938,0,
00:10.0,0.002511978,0.004526138,0.007461548,0,
00:10.0,0.002511978,0.004520416,0.007450104,0,
00:10.0,0.0025177,0.004514694,0.00743866,0,
00:10.0,0.002511978,0.004514694,0.007427216,0,
00:10.0,0.002511978,0.004508972,0.007427216,0,
00:10.0,0.002506256,0.00450325,0.007432938,0,
00:10.0,0.002511978,0.00450325,0.007427216,0,
00:10.0,0.002511978,0.004520416,0.00743866,0,
00:10.1,0.002511978,0.004526138,0.007444382,0,
00:10.1,0.002511978,0.004514694,0.007444382,0,
00:10.1,0.002511978,0.004520416,0.007444382,0,
00:10.1,0.0025177,0.00453186,0.00743866,0,
00:10.1,0.002523422,0.00450325,0.00743866,0,
00:10.1,0.002529144,0.004508972,0.007444382,0,
00:10.1,0.002529144,0.004537582,0.007410049,0,
00:10.1,0.00254631,0.004537582,0.007341385,0,
00:10.1,0.002523422,0.004526138,0.007415771,0,
00:10.1,0.002552032,0.004508972,0.007455826,0,
00:10.1,0.0025177,0.00450325,0.007472992,0,
00:10.1,0.002494812,0.004508972,0.007484436,0,
00:10.1,0.002494812,0.004497528,0.007432938,0,
00:10.1,0.002483368,0.004480362,0.007421494,0,
00:10.1,0.002500534,0.004491806,0.007490158,0,
00:10.1,0.002529144,0.004497528,0.00749588,0,
00:10.1,0.0025177,0.004508972,0.007490158,0,
00:10.1,0.002511978,0.004508972,0.007501602,0,
00:10.1,0.002506256,0.004491806,0.007484436,0,
00:10.1,0.002506256,0.004491806,0.007484436,0,
00:10.1,0.002506256,0.004486084,0.007484436,0,
00:10.1,0.002506256,0.004486084,0.007484436,0,
00:10.1,0.0025177,0.004508972,0.007490158,0,
00:10.1,0.002523422,0.004520416,0.00749588,0,
00:10.1,0.002529144,0.004514694,0.007501602,0,
00:10.2,0.002534866,0.004508972,0.007490158,0,
00:10.2,0.002552032,0.004520416,0.007461548,0,
00:10.2,0.002523422,0.004508972,0.007484436,0,
00:10.2,0.002529144,0.004497528,0.007490158,0,
00:10.2,0.002552032,0.00450325,0.007490158,0,
00:10.2,0.002529144,0.00450325,0.007484436,0,
00:10.2,0.002529144,0.004491806,0.007518768,0,
00:10.2,0.002523422,0.004486084,0.007535934,0,
00:10.2,0.002523422,0.004486084,0.007513046,0,
00:10.2,0.002523422,0.00447464,0.007564545,0,
00:10.2,0.002494812,0.004468918,0.007541656,0,
00:10.2,0.002500534,0.00447464,0.007518768,0,
00:10.2,0.002523422,0.00447464,0.007541656,0,
00:10.2,0.0025177,0.00447464,0.007553101,0,
00:10.2,0.0025177,0.004486084,0.007553101,0,
00:10.2,0.002523422,0.00447464,0.007530212,0,
00:10.2,0.002529144,0.004463196,0.007513046,0,
00:10.2,0.002534866,0.00447464,0.007541656,0,
00:10.2,0.002511978,0.00447464,0.007575989,0,
00:10.2,0.002511978,0.004468918,0.007575989,0,
00:10.2,0.002523422,0.004486084,0.007575989,0,
00:10.2,0.002529144,0.004486084,0.007547379,0,
00:10.2,0.00254631,0.004480362,0.007541656,0,
00:10.2,0.002540588,0.004480362,0.007593155,0,
00:10.2,0.002523422,0.004491806,0.007541656,0,
00:10.3,0.002540588,0.004491806,0.007501602,0,
00:10.3,0.0025177,0.00447464,0.007581711,0,
00:10.3,0.002523422,0.00447464,0.007644653,0,
00:10.3,0.002592087,0.004480362,0.007581711,0,
00:10.3,0.002552032,0.004480362,0.007593155,0,
