Elapsed_Time,EMG1,EMG2,EMG3,BioRadio Event,Unnamed: 5
00:00:00,0.001745224,0.003295898,0.017715454,0,
00:00.0,0.001785278,0.003318787,0.017681122,0,
00:00.0,0.001756668,0.003307343,0.017681122,0,
00:00.0,0.001722336,0.003290176,0.017721176,0,
00:00.0,0.001750946,0.00330162,0.017726898,0,
00:00.0,0.001779556,0.003318787,0.017715454,0,
00:00.0,0.001768112,0.003318787,0.017698288,0,
00:00.0,0.00176239,0.003313065,0.01770401,0,
00:00.0,0.001768112,0.003313065,0.01770401,0,
00:00.0,0.001750946,0.003307343,0.017698288,0,
00:00.0,0.001750946,0.003324509,0.017698288,0,
00:00.0,0.00173378,0.003318787,0.0176754,0,
00:00.0,0.001756668,0.003324509,0.017721176,0,
00:00.1,0.00176239,0.003324509,0.017692566,0,
00:00.1,0.001756668,0.003324509,0.017698288,0,
00:00.1,0.00176239,0.003324509,0.017709732,0,
00:00.1,0.001745224,0.003324509,0.017686844,0,
00:00.1,0.001739502,0.003324509,0.017698288,0,
00:00.1,0.001785278,0.003313065,0.017738342,0,
00:00.1,0.001773834,0.003330231,0.017738342,0,
00:00.1,0.001768112,0.003330231,0.017715454,0,
00:00.1,0.001779556,0.003347397,0.017709732,0,
00:00.1,0.001768112,0.003335953,0.017709732,0,
00:00.1,0.00176239,0.003330231,0.017721176,0,
00:00.1,0.001750946,0.003318787,0.017726898,0,
00:00.1,0.001750946,0.003330231,0.017738342,0,
00:00.1,0.001756668,0.003341675,0.017721176,0,
00:00.1,0.001791,0.003353119,0.017709732,0,
00:00.1,0.001768112,0.003335953,0.01773262,0,
00:00.1,0.001768112,0.003347397,0.017721176,0,
00:00.1,0.001779556,0.003341675,0.01773262,0,
00:00.1,0.001768112,0.003335953,0.017721176,0,
00:00.1,0.001768112,0.003358841,0.017755508,0,
00:00.1,0.00176239,0.003341675,0.017749786,0,
00:00.1,0.001779556,0.003347397,0.01773262,0,
00:00.1,0.001773834,0.003341675,0.017755508,0,
00:00.1,0.001779556,0.003347397,0.01776123,0,
00:00.1,0.001791,0.003358841,0.017755508,0,
00:00.2,0.001779556,0.003364563,0.017755508,0,
00:00.2,0.001773834,0.003353119,0.01776123,0,
00:00.2,0.001779556,0.003347397,0.017766953,0,
00:00.2,0.001756668,0.003358841,0.01776123,0,
00:00.2,0.001779556,0.003347397,0.017744064,0,
00:00.2,0.001785278,0.003335953,0.017795563,0,
00:00.2,0.001796722,0.003364563,0.017772675,0,
00:00.2,0.001785278,0.003364563,0.017766953,0,
00:00.2,0.001768112,0.003341675,0.017784119,0,
00:00.2,0.001785278,0.003353119,0.017795563,0,
00:00.2,0.001808167,0.003376007,0.017807007,0,
00:00.2,0.001785278,0.003370285,0.017784119,0,
00:00.2,0.001791,0.003370285,0.017766953,0,
00:00.2,0.001785278,0.003370285,0.017772675,0,
00:00.2,0.001785278,0.003364563,0.017824173,0,
00:00.2,0.001796722,0.003364563,0.017807007,0,
00:00.2,0.001785278,0.003370285,0.017801285,0,
00:00.2,0.001773834,0.003381729,0.017778397,0,
00:00.2,0.001779556,0.003364563,0.017795563,0,
00:00.2,0.001779556,0.003364563,0.017824173,0,
00:00.2,0.001773834,0.003364563,0.017835617,0,
00:00.2,0.001791,0.003370285,0.017847061,0,
00:00.2,0.001773834,0.003364563,0.017824173,0,
00:00.2,0.001779556,0.003370285,0.017818451,0,
00:00.2,0.001808167,0.003387451,0.017812729,0,
00:00.3,0.001796722,0.003387451,0.017835617,0,
00:00.3,0.001773834,0.003387451,0.017829895,0,
00:00.3,0.001785278,0.003376007,0.017824173,0,
00:00.3,0.001796722,0.003381729,0.017858505,0,
00:00.3,0.001796722,0.003381729,0.017852783,0,
00:00.3,0.001768112,0.003381729,0.017835617,0,
00:00.3,0.001779556,0.003381729,0.017835617,0,
00:00.3,0.001796722,0.003404617,0.017858505,0,
00:00.3,0.001785278,0.003376007,0.017841339,0,
00:00.3,0.001796722,0.003387451,0.017847061,0,
00:00.3,0.001796722,0.003393173,0.017858505,0,
00:00.3,0.001785278,0.003381729,0.017858505,0,
00:00.3,0.001785278,0.003393173,0.017852783,0,
00:00.3,0.001756668,0.003393173,0.017881393,0,
00:00.3,0.001779556,0.003393173,0.017875671,0,
00:00.3,0.001796722,0.003393173,0.017858505,0,
00:00.3,0.001773834,0.003387451,0.017847061,0,
00:00.3,0.001785278,0.003393173,0.017881393,0,
00:00.3,0.001802444,0.003404617,0.017892838,0,
00:00.3,0.001796722,0.003410339,0.017869949,0,
00:00.3,0.001808167,0.003404617,0.017875671,0,
00:00.3,0.001802444,0.003393173,0.017892838,0,
00:00.3,0.001779556,0.003404617,0.017875671,0,
00:00.3,0.001791,0.003416061,0.017887115,0,
00:00.3,0.001796722,0.003398895,0.017904282,0,
00:00.4,0.001785278,0.003404617,0.01789856,0,
00:00.4,0.001779556,0.003404617,0.017892838,0,
00:00.4,0.001802444,0.003416061,0.017910004,0,
00:00.4,0.001813889,0.003416061,0.017915726,0,
00:00.4,0.001802444,0.003416061,0.017921448,0,
00:00.4,0.001779556,0.003416061,0.017915726,0,
00:00.4,0.001791,0.003427505,0.017910004,0,
00:00.4,0.001808167,0.003427505,0.017892838,0,
00:00.4,0.001796722,0.003427505,0.017944336,0,
00:00.4,0.001779556,0.003421783,0.017932892,0,
00:00.4,0.001808167,0.003421783,0.017944336,0,
00:00.4,0.001796722,0.003433228,0.017932892,0,
00:00.4,0.001808167,0.003427505,0.017921448,0,
00:00.4,0.001819611,0.003427505,0.017932892,0,
00:00.4,0.001813889,0.003433228,0.017938614,0,
00:00.4,0.001813889,0.003427505,0.017950058,0,
00:00.4,0.001802444,0.003427505,0.017944336,0,
00:00.4,0.001802444,0.003433228,0.017950058,0,
00:00.4,0.001808167,0.003427505,0.01795578,0,
00:00.4,0.001813889,0.00343895,0.01795578,0,
00:00.4,0.001813889,0.003444672,0.017938614,0,
00:00.4,0.001796722,0.003444672,0.017938614,0,
00:00.4,0.001791,0.00343895,0.017967224,0,
00:00.4,0.001808167,0.003444672,0.017967224,0,
00:00.4,0.001819611,0.003444672,0.017961502,0,
00:00.5,0.001808167,0.003450394,0.01795578,0,
00:00.5,0.001802444,0.003461838,0.017932892,0,
00:00.5,0.001808167,0.003444672,0.01795578,0,
00:00.5,0.001802444,0.003450394,0.017961502,0,
00:00.5,0.001802444,0.003444672,0.017972946,0,
00:00.5,0.001791,0.003444672,0.017967224,0,
00:00.5,0.001813889,0.003450394,0.017961502,0,
00:00.5,0.001808167,0.003456116,0.017950058,0,
00:00.5,0.001796722,0.003444672,0.017990112,0,
00:00.5,0.001791,0.003444672,0.01798439,0,
00:00.5,0.001813889,0.003450394,0.017961502,0,
00:00.5,0.001796722,0.003444672,0.017990112,0,
00:00.5,0.001819611,0.003461838,0.017990112,0,
00:00.5,0.001842499,0.00346756,0.017978668,0,
00:00.5,0.001819611,0.003461838,0.017978668,0,
00:00.5,0.001802444,0.003450394,0.017990112,0,
00:00.5,0.001796722,0.003450394,0.017978668,0,
00:00.5,0.001808167,0.003456116,0.017995834,0,
00:00.5,0.001813889,0.003473282,0.017978668,0,
00:00.5,0.001796722,0.003479004,0.01798439,0,
00:00.5,0.001808167,0.003456116,0.01798439,0,
00:00.5,0.001825333,0.003444672,0.01798439,0,
00:00.5,0.001796722,0.00346756,0.01798439,0,
00:00.5,0.001808167,0.003461838,0.018035889,0,
00:00.5,0.001819611,0.00346756,0.018007278,0,
00:00.6,0.001802444,0.003473282,0.018013,0,
00:00.6,0.001791,0.003456116,0.017990112,0,
00:00.6,0.001785278,0.003456116,0.017990112,0,
00:00.6,0.001796722,0.00346756,0.017995834,0,
00:00.6,0.001802444,0.003461838,0.018030167,0,
00:00.6,0.001802444,0.00346756,0.018024445,0,
00:00.6,0.001796722,0.003473282,0.018018723,0,
00:00.6,0.001813889,0.003473282,0.018013,0,
00:00.6,0.001813889,0.003484726,0.018013,0,
00:00.6,0.001785278,0.00346756,0.018013,0,
00:00.6,0.001791,0.003461838,0.018024445,0,
00:00.6,0.001813889,0.003473282,0.018007278,0,
00:00.6,0.001791,0.003479004,0.018018723,0,
00:00.6,0.001831055,0.003484726,0.018018723,0,
00:00.6,0.001819611,0.003490448,0.018064499,0,
00:00.6,0.001802444,0.003490448,0.018035889,0,
00:00.6,0.001813889,0.003473282,0.018013,0,
00:00.6,0.001808167,0.003484726,0.018041611,0,
00:00.6,0.001802444,0.003473282,0.018053055,0,
00:00.6,0.001802444,0.00346756,0.018035889,0,
00:00.6,0.001796722,0.003461838,0.018053055,0,
00:00.6,0.001802444,0.003479004,0.018058777,0,
00:00.6,0.001796722,0.003484726,0.018047333,0,
00:00.6,0.001802444,0.003490448,0.018035889,0,
00:00.6,0.001791,0.003484726,0.018035889,0,
00:00.7,0.001802444,0.003479004,0.018058777,0,
00:00.7,0.001813889,0.003479004,0.018053055,0,
00:00.7,0.001825333,0.003490448,0.018047333,0,
00:00.7,0.001819611,0.00349617,0.018041611,0,
00:00.7,0.001825333,0.003490448,0.018058777,0,
00:00.7,0.001785278,0.003490448,0.018058777,0,
00:00.7,0.001796722,0.003484726,0.018081665,0,
00:00.7,0.001813889,0.00349617,0.018064499,0,
00:00.7,0.001825333,0.003507614,0.018070221,0,
00:00.7,0.001831055,0.00349617,0.018064499,0,
00:00.7,0.001808167,0.003479004,0.018075943,0,
00:00.7,0.001808167,0.003490448,0.018075943,0,
00:00.7,0.001819611,0.003507614,0.018081665,0,
00:00.7,0.001808167,0.003501892,0.018070221,0,
00:00.7,0.001796722,0.003484726,0.018070221,0,
00:00.7,0.001813889,0.003501892,0.018081665,0,
00:00.7,0.001802444,0.003484726,0.018075943,0,
00:00.7,0.001796722,0.00349617,0.018047333,0,
00:00.7,0.001802444,0.00349617,0.018075943,0,
00:00.7,0.001831055,0.00349617,0.018093109,0,
00:00.7,0.001825333,0.003507614,0.018098831,0,
00:00.7,0.001808167,0.003501892,0.018081665,0,
00:00.7,0.001779556,0.00349617,0.018093109,0,
00:00.7,0.001779556,0.003501892,0.018093109,0,
00:00.7,0.001842499,0.00352478,0.018075943,0,
00:00.8,0.001842499,0.00349617,0.018070221,0,
00:00.8,0.001825333,0.00349617,0.018110275,0,
00:00.8,0.001819611,0.003513336,0.018098831,0,
00:00.8,0.001802444,0.003501892,0.018110275,0,
00:00.8,0.001813889,0.003507614,0.018110275,0,
00:00.8,0.001825333,0.003501892,0.018093109,0,
00:00.8,0.001813889,0.00349617,0.018087387,0,
00:00.8,0.001808167,0.003530502,0.018104553,0,
00:00.8,0.001802444,0.003513336,0.018104553,0,
00:00.8,0.001802444,0.003501892,0.018087387,0,
00:00.8,0.001825333,0.003513336,0.018110275,0,
00:00.8,0.001802444,0.003507614,0.018121719,0,
00:00.8,0.001802444,0.00349617,0.018110275,0,
00:00.8,0.001831055,0.003513336,0.018110275,0,
00:00.8,0.001831055,0.003519058,0.018110275,0,
00:00.8,0.001813889,0.003507614,0.018133163,0,
00:00.8,0.001802444,0.003507614,0.018127441,0,
00:00.8,0.001819611,0.00352478,0.018127441,0,
00:00.8,0.001796722,0.003530502,0.018121719,0,
00:00.8,0.001779556,0.003501892,0.018133163,0,
00:00.8,0.001836777,0.003507614,0.018133163,0,
00:00.8,0.001836777,0.003519058,0.018121719,0,
00:00.8,0.001819611,0.00352478,0.018104553,0,
00:00.8,0.001802444,0.003507614,0.01815033,0,
00:00.8,0.001831055,0.00352478,0.018144608,0,
00:00.9,0.001831055,0.003519058,0.018144608,0,
00:00.9,0.001819611,0.00352478,0.018121719,0,
00:00.9,0.001825333,0.003536224,0.018110275,0,
00:00.9,0.001819611,0.003519058,0.018144608,0,
00:00.9,0.001796722,0.00352478,0.018167496,0,
00:00.9,0.001813889,0.00352478,0.018138885,0,
00:00.9,0.001813889,0.003519058,0.01815033,0,
00:00.9,0.001825333,0.00352478,0.018144608,0,
00:00.9,0.001831055,0.00352478,0.018138885,0,
00:00.9,0.001825333,0.003541946,0.018144608,0,
00:00.9,0.001825333,0.003536224,0.018138885,0,
00:00.9,0.001819611,0.003513336,0.018156052,0,
00:00.9,0.001808167,0.003519058,0.01815033,0,
00:00.9,0.001796722,0.003530502,0.018115997,0,
00:00.9,0.001831055,0.003530502,0.018144608,0,
00:00.9,0.001848221,0.00352478,0.018144608,0,
00:00.9,0.001819611,0.003519058,0.018184662,0,
00:00.9,0.001802444,0.003513336,0.018173218,0,
00:00.9,0.001813889,0.003536224,0.018161774,0,
00:00.9,0.001819611,0.003536224,0.01815033,0,
00:00.9,0.001836777,0.003530502,0.01817894,0,
00:00.9,0.001802444,0.003530502,0.018161774,0,
00:00.9,0.001831055,0.003530502,0.01815033,0,
00:00.9,0.001848221,0.003541946,0.018161774,0,
00:00.9,0.001819611,0.003530502,0.018184662,0,
00:01.0,0.001813889,0.003541946,0.018167496,0,
00:01.0,0.001802444,0.00352478,0.018161774,0,
00:01.0,0.001831055,0.00352478,0.01817894,0,
00:01.0,0.001831055,0.003536224,0.01815033,0,
00:01.0,0.001825333,0.003536224,0.018127441,0,
00:01.0,0.001791,0.003519058,0.018190384,0,
00:01.0,0.001796722,0.003530502,0.018201828,0,
00:01.0,0.001848221,0.003536224,0.018196106,0,
00:01.0,0.001836777,0.003530502,0.01817894,0,
00:01.0,0.001831055,0.003536224,0.018161774,0,
00:01.0,0.001825333,0.003530502,0.01817894,0,
00:01.0,0.001802444,0.003519058,0.018190384,0,
00:00:01,0.001842499,0.003536224,0.018184662,0,
00:01.0,0.001831055,0.003536224,0.018190384,0,
00:01.0,0.001825333,0.003536224,0.018190384,0,
00:01.0,0.001831055,0.003541946,0.018173218,0,
00:01.0,0.001802444,0.003536224,0.01820755,0,
00:01.0,0.001813889,0.00352478,0.01820755,0,
00:01.0,0.001831055,0.003536224,0.018190384,0,
00:01.0,0.001842499,0.003553391,0.018173218,0,
00:01.0,0.001831055,0.003536224,0.018173218,0,
00:01.0,0.001819611,0.00352478,0.01820755,0,
00:01.0,0.001819611,0.003536224,0.018213272,0,
00:01.0,0.001813889,0.003541946,0.018190384,0,
00:01.0,0.001825333,0.003530502,0.018196106,0,
00:01.1,0.001819611,0.003519058,0.01820755,0,
00:01.1,0.001825333,0.00352478,0.018190384,0,
00:01.1,0.001836777,0.003536224,0.01820755,0,
00:01.1,0.001859665,0.003547668,0.018184662,0,
00:01.1,0.001825333,0.003541946,0.018190384,0,
00:01.1,0.001813889,0.003541946,0.01820755,0,
00:01.1,0.001836777,0.003536224,0.01817894,0,
00:01.1,0.001819611,0.003536224,0.018213272,0,
00:01.1,0.001825333,0.003547668,0.018196106,0,
00:01.1,0.001842499,0.003536224,0.018218994,0,
00:01.1,0.001831055,0.003536224,0.018218994,0,
00:01.1,0.001825333,0.003547668,0.018213272,0,
00:01.1,0.001808167,0.003541946,0.01820755,0,
00:01.1,0.001779556,0.003530502,0.018196106,0,
00:01.1,0.001836777,0.003536224,0.018213272,0,
00:01.1,0.001848221,0.00352478,0.01820755,0,
00:01.1,0.001848221,0.003536224,0.018213272,0,
00:01.1,0.001836777,0.003547668,0.018213272,0,
00:01.1,0.001813889,0.003536224,0.018201828,0,
00:01.1,0.001853943,0.003530502,0.018201828,0,
00:01.1,0.001831055,0.003530502,0.01820755,0,
00:01.1,0.001819611,0.003541946,0.018224716,0,
00:01.1,0.001791,0.003541946,0.018218994,0,
00:01.1,0.001802444,0.003530502,0.018184662,0,
00:01.1,0.001842499,0.003536224,0.01820755,0,
00:01.2,0.001842499,0.003541946,0.018224716,0,
00:01.2,0.001853943,0.003547668,0.018190384,0,
00:01.2,0.001836777,0.003530502,0.018196106,0,
00:01.2,0.001808167,0.003530502,0.018253326,0,
00:01.2,0.001813889,0.003553391,0.01823616,0,
00:01.2,0.001842499,0.003547668,0.018230438,0,
00:01.2,0.001831055,0.003536224,0.018213272,0,
00:01.2,0.001831055,0.003536224,0.018213272,0,
00:01.2,0.001848221,0.003547668,0.018218994,0,
00:01.2,0.001836777,0.003530502,0.018201828,0,
00:01.2,0.001808167,0.00352478,0.018230438,0,
00:01.2,0.001813889,0.003536224,0.018230438,0,
00:01.2,0.001831055,0.003536224,0.018213272,0,
00:01.2,0.001813889,0.003541946,0.018213272,0,
00:01.2,0.001831055,0.003530502,0.018230438,0,
00:01.2,0.001825333,0.003519058,0.018259048,0,
00:01.2,0.001808167,0.003536224,0.01823616,0,
00:01.2,0.001802444,0.003536224,0.018218994,0,
00:01.2,0.001836777,0.003553391,0.01823616,0,
00:01.2,0.001831055,0.003547668,0.018224716,0,
00:01.2,0.001853943,0.003530502,0.018241882,0,
00:01.2,0.001836777,0.003547668,0.01823616,0,
00:01.2,0.001825333,0.003559113,0.01820755,0,
00:01.2,0.001842499,0.003547668,0.018224716,0,
00:01.2,0.001836777,0.003530502,0.018190384,0,
00:01.3,0.001819611,0.003513336,0.018253326,0,
00:01.3,0.001825333,0.00352478,0.018270493,0,
00:01.3,0.001836777,0.003547668,0.018259048,0,
00:01.3,0.001831055,0.003553391,0.018230438,0,
00:01.3,0.001813889,0.003530502,0.018230438,0,
00:01.3,0.001802444,0.003519058,0.018253326,0,
00:01.3,0.001796722,0.003530502,0.01823616,0,
00:01.3,0.001831055,0.003536224,0.018247604,0,
00:01.3,0.001882553,0.003541946,0.018241882,0,
00:01.3,0.001848221,0.003541946,0.018247604,0,
00:01.3,0.001836777,0.003536224,0.01823616,0,
00:01.3,0.001813889,0.003530502,0.01823616,0,
00:01.3,0.001825333,0.003536224,0.018213272,0,
00:01.3,0.001831055,0.003519058,0.018241882,0,
00:01.3,0.001819611,0.003530502,0.018264771,0,
00:01.3,0.001842499,0.003553391,0.018253326,0,
00:01.3,0.001831055,0.003530502,0.018264771,0,
00:01.3,0.001836777,0.00352478,0.018241882,0,
00:01.3,0.001831055,0.00352478,0.018241882,0,
00:01.3,0.001831055,0.003530502,0.018264771,0,
00:01.3,0.001808167,0.00352478,0.018247604,0,
00:01.3,0.001836777,0.00352478,0.018253326,0,
00:01.3,0.001836777,0.003530502,0.018259048,0,
00:01.3,0.001813889,0.003541946,0.018230438,0,
00:01.3,0.001865387,0.003530502,0.018213272,0,
00:01.4,0.001842499,0.003530502,0.018264771,0,
00:01.4,0.001842499,0.003541946,0.018264771,0,
00:01.4,0.001831055,0.003530502,0.018264771,0,
00:01.4,0.001825333,0.003530502,0.018270493,0,
00:01.4,0.001813889,0.003536224,0.018259048,0,
00:01.4,0.001819611,0.003530502,0.018259048,0,
00:01.4,0.001848221,0.003530502,0.018270493,0,
00:01.4,0.001859665,0.003536224,0.018253326,0,
00:01.4,0.001825333,0.00352478,0.018247604,0,
00:01.4,0.001819611,0.003519058,0.018247604,0,
00:01.4,0.001836777,0.003519058,0.018241882,0,
00:01.4,0.001848221,0.00352478,0.018281937,0,
00:01.4,0.001842499,0.003536224,0.018276215,0,
00:01.4,0.001831055,0.003530502,0.018259048,0,
00:01.4,0.001836777,0.00352478,0.018253326,0,
00:01.4,0.001848221,0.00352478,0.018247604,0,
00:01.4,0.001853943,0.00352478,0.018253326,0,
00:01.4,0.001836777,0.003530502,0.018270493,0,
00:01.4,0.001819611,0.00352478,0.018270493,0,
00:01.4,0.001831055,0.00352478,0.018270493,0,
00:01.4,0.001842499,0.003530502,0.018259048,0,
00:01.4,0.001831055,0.003519058,0.018270493,0,
00:01.4,0.001836777,0.003519058,0.018247604,0,
00:01.4,0.001791,0.003507614,0.018281937,0,
00:01.4,0.001831055,0.003530502,0.018276215,0,
00:01.5,0.001859665,0.003536224,0.018259048,0,
00:01.5,0.001848221,0.003530502,0.018259048,0,
00:01.5,0.001836777,0.003519058,0.018270493,0,
00:01.5,0.001836777,0.003519058,0.018281937,0,
00:01.5,0.001848221,0.003536224,0.018253326,0,
00:01.5,0.001848221,0.003519058,0.018247604,0,
00:01.5,0.001842499,0.003507614,0.018287659,0,
00:01.5,0.001848221,0.003530502,0.018276215,0,
00:01.5,0.001842499,0.00352478,0.018259048,0,
00:01.5,0.001831055,0.003507614,0.018270493,0,
00:01.5,0.001825333,0.003519058,0.018287659,0,
00:01.5,0.001848221,0.003530502,0.018276215,0,
00:01.5,0.001848221,0.003541946,0.018259048,0,
00:01.5,0.001819611,0.003519058,0.018276215,0,
00:01.5,0.001848221,0.00352478,0.018264771,0,
00:01.5,0.001842499,0.003519058,0.018247604,0,
00:01.5,0.001825333,0.003519058,0.018270493,0,
00:01.5,0.001831055,0.00352478,0.018276215,0,
00:01.5,0.001842499,0.003536224,0.018287659,0,
00:01.5,0.001836777,0.003530502,0.018276215,0,
00:01.5,0.001836777,0.003530502,0.018253326,0,
00:01.5,0.001842499,0.003530502,0.018218994,0,
00:01.5,0.001831055,0.00352478,0.018264771,0,
00:01.5,0.001859665,0.003530502,0.018287659,0,
00:01.5,0.001865387,0.003519058,0.018264771,0,
00:01.6,0.001859665,0.003519058,0.018281937,0,
00:01.6,0.001836777,0.00352478,0.018270493,0,
00:01.6,0.001842499,0.003536224,0.018264771,0,
00:01.6,0.001842499,0.003541946,0.018270493,0,
00:01.6,0.001836777,0.00352478,0.018264771,0,
00:01.6,0.001848221,0.00349617,0.018276215,0,
00:01.6,0.001836777,0.003519058,0.018264771,0,
00:01.6,0.001831055,0.003519058,0.018264771,0,
00:01.6,0.001842499,0.003536224,0.018253326,0,
00:01.6,0.001836777,0.003530502,0.018247604,0,
00:01.6,0.001836777,0.003519058,0.018293381,0,
00:01.6,0.001842499,0.00352478,0.018276215,0,
00:01.6,0.001842499,0.003530502,0.018270493,0,
00:01.6,0.001871109,0.003530502,0.018276215,0,
00:01.6,0.001836777,0.00352478,0.018270493,0,
00:01.6,0.001813889,0.003519058,0.018253326,0,
00:01.6,0.001836777,0.00352478,0.018230438,0,
00:01.6,0.001871109,0.003519058,0.018259048,0,
00:01.6,0.001831055,0.003513336,0.018281937,0,
00:01.6,0.001859665,0.003519058,0.018264771,0,
00:01.6,0.001876831,0.003536224,0.018247604,0,
00:01.6,0.001859665,0.003536224,0.018253326,0,
00:01.6,0.001853943,0.003519058,0.018259048,0,
00:01.6,0.001859665,0.003513336,0.018264771,0,
00:01.6,0.001836777,0.003507614,0.018281937,0,
00:01.7,0.001808167,0.003507614,0.018264771,0,
00:01.7,0.001848221,0.00352478,0.018253326,0,
00:01.7,0.001871109,0.00352478,0.018241882,0,
00:01.7,0.001842499,0.003513336,0.018287659,0,
00:01.7,0.001842499,0.003530502,0.018276215,0,
00:01.7,0.001848221,0.003513336,0.018264771,0,
00:01.7,0.001848221,0.003513336,0.018264771,0,
00:01.7,0.001865387,0.003530502,0.018253326,0,
00:01.7,0.001865387,0.00352478,0.018253326,0,
00:01.7,0.001825333,0.003519058,0.018264771,0,
00:01.7,0.001865387,0.00352478,0.018253326,0,
00:01.7,0.001871109,0.003519058,0.018253326,0,
00:01.7,0.001871109,0.003519058,0.018253326,0,
00:01.7,0.001865387,0.00352478,0.018247604,0,
00:01.7,0.001859665,0.003513336,0.018259048,0,
00:01.7,0.001859665,0.003519058,0.018281937,0,
00:01.7,0.001848221,0.003513336,0.018253326,0,
00:01.7,0.001831055,0.00352478,0.018259048,0,
00:01.7,0.001853943,0.00352478,0.018264771,0,
00:01.7,0.001836777,0.003519058,0.018247604,0,
00:01.7,0.001853943,0.003513336,0.018253326,0,
00:01.7,0.001871109,0.00352478,0.018259048,0,
00:01.7,0.001882553,0.003513336,0.018259048,0,
00:01.7,0.001853943,0.003519058,0.018276215,0,
00:01.7,0.001853943,0.003530502,0.018270493,0,
00:01.8,0.001859665,0.003513336,0.018241882,0,
00:01.8,0.001859665,0.00352478,0.01823616,0,
00:01.8,0.001842499,0.003513336,0.018287659,0,
00:01.8,0.001865387,0.003507614,0.018270493,0,
00:01.8,0.001871109,0.003513336,0.018264771,0,
00:01.8,0.001865387,0.003519058,0.018281937,0,
00:01.8,0.001853943,0.00352478,0.018276215,0,
00:01.8,0.001865387,0.003513336,0.018281937,0,
00:01.8,0.001871109,0.003507614,0.018264771,0,
00:01.8,0.001853943,0.003507614,0.018276215,0,
00:01.8,0.001859665,0.003519058,0.018270493,0,
00:01.8,0.001842499,0.003513336,0.018259048,0,
00:01.8,0.001831055,0.003507614,0.018259048,0,
00:01.8,0.001859665,0.003513336,0.018270493,0,
00:01.8,0.001882553,0.003513336,0.018270493,0,
00:01.8,0.001876831,0.003513336,0.018247604,0,
00:01.8,0.001871109,0.00352478,0.018253326,0,
00:01.8,0.001882553,0.003519058,0.018281937,0,
00:01.8,0.001871109,0.003513336,0.018276215,0,
00:01.8,0.001865387,0.003519058,0.018264771,0,
00:01.8,0.001871109,0.003519058,0.018264771,0,
00:01.8,0.001859665,0.003507614,0.018264771,0,
00:01.8,0.001865387,0.003519058,0.018276215,0,
00:01.8,0.001865387,0.00352478,0.018264771,0,
00:01.8,0.001853943,0.003507614,0.018264771,0,
00:01.9,0.001865387,0.003501892,0.018276215,0,
00:01.9,0.001871109,0.003507614,0.018264771,0,
00:01.9,0.001859665,0.003501892,0.018264771,0,
00:01.9,0.001876831,0.003513336,0.018281937,0,
00:01.9,0.001853943,0.003513336,0.018259048,0,
00:01.9,0.001848221,0.003507614,0.018270493,0,
00:01.9,0.001882553,0.003507614,0.018264771,0,
00:01.9,0.001888275,0.003513336,0.01823616,0,
00:01.9,0.001865387,0.003507614,0.01823616,0,
00:01.9,0.001853943,0.003501892,0.018287659,0,
00:01.9,0.001865387,0.003519058,0.018264771,0,
00:01.9,0.001871109,0.003519058,0.018241882,0,
00:01.9,0.001888275,0.003519058,0.01823616,0,
00:01.9,0.001876831,0.003513336,0.018253326,0,
00:01.9,0.001848221,0.003507614,0.018293381,0,
00:01.9,0.001859665,0.003519058,0.018276215,0,
00:01.9,0.001882553,0.003507614,0.018259048,0,
00:01.9,0.001876831,0.003507614,0.018270493,0,
00:01.9,0.001842499,0.003507614,0.018264771,0,
00:01.9,0.001825333,0.003501892,0.018253326,0,
00:01.9,0.001882553,0.003513336,0.018259048,0,
00:01.9,0.001876831,0.003507614,0.018259048,0,
00:01.9,0.001876831,0.003513336,0.018241882,0,
00:01.9,0.001882553,0.003507614,0.018253326,0,
00:01.9,0.001882553,0.003507614,0.018270493,0,
00:02.0,0.001871109,0.003507614,0.018247604,0,
00:02.0,0.001865387,0.003501892,0.018253326,0,
00:02.0,0.001853943,0.003507614,0.018264771,0,
00:02.0,0.001876831,0.003513336,0.018241882,0,
00:02.0,0.001871109,0.003501892,0.018253326,0,
00:02.0,0.001853943,0.00349617,0.018276215,0,
00:02.0,0.001882553,0.003507614,0.018253326,0,
00:02.0,0.001876831,0.003519058,0.018264771,0,
00:02.0,0.001859665,0.003513336,0.018253326,0,
00:02.0,0.001876831,0.003507614,0.018241882,0,
00:02.0,0.001882553,0.003507614,0.018259048,0,
00:02.0,0.001865387,0.003507614,0.018253326,0,
00:00:02,0.001859665,0.003490448,0.018259048,0,
00:02.0,0.001871109,0.00349617,0.018270493,0,
00:02.0,0.001888275,0.003501892,0.018253326,0,
00:02.0,0.001853943,0.003501892,0.018241882,0,
00:02.0,0.001871109,0.003513336,0.018264771,0,
00:02.0,0.001876831,0.00349617,0.018253326,0,
00:02.0,0.001871109,0.003490448,0.018253326,0,
00:02.0,0.001865387,0.00349617,0.018270493,0,
00:02.0,0.001882553,0.003507614,0.01823616,0,
00:02.0,0.001899719,0.00349617,0.018247604,0,
00:02.0,0.001882553,0.003501892,0.018264771,0,
00:02.0,0.001871109,0.003501892,0.018259048,0,
00:02.0,0.001865387,0.003513336,0.018241882,0,
00:02.1,0.001871109,0.003507614,0.018241882,0,
00:02.1,0.001859665,0.003490448,0.018241882,0,
00:02.1,0.001871109,0.00349617,0.018247604,0,
00:02.1,0.001893997,0.003507614,0.018253326,0,
00:02.1,0.001882553,0.003507614,0.018276215,0,
00:02.1,0.001882553,0.003507614,0.018264771,0,
00:02.1,0.001882553,0.003507614,0.018264771,0,
00:02.1,0.001888275,0.00349617,0.018241882,0,
00:02.1,0.001871109,0.003501892,0.018264771,0,
00:02.1,0.001865387,0.00349617,0.018241882,0,
00:02.1,0.001888275,0.003501892,0.018247604,0,
00:02.1,0.001871109,0.003501892,0.018247604,0,
00:02.1,0.001859665,0.003501892,0.018230438,0,
00:02.1,0.001865387,0.003507614,0.01823616,0,
00:02.1,0.001888275,0.00349617,0.018247604,0,
00:02.1,0.001871109,0.00349617,0.01823616,0,
00:02.1,0.001876831,0.003501892,0.018259048,0,
00:02.1,0.001882553,0.003501892,0.018270493,0,
00:02.1,0.001888275,0.003507614,0.018259048,0,
00:02.1,0.001876831,0.003501892,0.018264771,0,
00:02.1,0.001876831,0.003501892,0.018247604,0,
00:02.1,0.001871109,0.00349617,0.018253326,0,
00:02.1,0.001871109,0.003490448,0.018241882,0,
00:02.1,0.001876831,0.003507614,0.018241882,0,
00:02.1,0.001871109,0.00349617,0.018259048,0,
00:02.2,0.001888275,0.003507614,0.018259048,0,
00:02.2,0.001876831,0.00349617,0.018247604,0,
00:02.2,0.001859665,0.00349617,0.01823616,0,
00:02.2,0.001876831,0.003507614,0.018196106,0,
00:02.2,0.001882553,0.003484726,0.018259048,0,
00:02.2,0.001865387,0.003490448,0.018253326,0,
00:02.2,0.001842499,0.003490448,0.018230438,0,
00:02.2,0.001876831,0.00349617,0.018259048,0,
00:02.2,0.001911163,0.003507614,0.018247604,0,
00:02.2,0.001871109,0.003501892,0.018253326,0,
00:02.2,0.001871109,0.00349617,0.018253326,0,
00:02.2,0.001865387,0.003490448,0.018253326,0,
00:02.2,0.001876831,0.003507614,0.018230438,0,
00:02.2,0.001905441,0.003501892,0.018247604,0,
00:02.2,0.001876831,0.003484726,0.018253326,0,
00:02.2,0.001882553,0.00349617,0.018247604,0,
00:02.2,0.001865387,0.003513336,0.01823616,0,
00:02.2,0.001876831,0.003501892,0.01820755,0,
00:02.2,0.001888275,0.003490448,0.01823616,0,
00:02.2,0.001888275,0.00349617,0.018247604,0,
00:02.2,0.001865387,0.003501892,0.018224716,0,
00:02.2,0.001848221,0.003501892,0.01823616,0,
00:02.2,0.001882553,0.003501892,0.018241882,0,
00:02.2,0.001888275,0.003490448,0.018241882,0,
00:02.2,0.001899719,0.003490448,0.018241882,0,
00:02.3,0.001882553,0.003490448,0.018241882,0,
00:02.3,0.001876831,0.00349617,0.01820755,0,
00:02.3,0.001865387,0.00349617,0.018213272,0,
00:02.3,0.001882553,0.003501892,0.018253326,0,
00:02.3,0.001859665,0.003490448,0.018218994,0,
00:02.3,0.001876831,0.003484726,0.01823616,0,
00:02.3,0.001899719,0.003501892,0.018241882,0,
00:02.3,0.001893997,0.003501892,0.01823616,0,
00:02.3,0.001871109,0.003490448,0.018213272,0,
00:02.3,0.001871109,0.003484726,0.018230438,0,
00:02.3,0.001876831,0.003479004,0.018213272,0,
00:02.3,0.001882553,0.003484726,0.018230438,0,
00:02.3,0.001882553,0.00349617,0.01823616,0,
00:02.3,0.001888275,0.003484726,0.018241882,0,
00:02.3,0.001888275,0.003490448,0.01823616,0,
00:02.3,0.001876831,0.003501892,0.01823616,0,
00:02.3,0.001882553,0.003490448,0.018201828,0,
00:02.3,0.001888275,0.003484726,0.018218994,0,
00:02.3,0.001876831,0.003501892,0.018213272,0,
00:02.3,0.001905441,0.003501892,0.018213272,0,
00:02.3,0.001876831,0.003479004,0.018241882,0,
00:02.3,0.001882553,0.003479004,0.018230438,0,
00:02.3,0.001888275,0.003484726,0.018230438,0,
00:02.3,0.001853943,0.003479004,0.018224716,0,
00:02.3,0.001859665,0.003490448,0.018218994,0,
00:02.4,0.001888275,0.003490448,0.01820755,0,
00:02.4,0.001882553,0.003490448,0.018201828,0,
00:02.4,0.001882553,0.003484726,0.018230438,0,
00:02.4,0.001899719,0.003490448,0.018224716,0,
00:02.4,0.001893997,0.003484726,0.018230438,0,
00:02.4,0.001905441,0.00349617,0.018224716,0,
00:02.4,0.001876831,0.003473282,0.018224716,0,
00:02.4,0.001859665,0.003484726,0.018201828,0,
00:02.4,0.001876831,0.00349617,0.01820755,0,
00:02.4,0.001899719,0.00349617,0.018224716,0,
00:02.4,0.001871109,0.003479004,0.018224716,0,
00:02.4,0.001888275,0.003490448,0.018224716,0,
00:02.4,0.001905441,0.003501892,0.018184662,0,
00:02.4,0.001888275,0.003484726,0.018218994,0,
00:02.4,0.001876831,0.003479004,0.01823616,0,
00:02.4,0.001853943,0.003484726,0.018218994,0,
00:02.4,0.001859665,0.003484726,0.018218994,0,
00:02.4,0.001899719,0.00349617,0.01820755,0,
00:02.4,0.001888275,0.003473282,0.018230438,0,
00:02.4,0.001888275,0.003473282,0.018224716,0,
00:02.4,0.001871109,0.003479004,0.018218994,0,
00:02.4,0.001893997,0.00349617,0.018218994,0,
00:02.4,0.001899719,0.003484726,0.01820755,0,
00:02.4,0.001882553,0.003484726,0.018184662,0,
00:02.4,0.001893997,0.003490448,0.018218994,0,
00:02.5,0.001888275,0.003473282,0.018230438,0,
00:02.5,0.001859665,0.003484726,0.018224716,0,
00:02.5,0.001859665,0.003484726,0.018213272,0,
00:02.5,0.001893997,0.003490448,0.01820755,0,
00:02.5,0.001905441,0.003490448,0.018218994,0,
00:02.5,0.001876831,0.003479004,0.018184662,0,
00:02.5,0.001882553,0.003479004,0.018201828,0,
00:02.5,0.001871109,0.003484726,0.018247604,0,
00:02.5,0.001871109,0.003473282,0.018213272,0,
00:02.5,0.001882553,0.003484726,0.018201828,0,
00:02.5,0.001882553,0.003479004,0.018218994,0,
00:02.5,0.001893997,0.003479004,0.018213272,0,
00:02.5,0.001871109,0.003490448,0.018196106,0,
00:02.5,0.001876831,0.003490448,0.018218994,0,
00:02.5,0.001899719,0.003473282,0.018218994,0,
00:02.5,0.001893997,0.003484726,0.018213272,0,
00:02.5,0.001871109,0.00349617,0.018201828,0,
00:02.5,0.001882553,0.003479004,0.018196106,0,
00:02.5,0.001888275,0.003479004,0.018201828,0,
00:02.5,0.001888275,0.003479004,0.018201828,0,
00:02.5,0.001865387,0.003484726,0.018213272,0,
00:02.5,0.001888275,0.003484726,0.018213272,0,
00:02.5,0.001882553,0.003484726,0.018201828,0,
00:02.5,0.001871109,0.003479004,0.018196106,0,
00:02.5,0.001882553,0.003473282,0.01823616,0,
00:02.6,0.001905441,0.003479004,0.018224716,0,
00:02.6,0.001882553,0.003490448,0.018213272,0,
00:02.6,0.001888275,0.003490448,0.018218994,0,
00:02.6,0.001888275,0.003479004,0.018201828,0,
00:02.6,0.001905441,0.003479004,0.018196106,0,
00:02.6,0.001871109,0.003473282,0.018201828,0,
00:02.6,0.001836777,0.003473282,0.018224716,0,
00:02.6,0.001888275,0.003479004,0.01820755,0,
00:02.6,0.001899719,0.003473282,0.01820755,0,
00:02.6,0.001893997,0.003473282,0.018218994,0,
00:02.6,0.001876831,0.003473282,0.018213272,0,
00:02.6,0.001882553,0.003484726,0.018196106,0,
00:02.6,0.001888275,0.003484726,0.018167496,0,
00:02.6,0.001888275,0.003479004,0.018201828,0,
00:02.6,0.001882553,0.00346756,0.018230438,0,
00:02.6,0.001888275,0.003473282,0.018201828,0,
00:02.6,0.001882553,0.003473282,0.018184662,0,
00:02.6,0.001871109,0.003479004,0.018213272,0,
00:02.6,0.001888275,0.003479004,0.018218994,0,
00:02.6,0.001888275,0.003473282,0.018201828,0,
00:02.6,0.001888275,0.003473282,0.018184662,0,
00:02.6,0.001876831,0.003490448,0.018196106,0,
00:02.6,0.001905441,0.003490448,0.018190384,0,
00:02.6,0.001876831,0.00346756,0.018196106,0,
00:02.6,0.001865387,0.003461838,0.018196106,0,
00:02.7,0.001876831,0.00346756,0.018201828,0,
00:02.7,0.001899719,0.003479004,0.018196106,0,
00:02.7,0.001871109,0.003479004,0.018201828,0,
00:02.7,0.001876831,0.003473282,0.018190384,0,
00:02.7,0.001916885,0.00346756,0.018196106,0,
00:02.7,0.001893997,0.003461838,0.018190384,0,
00:02.7,0.001888275,0.00349617,0.018184662,0,
00:02.7,0.001893997,0.003484726,0.018161774,0,
00:02.7,0.001882553,0.003456116,0.018196106,0,
00:02.7,0.001888275,0.00346756,0.018196106,0,
00:02.7,0.001899719,0.003473282,0.01817894,0,
00:02.7,0.001882553,0.003461838,0.018184662,0,
00:02.7,0.001876831,0.00346756,0.018196106,0,
00:02.7,0.001899719,0.003484726,0.018196106,0,
00:02.7,0.001899719,0.003479004,0.018161774,0,
00:02.7,0.001876831,0.003456116,0.018173218,0,
00:02.7,0.001899719,0.003479004,0.018196106,0,
00:02.7,0.001871109,0.003484726,0.018161774,0,
00:02.7,0.001882553,0.00346756,0.018184662,0,
00:02.7,0.001876831,0.003473282,0.018190384,0,
00:02.7,0.001911163,0.003473282,0.018190384,0,
00:02.7,0.001905441,0.003484726,0.01820755,0,
00:02.7,0.001893997,0.003479004,0.01817894,0,
00:02.7,0.001893997,0.00346756,0.01817894,0,
00:02.7,0.001893997,0.003461838,0.01817894,0,
00:02.8,0.001865387,0.003461838,0.018161774,0,
00:02.8,0.001859665,0.003461838,0.018167496,0,
00:02.8,0.001893997,0.003479004,0.018184662,0,
00:02.8,0.001911163,0.003479004,0.018173218,0,
00:02.8,0.001882553,0.003461838,0.018167496,0,
00:02.8,0.001888275,0.00346756,0.01815033,0,
00:02.8,0.001888275,0.00346756,0.018167496,0,
00:02.8,0.001876831,0.00346756,0.018167496,0,
00:02.8,0.001876831,0.00346756,0.018196106,0,
00:02.8,0.001899719,0.00346756,0.01817894,0,
00:02.8,0.001899719,0.00346756,0.018161774,0,
00:02.8,0.001865387,0.00346756,0.018167496,0,
00:02.8,0.001893997,0.003461838,0.018156052,0,
00:02.8,0.001893997,0.00346756,0.018161774,0,
00:02.8,0.001876831,0.00346756,0.018161774,0,
00:02.8,0.001893997,0.003484726,0.018161774,0,
00:02.8,0.001905441,0.003479004,0.018184662,0,
00:02.8,0.001882553,0.003461838,0.01817894,0,
00:02.8,0.001888275,0.003456116,0.018173218,0,
00:02.8,0.001911163,0.003461838,0.018167496,0,
00:02.8,0.001899719,0.003473282,0.018167496,0,
00:02.8,0.001893997,0.003479004,0.018127441,0,
00:02.8,0.001876831,0.003456116,0.018161774,0,
00:02.8,0.001882553,0.003473282,0.018167496,0,
00:02.8,0.001888275,0.003461838,0.018167496,0,
00:02.9,0.001888275,0.00346756,0.018161774,0,
00:02.9,0.001893997,0.003473282,0.018161774,0,
00:02.9,0.001899719,0.003461838,0.018161774,0,
00:02.9,0.001882553,0.003456116,0.018144608,0,
00:02.9,0.001871109,0.003456116,0.018167496,0,
00:02.9,0.001888275,0.003461838,0.018173218,0,
00:02.9,0.001899719,0.003473282,0.018133163,0,
00:02.9,0.001871109,0.003473282,0.018156052,0,
00:02.9,0.001871109,0.003461838,0.018184662,0,
00:02.9,0.001859665,0.003473282,0.018161774,0,
00:02.9,0.001916885,0.00346756,0.018167496,0,
00:02.9,0.001916885,0.003461838,0.018156052,0,
00:02.9,0.001893997,0.003461838,0.01815033,0,
00:02.9,0.001876831,0.003456116,0.01815033,0,
00:02.9,0.001871109,0.003456116,0.01815033,0,
00:02.9,0.001888275,0.003473282,0.018161774,0,
00:02.9,0.001905441,0.00346756,0.018144608,0,
00:02.9,0.001893997,0.00346756,0.01817894,0,
00:02.9,0.001888275,0.003456116,0.018167496,0,
00:02.9,0.001882553,0.00346756,0.018167496,0,
00:02.9,0.001893997,0.00346756,0.018156052,0,
00:02.9,0.001882553,0.003461838,0.018138885,0,
00:02.9,0.001871109,0.00346756,0.01815033,0,
00:02.9,0.001888275,0.003473282,0.01815033,0,
00:02.9,0.001888275,0.003456116,0.01815033,0,
00:03.0,0.001853943,0.003444672,0.018173218,0,
00:03.0,0.001865387,0.003456116,0.018156052,0,
00:03.0,0.001876831,0.00346756,0.018133163,0,
00:03.0,0.001916885,0.003461838,0.018156052,0,
00:03.0,0.001893997,0.003456116,0.01815033,0,
00:03.0,0.001882553,0.003473282,0.018133163,0,
00:03.0,0.001876831,0.003461838,0.018156052,0,
00:03.0,0.001893997,0.003456116,0.018190384,0,
00:03.0,0.001899719,0.00346756,0.018167496,0,
00:03.0,0.001888275,0.003473282,0.018161774,0,
00:03.0,0.001888275,0.00346756,0.01815033,0,
00:03.0,0.001888275,0.00346756,0.01815033,0,
00:00:03,0.001882553,0.003456116,0.018144608,0,
00:03.0,0.001871109,0.00346756,0.01815033,0,
00:03.0,0.001899719,0.00346756,0.01815033,0,
00:03.0,0.001865387,0.003456116,0.018144608,0,
00:03.0,0.001871109,0.003450394,0.018156052,0,
00:03.0,0.001899719,0.003444672,0.01815033,0,
00:03.0,0.001848221,0.003444672,0.018110275,0,
00:03.0,0.001876831,0.00346756,0.01815033,0,
00:03.0,0.001876831,0.003461838,0.018173218,0,
00:03.0,0.001911163,0.00346756,0.018173218,0,
00:03.0,0.001899719,0.003456116,0.018161774,0,
00:03.0,0.001911163,0.003461838,0.01815033,0,
00:03.0,0.001888275,0.003461838,0.018127441,0,
00:03.1,0.001876831,0.003444672,0.018156052,0,
00:03.1,0.001876831,0.003456116,0.018161774,0,
00:03.1,0.001888275,0.003461838,0.018138885,0,
00:03.1,0.001871109,0.003456116,0.018121719,0,
00:03.1,0.001871109,0.003456116,0.018144608,0,
00:03.1,0.001893997,0.003456116,0.018161774,0,
00:03.1,0.001888275,0.003479004,0.018156052,0,
00:03.1,0.001876831,0.00346756,0.018121719,0,
00:03.1,0.001893997,0.003450394,0.018121719,0,
00:03.1,0.001888275,0.003444672,0.018144608,0,
00:03.1,0.001893997,0.003461838,0.018156052,0,
00:03.1,0.001888275,0.003450394,0.01817894,0,
00:03.1,0.001853943,0.003450394,0.018144608,0,
00:03.1,0.001876831,0.003444672,0.018138885,0,
00:03.1,0.001905441,0.003456116,0.018127441,0,
00:03.1,0.001882553,0.003456116,0.018144608,0,
00:03.1,0.001865387,0.003461838,0.018127441,0,
00:03.1,0.001888275,0.003456116,0.018138885,0,
00:03.1,0.001876831,0.003444672,0.01815033,0,
00:03.1,0.001876831,0.003444672,0.018127441,0,
00:03.1,0.001899719,0.003456116,0.01815033,0,
00:03.1,0.001899719,0.003461838,0.018138885,0,
00:03.1,0.001888275,0.003461838,0.018133163,0,
00:03.1,0.001882553,0.003450394,0.018127441,0,
00:03.1,0.001893997,0.003450394,0.01815033,0,
00:03.2,0.001882553,0.003461838,0.018121719,0,
00:03.2,0.001888275,0.003450394,0.018138885,0,
00:03.2,0.001893997,0.003444672,0.018144608,0,
00:03.2,0.001888275,0.003444672,0.018115997,0,
00:03.2,0.001876831,0.003444672,0.01815033,0,
00:03.2,0.001871109,0.003450394,0.018144608,0,
00:03.2,0.001888275,0.003456116,0.018127441,0,
00:03.2,0.001893997,0.003456116,0.018127441,0,
00:03.2,0.001888275,0.003433228,0.018138885,0,
00:03.2,0.001893997,0.003444672,0.018144608,0,
00:03.2,0.001893997,0.003456116,0.018144608,0,
00:03.2,0.001876831,0.003456116,0.018127441,0,
00:03.2,0.001859665,0.003444672,0.018127441,0,
00:03.2,0.001853943,0.00343895,0.01815033,0,
00:03.2,0.001888275,0.003444672,0.018144608,0,
00:03.2,0.001934052,0.003461838,0.018127441,0,
00:03.2,0.001911163,0.003450394,0.018098831,0,
00:03.2,0.001888275,0.00343895,0.018104553,0,
00:03.2,0.001865387,0.00343895,0.018184662,0,
00:03.2,0.001876831,0.003450394,0.01815033,0,
00:03.2,0.001893997,0.003450394,0.018121719,0,
00:03.2,0.001916885,0.003444672,0.018138885,0,
00:03.2,0.001899719,0.003444672,0.018127441,0,
00:03.2,0.001888275,0.003450394,0.018121719,0,
00:03.2,0.001876831,0.00343895,0.018138885,0,
00:03.3,0.001876831,0.003433228,0.018133163,0,
00:03.3,0.001893997,0.003450394,0.018104553,0,
00:03.3,0.001893997,0.003450394,0.018110275,0,
00:03.3,0.001882553,0.003444672,0.018138885,0,
00:03.3,0.001859665,0.003433228,0.018138885,0,
00:03.3,0.001899719,0.003433228,0.018127441,0,
00:03.3,0.001893997,0.003450394,0.018127441,0,
00:03.3,0.001882553,0.003444672,0.018110275,0,
00:03.3,0.001882553,0.003433228,0.018138885,0,
00:03.3,0.001893997,0.003456116,0.018127441,0,
00:03.3,0.001882553,0.003450394,0.018104553,0,
00:03.3,0.001893997,0.00343895,0.018115997,0,
00:03.3,0.001899719,0.003427505,0.018104553,0,
00:03.3,0.001893997,0.00343895,0.018133163,0,
00:03.3,0.001893997,0.003444672,0.018110275,0,
00:03.3,0.001888275,0.003444672,0.018093109,0,
00:03.3,0.001871109,0.003433228,0.018121719,0,
00:03.3,0.001871109,0.00343895,0.018133163,0,
00:03.3,0.001876831,0.003433228,0.018127441,0,
00:03.3,0.001916885,0.00343895,0.018115997,0,
00:03.3,0.001911163,0.003444672,0.018110275,0,
00:03.3,0.001899719,0.003444672,0.018104553,0,
00:03.3,0.001888275,0.003444672,0.018121719,0,
00:03.3,0.001871109,0.00343895,0.018115997,0,
00:03.3,0.001865387,0.003421783,0.018104553,0,
00:03.4,0.001871109,0.003433228,0.018110275,0,
00:03.4,0.001905441,0.003456116,0.018098831,0,
00:03.4,0.001893997,0.003433228,0.018110275,0,
00:03.4,0.001876831,0.003433228,0.018115997,0,
00:03.4,0.001899719,0.003427505,0.018093109,0,
00:03.4,0.001871109,0.003427505,0.018104553,0,
00:03.4,0.001876831,0.00343895,0.018075943,0,
00:03.4,0.001905441,0.00343895,0.018104553,0,
00:03.4,0.001888275,0.00343895,0.018127441,0,
00:03.4,0.001876831,0.003433228,0.018093109,0,
00:03.4,0.001911163,0.003433228,0.018098831,0,
00:03.4,0.001911163,0.003433228,0.018115997,0,
00:03.4,0.001882553,0.003433228,0.018115997,0,
00:03.4,0.001871109,0.003421783,0.018115997,0,
00:03.4,0.001888275,0.00343895,0.018104553,0,
00:03.4,0.001916885,0.003444672,0.018098831,0,
00:03.4,0.001899719,0.00343895,0.018093109,0,
00:03.4,0.001888275,0.003433228,0.018098831,0,
00:03.4,0.001876831,0.003421783,0.018104553,0,
00:03.4,0.001888275,0.003421783,0.018064499,0,
00:03.4,0.001893997,0.003433228,0.018104553,0,
00:03.4,0.001876831,0.003444672,0.018104553,0,
00:03.4,0.001882553,0.003433228,0.018104553,0,
00:03.4,0.001899719,0.003427505,0.018098831,0,
00:03.4,0.001899719,0.003433228,0.018075943,0,
00:03.5,0.001893997,0.003433228,0.018098831,0,
00:03.5,0.001882553,0.003427505,0.018127441,0,
00:03.5,0.001888275,0.003416061,0.018098831,0,
00:03.5,0.001888275,0.003427505,0.018081665,0,
00:03.5,0.001905441,0.003433228,0.018087387,0,
00:03.5,0.001888275,0.003427505,0.018093109,0,
00:03.5,0.001865387,0.003433228,0.018104553,0,
00:03.5,0.001893997,0.003416061,0.018070221,0,
00:03.5,0.001911163,0.00343895,0.018081665,0,
00:03.5,0.001876831,0.003433228,0.018081665,0,
00:03.5,0.001905441,0.003421783,0.018093109,0,
00:03.5,0.001893997,0.003427505,0.018087387,0,
00:03.5,0.001888275,0.003421783,0.018087387,0,
00:03.5,0.001882553,0.003433228,0.018081665,0,
00:03.5,0.001911163,0.003433228,0.018075943,0,
00:03.5,0.001911163,0.003427505,0.018104553,0,
00:03.5,0.001882553,0.003421783,0.018081665,0,
00:03.5,0.001905441,0.003427505,0.018064499,0,
00:03.5,0.001899719,0.003427505,0.018070221,0,
00:03.5,0.001882553,0.003421783,0.018087387,0,
00:03.5,0.001871109,0.003421783,0.018087387,0,
00:03.5,0.001882553,0.003421783,0.018064499,0,
00:03.5,0.001865387,0.003416061,0.018075943,0,
00:03.5,0.001893997,0.003421783,0.018070221,0,
00:03.5,0.001911163,0.003427505,0.018087387,0,
00:03.6,0.001888275,0.003427505,0.018087387,0,
00:03.6,0.001899719,0.003427505,0.018081665,0,
00:03.6,0.001899719,0.003421783,0.018093109,0,
00:03.6,0.001905441,0.003421783,0.018075943,0,
00:03.6,0.001905441,0.003427505,0.018075943,0,
00:03.6,0.001871109,0.003416061,0.018070221,0,
00:03.6,0.001865387,0.003410339,0.018075943,0,
00:03.6,0.001871109,0.003416061,0.018064499,0,
00:03.6,0.001928329,0.003416061,0.018070221,0,
00:03.6,0.001916885,0.003421783,0.018070221,0,
00:03.6,0.001893997,0.003427505,0.018070221,0,
00:03.6,0.001893997,0.003433228,0.018070221,0,
00:03.6,0.001882553,0.003421783,0.018047333,0,
00:03.6,0.001905441,0.003421783,0.018081665,0,
00:03.6,0.001893997,0.003416061,0.018087387,0,
00:03.6,0.001882553,0.003410339,0.018070221,0,
00:03.6,0.001893997,0.003427505,0.018064499,0,
00:03.6,0.001882553,0.003416061,0.018064499,0,
00:03.6,0.001882553,0.003433228,0.018070221,0,
00:03.6,0.001859665,0.003421783,0.018070221,0,
00:03.6,0.001916885,0.003416061,0.018053055,0,
00:03.6,0.001888275,0.003410339,0.018058777,0,
00:03.6,0.001893997,0.003398895,0.018035889,0,
00:03.6,0.001934052,0.003427505,0.018053055,0,
00:03.6,0.001934052,0.003421783,0.018064499,0,
00:03.7,0.001893997,0.003410339,0.018070221,0,
00:03.7,0.001893997,0.003410339,0.018064499,0,
00:03.7,0.001899719,0.003433228,0.018070221,0,
00:03.7,0.001893997,0.003416061,0.018047333,0,
00:03.7,0.001899719,0.003416061,0.018041611,0,
00:03.7,0.001899719,0.003410339,0.018030167,0,
00:03.7,0.001899719,0.003410339,0.018081665,0,
00:03.7,0.001882553,0.003410339,0.018064499,0,
00:03.7,0.001865387,0.003404617,0.018041611,0,
00:03.7,0.001899719,0.003427505,0.018053055,0,
00:03.7,0.001916885,0.003427505,0.018053055,0,
00:03.7,0.001911163,0.003421783,0.018058777,0,
00:03.7,0.001882553,0.003416061,0.018041611,0,
00:03.7,0.001893997,0.003410339,0.018064499,0,
00:03.7,0.001922607,0.003421783,0.018053055,0,
00:03.7,0.001916885,0.003421783,0.018047333,0,
00:03.7,0.001888275,0.003410339,0.018053055,0,
00:03.7,0.001888275,0.003416061,0.018053055,0,
00:03.7,0.001916885,0.003421783,0.018064499,0,
00:03.7,0.001899719,0.003416061,0.018041611,0,
00:03.7,0.001899719,0.003410339,0.018047333,0,
00:03.7,0.001905441,0.003416061,0.018035889,0,
00:03.7,0.001882553,0.003398895,0.018053055,0,
00:03.7,0.001871109,0.003398895,0.018024445,0,
00:03.7,0.001922607,0.003404617,0.018030167,0,
00:03.8,0.001905441,0.003421783,0.018087387,0,
00:03.8,0.001882553,0.003416061,0.018053055,0,
00:03.8,0.001905441,0.003410339,0.018035889,0,
00:03.8,0.001905441,0.003416061,0.018035889,0,
00:03.8,0.001882553,0.003404617,0.018041611,0,
00:03.8,0.001893997,0.003410339,0.018024445,0,
00:03.8,0.001905441,0.003404617,0.018035889,0,
00:03.8,0.001882553,0.003410339,0.018041611,0,
00:03.8,0.001899719,0.003410339,0.018024445,0,
00:03.8,0.001922607,0.003416061,0.018024445,0,
00:03.8,0.001888275,0.003404617,0.018030167,0,
00:03.8,0.001888275,0.003410339,0.018041611,0,
00:03.8,0.001905441,0.003404617,0.018013,0,
00:03.8,0.001911163,0.003410339,0.018013,0,
00:03.8,0.001893997,0.003404617,0.018030167,0,
00:03.8,0.001888275,0.003404617,0.018035889,0,
00:03.8,0.001911163,0.003404617,0.018047333,0,
00:03.8,0.001893997,0.003404617,0.018035889,0,
00:03.8,0.001882553,0.003404617,0.018018723,0,
00:03.8,0.001893997,0.003404617,0.018007278,0,
00:03.8,0.001911163,0.003410339,0.018007278,0,
00:03.8,0.001911163,0.003398895,0.018041611,0,
00:03.8,0.001905441,0.003398895,0.018030167,0,
00:03.8,0.001899719,0.003404617,0.018024445,0,
00:03.8,0.001899719,0.003398895,0.018007278,0,
00:03.9,0.001888275,0.003398895,0.018018723,0,
00:03.9,0.001882553,0.003398895,0.018030167,0,
00:03.9,0.001899719,0.003404617,0.018013,0,
00:03.9,0.001922607,0.003404617,0.018013,0,
00:03.9,0.001899719,0.003398895,0.018018723,0,
00:03.9,0.001899719,0.003398895,0.018018723,0,
00:03.9,0.001888275,0.003398895,0.018013,0,
00:03.9,0.001888275,0.003404617,0.018013,0,
00:03.9,0.001911163,0.003404617,0.018007278,0,
00:03.9,0.001899719,0.003398895,0.018001556,0,
00:03.9,0.001899719,0.003393173,0.018001556,0,
00:03.9,0.001911163,0.003398895,0.018013,0,
00:03.9,0.001911163,0.003398895,0.018024445,0,
00:03.9,0.001899719,0.003398895,0.018007278,0,
00:03.9,0.001882553,0.003398895,0.018013,0,
00:03.9,0.001888275,0.003393173,0.01798439,0,
00:03.9,0.001911163,0.003404617,0.018024445,0,
00:03.9,0.001899719,0.003398895,0.018013,0,
00:03.9,0.001888275,0.003393173,0.018007278,0,
00:03.9,0.001922607,0.003404617,0.017995834,0,
00:03.9,0.001888275,0.003393173,0.018018723,0,
00:03.9,0.001876831,0.003381729,0.018018723,0,
00:03.9,0.001911163,0.003398895,0.018007278,0,
00:03.9,0.001899719,0.003398895,0.01798439,0,
00:03.9,0.001899719,0.003387451,0.018007278,0,
00:04.0,0.001905441,0.003398895,0.018013,0,
00:04.0,0.001893997,0.003387451,0.018001556,0,
00:04.0,0.001893997,0.003387451,0.017978668,0,
00:04.0,0.001905441,0.003404617,0.017990112,0,
00:04.0,0.001888275,0.003393173,0.018001556,0,
00:04.0,0.001876831,0.003381729,0.018007278,0,
00:04.0,0.001916885,0.003393173,0.017978668,0,
00:04.0,0.001905441,0.003393173,0.018024445,0,
00:04.0,0.001911163,0.003398895,0.018007278,0,
00:04.0,0.001905441,0.003404617,0.01798439,0,
00:04.0,0.001888275,0.003381729,0.017995834,0,
00:04.0,0.001882553,0.003387451,0.018001556,0,
00:00:04,0.001871109,0.003387451,0.017990112,0,
00:04.0,0.001893997,0.003387451,0.017995834,0,
00:04.0,0.001905441,0.003398895,0.01798439,0,
00:04.0,0.001911163,0.003398895,0.018007278,0,
00:04.0,0.001882553,0.003393173,0.017995834,0,
00:04.0,0.001911163,0.003387451,0.017961502,0,
00:04.0,0.001888275,0.003381729,0.01798439,0,
00:04.0,0.001882553,0.003376007,0.018007278,0,
00:04.0,0.001911163,0.003398895,0.017990112,0,
00:04.0,0.001922607,0.003393173,0.017990112,0,
00:04.0,0.001916885,0.003393173,0.017990112,0,
00:04.0,0.001905441,0.003387451,0.017995834,0,
00:04.0,0.001893997,0.003387451,0.017990112,0,
00:04.1,0.001876831,0.003398895,0.017961502,0,
00:04.1,0.001876831,0.003387451,0.017972946,0,
00:04.1,0.001893997,0.003381729,0.017995834,0,
00:04.1,0.001905441,0.003393173,0.017995834,0,
00:04.1,0.001888275,0.003387451,0.017978668,0,
00:04.1,0.001905441,0.003387451,0.017972946,0,
00:04.1,0.001888275,0.003393173,0.017972946,0,
00:04.1,0.001888275,0.003387451,0.017944336,0,
00:04.1,0.001922607,0.003387451,0.017950058,0,
00:04.1,0.001911163,0.003393173,0.017990112,0,
00:04.1,0.001876831,0.003387451,0.01798439,0,
00:04.1,0.001865387,0.003381729,0.017972946,0,
00:04.1,0.001911163,0.003387451,0.017944336,0,
00:04.1,0.001934052,0.003404617,0.017950058,0,
00:04.1,0.001911163,0.003393173,0.017972946,0,
00:04.1,0.001893997,0.003393173,0.017967224,0,
00:04.1,0.001899719,0.003393173,0.017961502,0,
00:04.1,0.001876831,0.003381729,0.01795578,0,
00:04.1,0.001876831,0.003381729,0.017950058,0,
00:04.1,0.001888275,0.003381729,0.017961502,0,
00:04.1,0.001905441,0.003398895,0.01795578,0,
00:04.1,0.001905441,0.003393173,0.017944336,0,
00:04.1,0.001893997,0.003387451,0.017938614,0,
00:04.1,0.001905441,0.003381729,0.017944336,0,
00:04.1,0.001882553,0.003381729,0.017950058,0,
00:04.2,0.001853943,0.003381729,0.017944336,0,
00:04.2,0.001882553,0.003364563,0.017932892,0,
00:04.2,0.001916885,0.003376007,0.017932892,0,
00:04.2,0.001922607,0.003398895,0.017921448,0,
00:04.2,0.001916885,0.003398895,0.017944336,0,
00:04.2,0.001905441,0.003393173,0.017915726,0,
00:04.2,0.001888275,0.003381729,0.017932892,0,
00:04.2,0.001865387,0.003364563,0.017950058,0,
00:04.2,0.001859665,0.003370285,0.017944336,0,
00:04.2,0.001876831,0.003387451,0.017921448,0,
00:04.2,0.001928329,0.003387451,0.017932892,0,
00:04.2,0.001916885,0.003393173,0.017910004,0,
00:04.2,0.001905441,0.003376007,0.01789856,0,
00:04.2,0.001905441,0.003370285,0.01795578,0,
00:04.2,0.001893997,0.003376007,0.017932892,0,
00:04.2,0.001882553,0.003376007,0.017932892,0,
00:04.2,0.001876831,0.003376007,0.017921448,0,
00:04.2,0.001882553,0.003376007,0.017915726,0,
00:04.2,0.001934052,0.003387451,0.01789856,0,
00:04.2,0.001911163,0.003387451,0.01789856,0,
00:04.2,0.001905441,0.003381729,0.017915726,0,
00:04.2,0.001893997,0.003370285,0.017932892,0,
00:04.2,0.001888275,0.003364563,0.017938614,0,
00:04.2,0.001893997,0.003370285,0.017921448,0,
00:04.2,0.001899719,0.003370285,0.017887115,0,
00:04.3,0.001899719,0.003387451,0.017910004,0,
00:04.3,0.001893997,0.003381729,0.017921448,0,
00:04.3,0.001865387,0.003370285,0.01792717,0,
00:04.3,0.001876831,0.003370285,0.017910004,0,
00:04.3,0.001888275,0.003376007,0.017915726,0,
00:04.3,0.001876831,0.003381729,0.01789856,0,
00:04.3,0.001899719,0.003376007,0.017881393,0,
00:04.3,0.001911163,0.003387451,0.017887115,0,
00:04.3,0.001922607,0.003370285,0.017910004,0,
00:04.3,0.001905441,0.003376007,0.01792717,0,
00:04.3,0.001882553,0.003381729,0.017910004,0,
00:04.3,0.001899719,0.003370285,0.017887115,0,
00:04.3,0.001899719,0.003381729,0.017864227,0,
00:04.3,0.001905441,0.003364563,0.017904282,0,
00:04.3,0.001888275,0.003364563,0.017921448,0,
00:04.3,0.001899719,0.003376007,0.017910004,0,
00:04.3,0.001905441,0.003381729,0.017904282,0,
00:04.3,0.001893997,0.003370285,0.017887115,0,
00:04.3,0.001882553,0.003364563,0.017910004,0,
00:04.3,0.001888275,0.003370285,0.017892838,0,
00:04.3,0.001899719,0.003376007,0.017887115,0,
00:04.3,0.001876831,0.003370285,0.017881393,0,
00:04.3,0.001882553,0.003353119,0.01789856,0,
00:04.3,0.001905441,0.003370285,0.017887115,0,
00:04.3,0.001893997,0.003370285,0.017910004,0,
00:04.4,0.001882553,0.003370285,0.01789856,0,
00:04.4,0.001916885,0.003364563,0.017892838,0,
00:04.4,0.001928329,0.003376007,0.017875671,0,
00:04.4,0.001905441,0.003387451,0.017858505,0,
00:04.4,0.001882553,0.003358841,0.017892838,0,
00:04.4,0.001882553,0.003358841,0.017910004,0,
00:04.4,0.001893997,0.003370285,0.01789856,0,
00:04.4,0.001905441,0.003364563,0.017881393,0,
00:04.4,0.001905441,0.003370285,0.017892838,0,
00:04.4,0.001899719,0.003376007,0.017887115,0,
00:04.4,0.001899719,0.003376007,0.017892838,0,
00:04.4,0.001899719,0.003370285,0.017881393,0,
00:04.4,0.001905441,0.003364563,0.017864227,0,
00:04.4,0.001888275,0.003353119,0.017887115,0,
00:04.4,0.001888275,0.003370285,0.017887115,0,
00:04.4,0.001888275,0.003358841,0.017875671,0,
00:04.4,0.001905441,0.003370285,0.017887115,0,
00:04.4,0.001888275,0.003364563,0.017887115,0,
00:04.4,0.001865387,0.003358841,0.017887115,0,
00:04.4,0.001899719,0.003364563,0.017875671,0,
00:04.4,0.001916885,0.003358841,0.017841339,0,
00:04.4,0.001905441,0.003364563,0.017852783,0,
00:04.4,0.001899719,0.003364563,0.017887115,0,
00:04.4,0.001905441,0.003358841,0.017892838,0,
00:04.4,0.001865387,0.003358841,0.017887115,0,
00:04.5,0.001876831,0.003364563,0.017875671,0,
00:04.5,0.001928329,0.003376007,0.017869949,0,
00:04.5,0.001916885,0.003364563,0.017869949,0,
00:04.5,0.001899719,0.003358841,0.017847061,0,
00:04.5,0.001876831,0.003347397,0.017852783,0,
00:04.5,0.001899719,0.003347397,0.017881393,0,
00:04.5,0.001911163,0.003370285,0.017858505,0,
00:04.5,0.001876831,0.003370285,0.017858505,0,
00:04.5,0.001899719,0.003358841,0.017858505,0,
00:04.5,0.001888275,0.003353119,0.017847061,0,
00:04.5,0.001899719,0.003353119,0.017892838,0,
00:04.5,0.001911163,0.003364563,0.017869949,0,
00:04.5,0.001899719,0.003358841,0.017858505,0,
00:04.5,0.001899719,0.003358841,0.017858505,0,
00:04.5,0.001893997,0.003358841,0.017847061,0,
00:04.5,0.001882553,0.003353119,0.017852783,0,
00:04.5,0.001899719,0.003353119,0.017864227,0,
00:04.5,0.001899719,0.003353119,0.017852783,0,
00:04.5,0.001899719,0.003358841,0.017847061,0,
00:04.5,0.001899719,0.003353119,0.017847061,0,
00:04.5,0.001893997,0.003364563,0.017852783,0,
00:04.5,0.001893997,0.003358841,0.017852783,0,
00:04.5,0.001916885,0.003353119,0.017824173,0,
00:04.5,0.001893997,0.003347397,0.017841339,0,
00:04.5,0.001899719,0.003364563,0.017864227,0,
00:04.6,0.001899719,0.003364563,0.017841339,0,
00:04.6,0.001899719,0.003353119,0.017841339,0,
00:04.6,0.001905441,0.003358841,0.017847061,0,
00:04.6,0.001916885,0.003358841,0.017829895,0,
00:04.6,0.001888275,0.003347397,0.017841339,0,
00:04.6,0.001882553,0.003347397,0.017852783,0,
00:04.6,0.001911163,0.003364563,0.017841339,0,
00:04.6,0.001893997,0.003358841,0.017841339,0,
00:04.6,0.001899719,0.003353119,0.017829895,0,
00:04.6,0.001905441,0.003353119,0.017824173,0,
00:04.6,0.001888275,0.003341675,0.017835617,0,
00:04.6,0.001893997,0.003341675,0.017835617,0,
00:04.6,0.001893997,0.003341675,0.017829895,0,
00:04.6,0.001899719,0.003364563,0.017841339,0,
00:04.6,0.001911163,0.003358841,0.017841339,0,
00:04.6,0.001905441,0.003347397,0.017852783,0,
00:04.6,0.001888275,0.003358841,0.017841339,0,
00:04.6,0.001871109,0.003353119,0.017818451,0,
00:04.6,0.001899719,0.003347397,0.017841339,0,
00:04.6,0.001905441,0.003341675,0.017835617,0,
00:04.6,0.001899719,0.003353119,0.017818451,0,
00:04.6,0.001911163,0.003353119,0.017807007,0,
00:04.6,0.001899719,0.003341675,0.017829895,0,
00:04.6,0.001888275,0.003347397,0.017824173,0,
00:04.6,0.001888275,0.003347397,0.017835617,0,
00:04.7,0.001893997,0.003347397,0.017835617,0,
00:04.7,0.001905441,0.003335953,0.017818451,0,
00:04.7,0.001916885,0.003353119,0.017801285,0,
00:04.7,0.001911163,0.003353119,0.017818451,0,
00:04.7,0.001888275,0.003347397,0.017829895,0,
00:04.7,0.001876831,0.003341675,0.017824173,0,
00:04.7,0.001899719,0.003335953,0.017812729,0,
00:04.7,0.001888275,0.003335953,0.017812729,0,
00:04.7,0.001888275,0.003347397,0.017795563,0,
00:04.7,0.001922607,0.003364563,0.017801285,0,
00:04.7,0.001893997,0.003347397,0.017807007,0,
00:04.7,0.001899719,0.003341675,0.017835617,0,
00:04.7,0.001911163,0.003341675,0.017824173,0,
00:04.7,0.001882553,0.003347397,0.017807007,0,
00:04.7,0.001893997,0.003341675,0.017812729,0,
00:04.7,0.001905441,0.003341675,0.017812729,0,
00:04.7,0.001888275,0.003347397,0.017807007,0,
00:04.7,0.001882553,0.003341675,0.017807007,0,
00:04.7,0.001893997,0.003335953,0.017807007,0,
00:04.7,0.001888275,0.003330231,0.017807007,0,
00:04.7,0.001911163,0.003347397,0.017789841,0,
00:04.7,0.001899719,0.003341675,0.017801285,0,
00:04.7,0.001911163,0.003353119,0.017784119,0,
00:04.7,0.001893997,0.003335953,0.017807007,0,
00:04.7,0.001905441,0.003341675,0.017778397,0,
00:04.8,0.001893997,0.003341675,0.017801285,0,
00:04.8,0.001876831,0.003324509,0.017801285,0,
00:04.8,0.001899719,0.003341675,0.017795563,0,
00:04.8,0.001893997,0.003330231,0.017789841,0,
00:04.8,0.001888275,0.003335953,0.017789841,0,
00:04.8,0.001911163,0.003341675,0.017784119,0,
00:04.8,0.001899719,0.003335953,0.017795563,0,
00:04.8,0.001893997,0.003318787,0.017772675,0,
00:04.8,0.001871109,0.003335953,0.017766953,0,
00:04.8,0.001899719,0.003341675,0.017807007,0,
00:04.8,0.001905441,0.003347397,0.017789841,0,
00:04.8,0.001876831,0.003330231,0.017772675,0,
00:04.8,0.001893997,0.003330231,0.017795563,0,
00:04.8,0.001928329,0.003335953,0.017789841,0,
00:04.8,0.001893997,0.003330231,0.017789841,0,
00:04.8,0.001899719,0.003347397,0.01776123,0,
00:04.8,0.001893997,0.003330231,0.017778397,0,
00:04.8,0.001893997,0.003324509,0.017789841,0,
00:04.8,0.001916885,0.003335953,0.017778397,0,
00:04.8,0.001871109,0.003330231,0.017784119,0,
00:04.8,0.001911163,0.003335953,0.01776123,0,
00:04.8,0.001911163,0.003330231,0.017778397,0,
00:04.8,0.001905441,0.003330231,0.017784119,0,
00:04.8,0.001899719,0.003335953,0.017738342,0,
00:04.8,0.001893997,0.003330231,0.017772675,0,
00:04.9,0.001876831,0.003324509,0.017801285,0,
00:04.9,0.001916885,0.003330231,0.017766953,0,
00:04.9,0.001911163,0.003330231,0.017766953,0,
00:04.9,0.001899719,0.003318787,0.017778397,0,
00:04.9,0.001911163,0.003324509,0.017789841,0,
00:04.9,0.001911163,0.003330231,0.017766953,0,
00:04.9,0.001899719,0.003318787,0.01776123,0,
00:04.9,0.001876831,0.003324509,0.017766953,0,
00:04.9,0.001865387,0.003318787,0.01776123,0,
00:04.9,0.001934052,0.003324509,0.017755508,0,
00:04.9,0.001934052,0.003341675,0.017755508,0,
00:04.9,0.001899719,0.003330231,0.017749786,0,
00:04.9,0.001871109,0.003318787,0.01776123,0,
00:04.9,0.001905441,0.003324509,0.017721176,0,
00:04.9,0.001905441,0.003318787,0.017766953,0,
00:04.9,0.001905441,0.003318787,0.017789841,0,
00:04.9,0.001899719,0.003335953,0.017778397,0,
00:04.9,0.001905441,0.003335953,0.017766953,0,
00:04.9,0.001882553,0.003313065,0.01776123,0,
00:04.9,0.001888275,0.003318787,0.017755508,0,
00:04.9,0.001899719,0.003330231,0.017749786,0,
00:04.9,0.001928329,0.003324509,0.017749786,0,
00:04.9,0.001882553,0.003324509,0.017755508,0,
00:04.9,0.001871109,0.003330231,0.017738342,0,
00:04.9,0.001893997,0.003324509,0.017744064,0,
00:05.0,0.001939774,0.003324509,0.017749786,0,
00:05.0,0.001922607,0.003330231,0.017755508,0,
00:05.0,0.001899719,0.003324509,0.017744064,0,
00:05.0,0.001893997,0.003335953,0.017721176,0,
00:05.0,0.001893997,0.003318787,0.017715454,0,
00:05.0,0.001916885,0.003318787,0.01776123,0,
00:05.0,0.001916885,0.003324509,0.017749786,0,
00:05.0,0.001905441,0.003324509,0.017749786,0,
00:05.0,0.001899719,0.003318787,0.017744064,0,
00:05.0,0.001882553,0.003318787,0.017738342,0,
00:05.0,0.001888275,0.003324509,0.01773262,0,
00:05.0,0.001916885,0.003330231,0.017721176,0,
00:00:05,0.001916885,0.003335953,0.017726898,0,
00:05.0,0.001888275,0.003318787,0.017744064,0,
00:05.0,0.001882553,0.003313065,0.017721176,0,
00:05.0,0.001888275,0.00330162,0.017749786,0,
00:05.0,0.001916885,0.003324509,0.017721176,0,
00:05.0,0.001905441,0.003324509,0.017738342,0,
00:05.0,0.001899719,0.003324509,0.017738342,0,
00:05.0,0.001905441,0.003324509,0.01770401,0,
00:05.0,0.001888275,0.003313065,0.01773262,0,
00:05.0,0.001905441,0.003318787,0.017738342,0,
00:05.0,0.001922607,0.003330231,0.017726898,0,
00:05.0,0.001911163,0.003318787,0.017726898,0,
00:05.0,0.001899719,0.003318787,0.017726898,0,
00:05.1,0.001882553,0.003313065,0.017715454,0,
00:05.1,0.001899719,0.003330231,0.017698288,0,
00:05.1,0.001922607,0.003318787,0.017681122,0,
00:05.1,0.001916885,0.003324509,0.017744064,0,
00:05.1,0.001905441,0.003330231,0.01773262,0,
00:05.1,0.001893997,0.003324509,0.01770401,0,
00:05.1,0.001876831,0.003318787,0.017715454,0,
00:05.1,0.001916885,0.003318787,0.017698288,0,
00:05.1,0.001893997,0.00330162,0.017721176,0,
00:05.1,0.001893997,0.00330162,0.01773262,0,
00:05.1,0.001905441,0.003318787,0.017715454,0,
00:05.1,0.001911163,0.003318787,0.017686844,0,
00:05.1,0.001922607,0.003313065,0.017715454,0,
00:05.1,0.001899719,0.00330162,0.017721176,0,
00:05.1,0.001905441,0.003318787,0.01770401,0,
00:05.1,0.001899719,0.003324509,0.0176754,0,
00:05.1,0.001871109,0.003307343,0.017715454,0,
00:05.1,0.001905441,0.003307343,0.017715454,0,
00:05.1,0.001934052,0.003313065,0.017686844,0,
00:05.1,0.001911163,0.003313065,0.017709732,0,
00:05.1,0.001888275,0.003318787,0.017709732,0,
00:05.1,0.001905441,0.003318787,0.017686844,0,
00:05.1,0.001905441,0.003313065,0.017681122,0,
00:05.1,0.001916885,0.00330162,0.01770401,0,
00:05.1,0.001911163,0.003295898,0.017698288,0,
00:05.2,0.001905441,0.003313065,0.01770401,0,
00:05.2,0.001893997,0.003318787,0.017681122,0,
00:05.2,0.001893997,0.003313065,0.01770401,0,
00:05.2,0.001916885,0.003318787,0.01770401,0,
00:05.2,0.001916885,0.003313065,0.0176754,0,
00:05.2,0.001882553,0.00330162,0.017681122,0,
00:05.2,0.001865387,0.003307343,0.017698288,0,
00:05.2,0.001916885,0.003318787,0.017686844,0,
00:05.2,0.001905441,0.003313065,0.017692566,0,
00:05.2,0.001928329,0.003318787,0.017686844,0,
00:05.2,0.001905441,0.00330162,0.017681122,0,
00:05.2,0.001893997,0.003295898,0.017692566,0,
00:05.2,0.001882553,0.00330162,0.017681122,0,
00:05.2,0.001922607,0.003324509,0.0176754,0,
00:05.2,0.001916885,0.003318787,0.017709732,0,
00:05.2,0.001911163,0.003313065,0.017686844,0,
00:05.2,0.001911163,0.003318787,0.017681122,0,
00:05.2,0.001899719,0.003307343,0.017686844,0,
00:05.2,0.001871109,0.00330162,0.0176754,0,
00:05.2,0.001893997,0.003313065,0.0176754,0,
00:05.2,0.001934052,0.003318787,0.017681122,0,
00:05.2,0.001916885,0.003313065,0.017658234,0,
00:05.2,0.001899719,0.00330162,0.017692566,0,
00:05.2,0.001899719,0.00330162,0.017692566,0,
00:05.2,0.001899719,0.003307343,0.017663956,0,
00:05.3,0.001882553,0.003307343,0.017658234,0,
00:05.3,0.001876831,0.003307343,0.017686844,0,
00:05.3,0.001922607,0.003307343,0.017692566,0,
00:05.3,0.001945496,0.003324509,0.017686844,0,
00:05.3,0.001911163,0.003307343,0.017686844,0,
00:05.3,0.001899719,0.003307343,0.0176754,0,
00:05.3,0.001876831,0.003295898,0.017681122,0,
00:05.3,0.001916885,0.003307343,0.017681122,0,
00:05.3,0.001911163,0.003313065,0.017669678,0,
00:05.3,0.001905441,0.003307343,0.0176754,0,
00:05.3,0.001911163,0.003313065,0.0176754,0,
00:05.3,0.001893997,0.003307343,0.0176754,0,
00:05.3,0.001882553,0.003318787,0.0176754,0,
00:05.3,0.001899719,0.003313065,0.0176754,0,
00:05.3,0.001916885,0.00330162,0.0176754,0,
00:05.3,0.001911163,0.003307343,0.017681122,0,
00:05.3,0.001899719,0.003307343,0.017669678,0,
00:05.3,0.001899719,0.003313065,0.017669678,0,
00:05.3,0.001916885,0.003313065,0.017669678,0,
00:05.3,0.001905441,0.00330162,0.017692566,0,
00:05.3,0.001911163,0.00330162,0.017681122,0,
00:05.3,0.001899719,0.00330162,0.0176754,0,
00:05.3,0.001888275,0.003295898,0.017658234,0,
00:05.3,0.001922607,0.003313065,0.017663956,0,
00:05.3,0.001922607,0.003313065,0.017681122,0,
00:05.4,0.001905441,0.003307343,0.017698288,0,
00:05.4,0.001905441,0.003307343,0.017681122,0,
00:05.4,0.001905441,0.003290176,0.0176754,0,
00:05.4,0.001876831,0.003295898,0.017681122,0,
00:05.4,0.001911163,0.003307343,0.017658234,0,
00:05.4,0.001934052,0.003313065,0.0176754,0,
00:05.4,0.001916885,0.003307343,0.017669678,0,
00:05.4,0.001899719,0.003307343,0.017686844,0,
00:05.4,0.001916885,0.003313065,0.01770401,0,
00:05.4,0.001911163,0.003313065,0.017686844,0,
00:05.4,0.001905441,0.003307343,0.0176754,0,
00:05.4,0.001899719,0.003307343,0.0176754,0,
00:05.4,0.001888275,0.003295898,0.017686844,0,
00:05.4,0.001893997,0.00330162,0.017686844,0,
00:05.4,0.001893997,0.003313065,0.017681122,0,
00:05.4,0.001899719,0.003295898,0.0176754,0,
00:05.4,0.001916885,0.00330162,0.017692566,0,
00:05.4,0.001911163,0.00330162,0.0176754,0,
00:05.4,0.001911163,0.003307343,0.017681122,0,
00:05.4,0.001905441,0.00330162,0.01770401,0,
00:05.4,0.001905441,0.003313065,0.017686844,0,
00:05.4,0.001899719,0.00330162,0.017698288,0,
00:05.4,0.001916885,0.003295898,0.017692566,0,
00:05.4,0.001899719,0.00330162,0.017698288,0,
00:05.4,0.001899719,0.003307343,0.0176754,0,
00:05.5,0.001905441,0.003307343,0.017686844,0,
00:05.5,0.001916885,0.003318787,0.01770401,0,
00:05.5,0.001905441,0.00330162,0.01770401,0,
00:05.5,0.001916885,0.003307343,0.017698288,0,
00:05.5,0.001905441,0.003307343,0.017692566,0,
00:05.5,0.001888275,0.00330162,0.017686844,0,
00:05.5,0.001876831,0.00330162,0.01770401,0,
00:05.5,0.001922607,0.00330162,0.017692566,0,
00:05.5,0.001911163,0.003307343,0.017658234,0,
00:05.5,0.001911163,0.003307343,0.017715454,0,
00:05.5,0.001899719,0.003307343,0.01773262,0,
00:05.5,0.001899719,0.003290176,0.01770401,0,
00:05.5,0.001905441,0.003295898,0.017692566,0,
00:05.5,0.001899719,0.00330162,0.01773262,0,
00:05.5,0.001928329,0.00330162,0.017726898,0,
00:05.5,0.001928329,0.00330162,0.017715454,0,
00:05.5,0.001911163,0.00330162,0.01770401,0,
00:05.5,0.001899719,0.003290176,0.017698288,0,
00:05.5,0.001893997,0.003295898,0.017721176,0,
00:05.5,0.001905441,0.003307343,0.017721176,0,
00:05.5,0.001911163,0.00330162,0.017721176,0,
00:05.5,0.001922607,0.003307343,0.017715454,0,
00:05.5,0.001922607,0.003307343,0.017692566,0,
00:05.5,0.001905441,0.00330162,0.017721176,0,
00:05.5,0.001911163,0.00330162,0.017709732,0,
00:05.6,0.001882553,0.003278732,0.017744064,0,
00:05.6,0.001899719,0.003307343,0.01773262,0,
00:05.6,0.001905441,0.003307343,0.017721176,0,
00:05.6,0.001893997,0.00330162,0.017721176,0,
00:05.6,0.001934052,0.003295898,0.017721176,0,
00:05.6,0.001916885,0.003295898,0.017738342,0,
00:05.6,0.001905441,0.003295898,0.01773262,0,
00:05.6,0.001911163,0.00330162,0.017726898,0,
00:05.6,0.001893997,0.00330162,0.017721176,0,
00:05.6,0.001899719,0.003307343,0.017709732,0,
00:05.6,0.001911163,0.00330162,0.017721176,0,
00:05.6,0.001905441,0.003295898,0.017755508,0,
00:05.6,0.001911163,0.00330162,0.017721176,0,
00:05.6,0.001911163,0.003307343,0.017709732,0,
00:05.6,0.001916885,0.00330162,0.017744064,0,
00:05.6,0.001911163,0.00330162,0.017766953,0,
00:05.6,0.001916885,0.003313065,0.017738342,0,
00:05.6,0.001899719,0.003295898,0.017726898,0,
00:05.6,0.001888275,0.003307343,0.017738342,0,
00:05.6,0.001934052,0.003318787,0.017738342,0,
00:05.6,0.001916885,0.00330162,0.017744064,0,
00:05.6,0.001911163,0.00330162,0.017721176,0,
00:05.6,0.001911163,0.003295898,0.017766953,0,
00:05.6,0.001899719,0.003295898,0.01776123,0,
00:05.6,0.001905441,0.003295898,0.017755508,0,
00:05.7,0.001882553,0.003284454,0.01776123,0,
00:05.7,0.001899719,0.00330162,0.017738342,0,
00:05.7,0.001939774,0.003307343,0.017715454,0,
00:05.7,0.001911163,0.003307343,0.017755508,0,
00:05.7,0.001911163,0.00330162,0.017784119,0,
00:05.7,0.001916885,0.003307343,0.017766953,0,
00:05.7,0.001911163,0.003295898,0.01776123,0,
00:05.7,0.001922607,0.003290176,0.01776123,0,
00:05.7,0.001916885,0.00330162,0.017744064,0,
00:05.7,0.001916885,0.00330162,0.017755508,0,
00:05.7,0.001905441,0.003307343,0.017749786,0,
00:05.7,0.001939774,0.003307343,0.017749786,0,
00:05.7,0.001916885,0.003295898,0.017778397,0,
00:05.7,0.001911163,0.003295898,0.017772675,0,
00:05.7,0.001916885,0.003295898,0.01776123,0,
00:05.7,0.001916885,0.003307343,0.01776123,0,
00:05.7,0.001922607,0.00330162,0.017766953,0,
00:05.7,0.001899719,0.003295898,0.017755508,0,
00:05.7,0.001911163,0.00330162,0.017766953,0,
00:05.7,0.001905441,0.00330162,0.017784119,0,
00:05.7,0.001916885,0.00330162,0.017772675,0,
00:05.7,0.001922607,0.003295898,0.017778397,0,
00:05.7,0.001928329,0.003307343,0.017749786,0,
00:05.7,0.001916885,0.003295898,0.017772675,0,
00:05.7,0.001905441,0.003295898,0.017795563,0,
00:05.8,0.001911163,0.00330162,0.017766953,0,
00:05.8,0.001934052,0.00330162,0.017772675,0,
00:05.8,0.001939774,0.00330162,0.017789841,0,
00:05.8,0.001905441,0.00330162,0.017789841,0,
00:05.8,0.001911163,0.00330162,0.017772675,0,
00:05.8,0.001945496,0.003307343,0.017778397,0,
00:05.8,0.001899719,0.003307343,0.017789841,0,
00:05.8,0.001928329,0.00330162,0.017784119,0,
00:05.8,0.001934052,0.003284454,0.017784119,0,
00:05.8,0.001911163,0.003295898,0.017795563,0,
00:05.8,0.001905441,0.003284454,0.017789841,0,
00:05.8,0.001899719,0.00330162,0.017784119,0,
00:05.8,0.001911163,0.003307343,0.017778397,0,
00:05.8,0.001939774,0.003313065,0.017772675,0,
00:05.8,0.001928329,0.00330162,0.017801285,0,
00:05.8,0.001905441,0.003295898,0.017807007,0,
00:05.8,0.001922607,0.003295898,0.017795563,0,
00:05.8,0.001934052,0.00330162,0.017801285,0,
00:05.8,0.001928329,0.00330162,0.017801285,0,
00:05.8,0.001922607,0.003307343,0.017795563,0,
00:05.8,0.001916885,0.003290176,0.017772675,0,
00:05.8,0.001905441,0.003307343,0.017784119,0,
00:05.8,0.001916885,0.003295898,0.017795563,0,
00:05.8,0.001939774,0.00330162,0.017812729,0,
00:05.8,0.001922607,0.003290176,0.017807007,0,
00:05.9,0.001916885,0.003295898,0.017812729,0,
00:05.9,0.001928329,0.003307343,0.017795563,0,
00:05.9,0.001928329,0.003313065,0.017812729,0,
00:05.9,0.001922607,0.00330162,0.017807007,0,
00:05.9,0.001899719,0.003295898,0.017812729,0,
00:05.9,0.001916885,0.003295898,0.017807007,0,
00:05.9,0.001922607,0.003295898,0.017807007,0,
00:05.9,0.001922607,0.00330162,0.017795563,0,
00:05.9,0.001934052,0.00330162,0.017784119,0,
00:05.9,0.001928329,0.00330162,0.017812729,0,
00:05.9,0.001934052,0.003307343,0.017801285,0,
00:05.9,0.001922607,0.003295898,0.017801285,0,
00:05.9,0.001911163,0.003290176,0.017812729,0,
00:05.9,0.001939774,0.003295898,0.017824173,0,
00:05.9,0.001951218,0.003307343,0.017801285,0,
00:05.9,0.001939774,0.00330162,0.017801285,0,
00:05.9,0.001928329,0.003278732,0.017824173,0,
00:05.9,0.001934052,0.003295898,0.017795563,0,
00:05.9,0.001922607,0.003295898,0.017818451,0,
00:05.9,0.001911163,0.003295898,0.017824173,0,
00:05.9,0.001916885,0.003295898,0.017801285,0,
00:05.9,0.001922607,0.003295898,0.017795563,0,
00:05.9,0.001916885,0.003295898,0.017818451,0,
00:05.9,0.001939774,0.003295898,0.017829895,0,
00:05.9,0.001916885,0.00330162,0.017818451,0,
00:06.0,0.001905441,0.00330162,0.017829895,0,
00:06.0,0.001939774,0.003295898,0.017829895,0,
00:06.0,0.001945496,0.003290176,0.017807007,0,
00:06.0,0.001928329,0.003295898,0.017818451,0,
00:06.0,0.001922607,0.003295898,0.017829895,0,
00:06.0,0.001939774,0.003313065,0.017829895,0,
00:06.0,0.001934052,0.00330162,0.017829895,0,
00:06.0,0.001928329,0.00330162,0.017818451,0,
00:06.0,0.001934052,0.003295898,0.017812729,0,
00:06.0,0.001928329,0.00330162,0.017835617,0,
00:06.0,0.001916885,0.00330162,0.017847061,0,
00:06.0,0.001888275,0.00330162,0.017824173,0,
00:00:06,0.001922607,0.003284454,0.017818451,0,
00:06.0,0.001922607,0.003284454,0.017835617,0,
00:06.0,0.001939774,0.00330162,0.017829895,0,
00:06.0,0.001945496,0.003307343,0.017847061,0,
00:06.0,0.001934052,0.00330162,0.017841339,0,
00:06.0,0.001928329,0.003295898,0.017852783,0,
00:06.0,0.001922607,0.003295898,0.017852783,0,
00:06.0,0.001893997,0.003295898,0.017829895,0,
00:06.0,0.001893997,0.003278732,0.017841339,0,
00:06.0,0.001922607,0.003295898,0.017841339,0,
00:06.0,0.001962662,0.003307343,0.017829895,0,
00:06.0,0.001951218,0.00330162,0.017835617,0,
00:06.0,0.001916885,0.003295898,0.017841339,0,
00:06.1,0.001922607,0.003295898,0.017847061,0,
00:06.1,0.001928329,0.00330162,0.017835617,0,
00:06.1,0.001928329,0.003290176,0.017829895,0,
00:06.1,0.001939774,0.003295898,0.017869949,0,
00:06.1,0.001934052,0.003295898,0.017841339,0,
00:06.1,0.001922607,0.003290176,0.017818451,0,
00:06.1,0.001939774,0.003278732,0.017858505,0,
00:06.1,0.001928329,0.003295898,0.017875671,0,
00:06.1,0.001911163,0.00330162,0.017852783,0,
00:06.1,0.001922607,0.00330162,0.017841339,0,
00:06.1,0.001951218,0.003290176,0.017864227,0,
00:06.1,0.001934052,0.003284454,0.017864227,0,
00:06.1,0.001928329,0.003295898,0.017852783,0,
00:06.1,0.001922607,0.003295898,0.017852783,0,
00:06.1,0.001928329,0.003295898,0.017847061,0,
00:06.1,0.001951218,0.003295898,0.017864227,0,
00:06.1,0.001951218,0.003290176,0.017875671,0,
00:06.1,0.001928329,0.00327301,0.017847061,0,
00:06.1,0.001905441,0.003284454,0.017881393,0,
00:06.1,0.001911163,0.003290176,0.017869949,0,
00:06.1,0.001934052,0.003290176,0.017864227,0,
00:06.1,0.001939774,0.003278732,0.017875671,0,
00:06.1,0.001922607,0.003284454,0.017869949,0,
00:06.1,0.001934052,0.00330162,0.017875671,0,
00:06.1,0.001939774,0.003295898,0.017858505,0,
00:06.2,0.001928329,0.003278732,0.01789856,0,
00:06.2,0.001911163,0.003284454,0.017887115,0,
00:06.2,0.001922607,0.003284454,0.017881393,0,
00:06.2,0.001922607,0.003284454,0.017881393,0,
00:06.2,0.001928329,0.003295898,0.017881393,0,
00:06.2,0.001928329,0.003290176,0.017875671,0,
00:06.2,0.001922607,0.003284454,0.017887115,0,
00:06.2,0.001916885,0.003278732,0.01789856,0,
00:06.2,0.001934052,0.003290176,0.017881393,0,
00:06.2,0.001945496,0.003290176,0.01789856,0,
00:06.2,0.001922607,0.003284454,0.017904282,0,
00:06.2,0.001934052,0.003290176,0.017881393,0,
00:06.2,0.001928329,0.003290176,0.017881393,0,
00:06.2,0.001911163,0.003295898,0.01792717,0,
00:06.2,0.001916885,0.003278732,0.017910004,0,
00:06.2,0.001916885,0.003278732,0.017915726,0,
00:06.2,0.001934052,0.003284454,0.017904282,0,
00:06.2,0.001928329,0.003284454,0.017904282,0,
00:06.2,0.001939774,0.003290176,0.017910004,0,
00:06.2,0.001945496,0.003295898,0.017921448,0,
00:06.2,0.001928329,0.003278732,0.017915726,0,
00:06.2,0.001922607,0.00327301,0.017915726,0,
00:06.2,0.001916885,0.003284454,0.017910004,0,
00:06.2,0.001934052,0.003295898,0.01792717,0,
00:06.2,0.001945496,0.003295898,0.017932892,0,
00:06.3,0.001899719,0.003284454,0.01792717,0,
00:06.3,0.001916885,0.003290176,0.017921448,0,
00:06.3,0.001922607,0.00327301,0.017932892,0,
00:06.3,0.001939774,0.003278732,0.017932892,0,
00:06.3,0.001939774,0.003284454,0.017950058,0,
00:06.3,0.001916885,0.003290176,0.017944336,0,
00:06.3,0.001928329,0.003290176,0.017938614,0,
00:06.3,0.001934052,0.003278732,0.017938614,0,
00:06.3,0.001928329,0.003284454,0.01795578,0,
00:06.3,0.001916885,0.003284454,0.017938614,0,
00:06.3,0.001911163,0.003278732,0.017938614,0,
00:06.3,0.001911163,0.003267288,0.01795578,0,
00:06.3,0.001922607,0.00327301,0.017967224,0,
00:06.3,0.001899719,0.003278732,0.01795578,0,
00:06.3,0.001922607,0.003278732,0.017950058,0,
00:06.3,0.001939774,0.00327301,0.017950058,0,
00:06.3,0.001934052,0.003295898,0.017978668,0,
00:06.3,0.001928329,0.003290176,0.017961502,0,
00:06.3,0.001928329,0.003278732,0.01795578,0,
00:06.3,0.001922607,0.003278732,0.01798439,0,
00:06.3,0.001916885,0.003284454,0.017961502,0,
00:06.3,0.001899719,0.00327301,0.017972946,0,
00:06.3,0.001899719,0.003278732,0.017972946,0,
00:06.3,0.001905441,0.003284454,0.017978668,0,
00:06.3,0.001916885,0.003284454,0.01798439,0,
00:06.4,0.001928329,0.003284454,0.01798439,0,
00:06.4,0.001939774,0.003278732,0.017978668,0,
00:06.4,0.001911163,0.003261566,0.017990112,0,
00:06.4,0.001905441,0.003267288,0.017967224,0,
00:06.4,0.001911163,0.003290176,0.01795578,0,
00:06.4,0.001905441,0.003278732,0.018007278,0,
00:06.4,0.001911163,0.003267288,0.018007278,0,
00:06.4,0.001934052,0.003267288,0.017995834,0,
00:06.4,0.001916885,0.003284454,0.018007278,0,
00:06.4,0.001911163,0.003290176,0.017990112,0,
00:06.4,0.001916885,0.003278732,0.017995834,0,
00:06.4,0.001922607,0.00327301,0.018013,0,
00:06.4,0.001911163,0.00327301,0.018001556,0,
00:06.4,0.001893997,0.003278732,0.018001556,0,
00:06.4,0.001888275,0.00327301,0.017972946,0,
00:06.4,0.001916885,0.003278732,0.018024445,0,
00:06.4,0.001945496,0.003278732,0.018024445,0,
00:06.4,0.001922607,0.003278732,0.018035889,0,
00:06.4,0.001911163,0.003278732,0.018024445,0,
00:06.4,0.001916885,0.00327301,0.018018723,0,
00:06.4,0.001911163,0.003278732,0.018024445,0,
00:06.4,0.001899719,0.003267288,0.018018723,0,
00:06.4,0.001911163,0.003261566,0.018024445,0,
00:06.4,0.001899719,0.00327301,0.018035889,0,
00:06.4,0.001899719,0.003267288,0.018035889,0,
00:06.5,0.001905441,0.00327301,0.018041611,0,
00:06.5,0.001911163,0.00327301,0.018035889,0,
00:06.5,0.001899719,0.003278732,0.018024445,0,
00:06.5,0.001911163,0.003278732,0.018024445,0,
00:06.5,0.001905441,0.003278732,0.018035889,0,
00:06.5,0.001916885,0.003278732,0.018041611,0,
00:06.5,0.001928329,0.003261566,0.018053055,0,
00:06.5,0.001893997,0.003261566,0.018075943,0,
00:06.5,0.001876831,0.003284454,0.018053055,0,
00:06.5,0.001928329,0.003284454,0.018035889,0,
00:06.5,0.001922607,0.00327301,0.018070221,0,
00:06.5,0.001893997,0.00327301,0.018081665,0,
00:06.5,0.001882553,0.003267288,0.018070221,0,
00:06.5,0.001922607,0.003278732,0.018053055,0,
00:06.5,0.001905441,0.00327301,0.018058777,0,
00:06.5,0.001905441,0.003267288,0.018070221,0,
00:06.5,0.001911163,0.00327301,0.018058777,0,
00:06.5,0.001893997,0.00327301,0.018053055,0,
00:06.5,0.001882553,0.00327301,0.018058777,0,
00:06.5,0.001911163,0.003261566,0.018093109,0,
00:06.5,0.001911163,0.00327301,0.018064499,0,
00:06.5,0.001893997,0.003261566,0.018047333,0,
00:06.5,0.001882553,0.003267288,0.018087387,0,
00:06.5,0.001893997,0.003278732,0.018110275,0,
00:06.5,0.001893997,0.00327301,0.018081665,0,
00:06.6,0.001899719,0.00327301,0.018070221,0,
00:06.6,0.001899719,0.003267288,0.018104553,0,
00:06.6,0.001893997,0.003267288,0.018098831,0,
00:06.6,0.001905441,0.003278732,0.018081665,0,
00:06.6,0.001905441,0.003267288,0.018087387,0,
00:06.6,0.001899719,0.003261566,0.018093109,0,
00:06.6,0.001899719,0.003261566,0.018098831,0,
00:06.6,0.001888275,0.003261566,0.018093109,0,
00:06.6,0.001882553,0.00327301,0.018098831,0,
00:06.6,0.001893997,0.003278732,0.018093109,0,
00:06.6,0.001888275,0.003267288,0.018087387,0,
00:06.6,0.001899719,0.003255844,0.018081665,0,
00:06.6,0.001893997,0.003267288,0.018087387,0,
00:06.6,0.001882553,0.003267288,0.018121719,0,
00:06.6,0.001871109,0.003267288,0.018098831,0,
00:06.6,0.001911163,0.003261566,0.018087387,0,
00:06.6,0.001911163,0.00327301,0.018133163,0,
00:06.6,0.001888275,0.00327301,0.018110275,0,
00:06.6,0.001871109,0.00327301,0.018115997,0,
00:06.6,0.001853943,0.003261566,0.018110275,0,
00:06.6,0.001905441,0.003255844,0.018115997,0,
00:06.6,0.001911163,0.003261566,0.018093109,0,
00:06.6,0.001911163,0.00327301,0.018115997,0,
00:06.6,0.001876831,0.003267288,0.018138885,0,
00:06.6,0.001888275,0.003267288,0.018121719,0,
00:06.7,0.001899719,0.00327301,0.018121719,0,
00:06.7,0.001888275,0.003267288,0.018121719,0,
00:06.7,0.001882553,0.003261566,0.018110275,0,
00:06.7,0.001876831,0.003261566,0.018104553,0,
00:06.7,0.001865387,0.003261566,0.018104553,0,
00:06.7,0.001888275,0.003255844,0.018138885,0,
00:06.7,0.001882553,0.003267288,0.018121719,0,
00:06.7,0.001893997,0.003278732,0.018121719,0,
00:06.7,0.001882553,0.003267288,0.018138885,0,
00:06.7,0.001876831,0.003261566,0.018138885,0,
00:06.7,0.001882553,0.003261566,0.018115997,0,
00:06.7,0.001893997,0.00327301,0.018127441,0,
00:06.7,0.001876831,0.003261566,0.018115997,0,
00:06.7,0.001853943,0.003255844,0.01815033,0,
00:06.7,0.001871109,0.003261566,0.018133163,0,
00:06.7,0.001893997,0.003261566,0.018127441,0,
00:06.7,0.001905441,0.00327301,0.018104553,0,
00:06.7,0.001888275,0.003267288,0.018133163,0,
00:06.7,0.001859665,0.003267288,0.018138885,0,
00:06.7,0.001859665,0.003267288,0.018121719,0,
00:06.7,0.001888275,0.00327301,0.018115997,0,
00:06.7,0.001899719,0.003267288,0.01815033,0,
00:06.7,0.001888275,0.003255844,0.01815033,0,
00:06.7,0.001882553,0.00327301,0.018144608,0,
00:06.7,0.001871109,0.003278732,0.018133163,0,
00:06.8,0.001876831,0.003267288,0.018133163,0,
00:06.8,0.001876831,0.003267288,0.018138885,0,
00:06.8,0.001871109,0.003261566,0.018133163,0,
00:06.8,0.001871109,0.003261566,0.018121719,0,
00:06.8,0.001865387,0.003267288,0.01815033,0,
00:06.8,0.001865387,0.003261566,0.018138885,0,
00:06.8,0.001859665,0.003255844,0.018121719,0,
00:06.8,0.001853943,0.003255844,0.018144608,0,
00:06.8,0.001882553,0.003267288,0.018138885,0,
00:06.8,0.001882553,0.003261566,0.018127441,0,
00:06.8,0.001876831,0.00327301,0.018115997,0,
00:06.8,0.001865387,0.003267288,0.018127441,0,
00:06.8,0.001871109,0.003255844,0.01815033,0,
00:06.8,0.001876831,0.003267288,0.01815033,0,
00:06.8,0.001865387,0.003267288,0.018144608,0,
00:06.8,0.001865387,0.003261566,0.018138885,0,
00:06.8,0.001876831,0.003267288,0.018138885,0,
00:06.8,0.001871109,0.003267288,0.018133163,0,
00:06.8,0.001865387,0.003267288,0.01815033,0,
00:06.8,0.001853943,0.003267288,0.018144608,0,
00:06.8,0.001865387,0.003267288,0.018121719,0,
00:06.8,0.001865387,0.003250122,0.018127441,0,
00:06.8,0.001888275,0.003261566,0.018144608,0,
00:06.8,0.001859665,0.003261566,0.018144608,0,
00:06.8,0.001853943,0.003261566,0.018144608,0,
00:06.9,0.001865387,0.003255844,0.018138885,0,
00:06.9,0.001853943,0.003261566,0.018133163,0,
00:06.9,0.001853943,0.003261566,0.018138885,0,
00:06.9,0.001871109,0.003261566,0.018121719,0,
00:06.9,0.001888275,0.003267288,0.01815033,0,
00:06.9,0.001871109,0.00327301,0.018138885,0,
00:06.9,0.001853943,0.003261566,0.018133163,0,
00:06.9,0.001853943,0.003267288,0.018156052,0,
00:06.9,0.001848221,0.003255844,0.018138885,0,
00:06.9,0.001853943,0.003261566,0.018133163,0,
00:06.9,0.001842499,0.003261566,0.018138885,0,
00:06.9,0.001831055,0.003250122,0.018138885,0,
00:06.9,0.001831055,0.003261566,0.018138885,0,
00:06.9,0.001882553,0.003267288,0.018127441,0,
00:06.9,0.001865387,0.00327301,0.018138885,0,
00:06.9,0.001859665,0.003261566,0.01815033,0,
00:06.9,0.001882553,0.003255844,0.018138885,0,
00:06.9,0.001853943,0.003267288,0.018127441,0,
00:06.9,0.001842499,0.003267288,0.018127441,0,
00:06.9,0.001853943,0.003267288,0.018110275,0,
00:06.9,0.001871109,0.003267288,0.018104553,0,
00:06.9,0.001859665,0.003255844,0.018173218,0,
00:06.9,0.001859665,0.003250122,0.018144608,0,
00:06.9,0.001848221,0.003255844,0.018138885,0,
00:06.9,0.001859665,0.00327301,0.018127441,0,
00:07.0,0.001842499,0.003255844,0.01815033,0,
00:07.0,0.001836777,0.003261566,0.018115997,0,
00:07.0,0.001848221,0.003267288,0.018138885,0,
00:07.0,0.001853943,0.003278732,0.018138885,0,
00:07.0,0.001865387,0.003278732,0.018133163,0,
00:07.0,0.001853943,0.003267288,0.018104553,0,
00:07.0,0.001865387,0.003261566,0.018115997,0,
00:07.0,0.001842499,0.003261566,0.018161774,0,
00:07.0,0.001842499,0.003267288,0.018133163,0,
00:07.0,0.001853943,0.003261566,0.018127441,0,
00:07.0,0.001871109,0.00327301,0.018127441,0,
00:07.0,0.001871109,0.00327301,0.018110275,0,
00:00:07,0.001848221,0.003255844,0.018110275,0,
00:07.0,0.001842499,0.003267288,0.018133163,0,
00:07.0,0.001836777,0.003267288,0.018133163,0,
00:07.0,0.001831055,0.003267288,0.018127441,0,
00:07.0,0.001848221,0.003261566,0.018127441,0,
00:07.0,0.001859665,0.003267288,0.018104553,0,
00:07.0,0.001853943,0.003278732,0.018115997,0,
00:07.0,0.001848221,0.003261566,0.018121719,0,
00:07.0,0.001859665,0.003267288,0.018104553,0,
00:07.0,0.001859665,0.00327301,0.018121719,0,
00:07.0,0.001859665,0.003267288,0.018115997,0,
00:07.0,0.001831055,0.00327301,0.018093109,0,
00:07.0,0.001842499,0.00327301,0.018081665,0,
00:07.1,0.001865387,0.003267288,0.018121719,0,
00:07.1,0.001831055,0.003267288,0.018121719,0,
00:07.1,0.001842499,0.003255844,0.018098831,0,
00:07.1,0.001859665,0.003267288,0.018087387,0,
00:07.1,0.001836777,0.00327301,0.018115997,0,
00:07.1,0.001831055,0.003267288,0.018110275,0,
00:07.1,0.001848221,0.003278732,0.018098831,0,
00:07.1,0.001859665,0.00327301,0.018093109,0,
00:07.1,0.001848221,0.00327301,0.018104553,0,
00:07.1,0.001848221,0.003278732,0.018081665,0,
00:07.1,0.001853943,0.00327301,0.018058777,0,
00:07.1,0.001848221,0.003261566,0.018075943,0,
00:07.1,0.001842499,0.00327301,0.018115997,0,
00:07.1,0.001848221,0.00327301,0.018081665,0,
00:07.1,0.001831055,0.00327301,0.018093109,0,
00:07.1,0.001853943,0.00327301,0.018064499,0,
00:07.1,0.001848221,0.003267288,0.018093109,0,
00:07.1,0.001819611,0.003261566,0.018104553,0,
00:07.1,0.001836777,0.003278732,0.018081665,0,
00:07.1,0.001836777,0.00327301,0.018070221,0,
00:07.1,0.001831055,0.003267288,0.018081665,0,
00:07.1,0.001853943,0.003267288,0.018081665,0,
00:07.1,0.001842499,0.00327301,0.018070221,0,
00:07.1,0.001819611,0.003278732,0.018064499,0,
00:07.1,0.001859665,0.00327301,0.018053055,0,
00:07.2,0.001865387,0.00327301,0.018070221,0,
00:07.2,0.001836777,0.003267288,0.018041611,0,
00:07.2,0.001825333,0.003267288,0.018081665,0,
00:07.2,0.001842499,0.003278732,0.018081665,0,
00:07.2,0.001848221,0.00327301,0.018070221,0,
00:07.2,0.001836777,0.00327301,0.018064499,0,
00:07.2,0.001819611,0.003278732,0.018064499,0,
00:07.2,0.001871109,0.00327301,0.018053055,0,
00:07.2,0.001853943,0.003261566,0.018081665,0,
00:07.2,0.001808167,0.00327301,0.018064499,0,
00:07.2,0.001836777,0.00327301,0.018070221,0,
00:07.2,0.001859665,0.003278732,0.018041611,0,
00:07.2,0.001853943,0.00327301,0.018058777,0,
00:07.2,0.001848221,0.003278732,0.018081665,0,
00:07.2,0.001825333,0.003284454,0.018058777,0,
00:07.2,0.001831055,0.003261566,0.018047333,0,
00:07.2,0.001853943,0.00327301,0.018070221,0,
00:07.2,0.001819611,0.003278732,0.018041611,0,
00:07.2,0.001802444,0.003267288,0.018058777,0,
00:07.2,0.001848221,0.003278732,0.018058777,0,
00:07.2,0.001836777,0.003278732,0.018047333,0,
00:07.2,0.001848221,0.00327301,0.018047333,0,
00:07.2,0.001853943,0.003278732,0.018053055,0,
00:07.2,0.001813889,0.003267288,0.018058777,0,
00:07.2,0.001808167,0.003284454,0.018041611,0,
00:07.3,0.001836777,0.003267288,0.018018723,0,
00:07.3,0.001853943,0.00327301,0.018024445,0,
00:07.3,0.001836777,0.003290176,0.018064499,0,
00:07.3,0.001836777,0.00327301,0.018081665,0,
00:07.3,0.001853943,0.003284454,0.018058777,0,
00:07.3,0.001831055,0.003278732,0.018035889,0,
00:07.3,0.001831055,0.003278732,0.018035889,0,
00:07.3,0.001848221,0.003290176,0.018013,0,
00:07.3,0.001813889,0.003284454,0.018018723,0,
00:07.3,0.001785278,0.003261566,0.018035889,0,
00:07.3,0.001842499,0.003261566,0.018075943,0,
00:07.3,0.001853943,0.00327301,0.018053055,0,
00:07.3,0.001819611,0.003267288,0.018018723,0,
00:07.3,0.001819611,0.003284454,0.018030167,0,
00:07.3,0.001848221,0.003278732,0.018030167,0,
00:07.3,0.001831055,0.00327301,0.018024445,0,
00:07.3,0.001825333,0.003290176,0.018018723,0,
00:07.3,0.001819611,0.003290176,0.018018723,0,
00:07.3,0.001848221,0.003284454,0.018013,0,
00:07.3,0.001848221,0.003278732,0.018013,0,
00:07.3,0.001831055,0.003290176,0.018035889,0,
00:07.3,0.001831055,0.003278732,0.018007278,0,
00:07.3,0.001825333,0.003267288,0.018041611,0,
00:07.3,0.001825333,0.003290176,0.018013,0,
00:07.3,0.001825333,0.003290176,0.018024445,0,
00:07.4,0.001808167,0.003278732,0.018030167,0,
00:07.4,0.001825333,0.00327301,0.018024445,0,
00:07.4,0.001836777,0.00327301,0.018024445,0,
00:07.4,0.001819611,0.003278732,0.018007278,0,
00:07.4,0.001796722,0.003278732,0.017995834,0,
00:07.4,0.001848221,0.003267288,0.018024445,0,
00:07.4,0.001859665,0.003284454,0.018013,0,
00:07.4,0.001853943,0.003295898,0.018001556,0,
00:07.4,0.001813889,0.003284454,0.018001556,0,
00:07.4,0.001796722,0.003267288,0.018024445,0,
00:07.4,0.001842499,0.003278732,0.017995834,0,
00:07.4,0.001853943,0.003290176,0.017995834,0,
00:07.4,0.001831055,0.003284454,0.018007278,0,
00:07.4,0.001825333,0.00330162,0.018001556,0,
00:07.4,0.001831055,0.003278732,0.018007278,0,
00:07.4,0.001831055,0.00327301,0.017990112,0,
00:07.4,0.001808167,0.00327301,0.018001556,0,
00:07.4,0.001819611,0.003295898,0.017990112,0,
00:07.4,0.001865387,0.003290176,0.01798439,0,
00:07.4,0.001831055,0.003278732,0.018013,0,
00:07.4,0.001825333,0.00327301,0.018013,0,
00:07.4,0.001831055,0.003278732,0.018007278,0,
00:07.4,0.001836777,0.003278732,0.018001556,0,
00:07.4,0.001791,0.003278732,0.017995834,0,
00:07.4,0.001802444,0.003278732,0.017978668,0,
00:07.5,0.001859665,0.00327301,0.017990112,0,
00:07.5,0.001859665,0.003290176,0.017995834,0,
00:07.5,0.001825333,0.003278732,0.017995834,0,
00:07.5,0.001819611,0.003284454,0.017995834,0,
00:07.5,0.001831055,0.003278732,0.01798439,0,
00:07.5,0.001813889,0.003261566,0.017978668,0,
00:07.5,0.001825333,0.00327301,0.017978668,0,
00:07.5,0.001831055,0.003295898,0.017978668,0,
00:07.5,0.001825333,0.003284454,0.01795578,0,
00:07.5,0.001831055,0.003267288,0.017990112,0,
00:07.5,0.001825333,0.003290176,0.017990112,0,
00:07.5,0.001825333,0.003290176,0.017972946,0,
00:07.5,0.001813889,0.003290176,0.017967224,0,
00:07.5,0.001813889,0.00327301,0.01795578,0,
00:07.5,0.001813889,0.003278732,0.01798439,0,
00:07.5,0.001836777,0.003278732,0.018001556,0,
00:07.5,0.001842499,0.003278732,0.017972946,0,
00:07.5,0.001819611,0.003278732,0.017978668,0,
00:07.5,0.001808167,0.003278732,0.017972946,0,
00:07.5,0.001836777,0.003284454,0.017967224,0,
00:07.5,0.001825333,0.003278732,0.017961502,0,
00:07.5,0.001825333,0.003290176,0.017938614,0,
00:07.5,0.001848221,0.003290176,0.017978668,0,
00:07.5,0.001842499,0.003290176,0.017967224,0,
00:07.5,0.001831055,0.003284454,0.01795578,0,
00:07.6,0.001831055,0.003278732,0.017978668,0,
00:07.6,0.001831055,0.003284454,0.017972946,0,
00:07.6,0.001836777,0.003284454,0.01795578,0,
00:07.6,0.001836777,0.003295898,0.017950058,0,
00:07.6,0.001813889,0.003284454,0.01795578,0,
00:07.6,0.001813889,0.00327301,0.017972946,0,
00:07.6,0.001836777,0.003284454,0.017938614,0,
00:07.6,0.001813889,0.003278732,0.017961502,0,
00:07.6,0.001819611,0.003278732,0.017967224,0,
00:07.6,0.001831055,0.003284454,0.017961502,0,
00:07.6,0.001831055,0.003284454,0.017972946,0,
00:07.6,0.001808167,0.003284454,0.017967224,0,
00:07.6,0.001796722,0.003278732,0.017950058,0,
00:07.6,0.001802444,0.003284454,0.017944336,0,
00:07.6,0.001831055,0.003284454,0.017961502,0,
00:07.6,0.001836777,0.003284454,0.01795578,0,
00:07.6,0.001802444,0.003284454,0.017967224,0,
00:07.6,0.001836777,0.003295898,0.017938614,0,
00:07.6,0.001836777,0.003295898,0.01792717,0,
00:07.6,0.001836777,0.003278732,0.017961502,0,
00:07.6,0.001831055,0.003290176,0.017944336,0,
00:07.6,0.001808167,0.00327301,0.01792717,0,
00:07.6,0.001813889,0.003278732,0.017967224,0,
00:07.6,0.001819611,0.003295898,0.01795578,0,
00:07.6,0.001813889,0.003290176,0.017944336,0,
00:07.7,0.001808167,0.00327301,0.017950058,0,
00:07.7,0.001836777,0.003290176,0.017961502,0,
00:07.7,0.001825333,0.003290176,0.017938614,0,
00:07.7,0.001802444,0.003278732,0.017938614,0,
00:07.7,0.001819611,0.003278732,0.01795578,0,
00:07.7,0.001836777,0.003290176,0.017950058,0,
00:07.7,0.001819611,0.003284454,0.017944336,0,
00:07.7,0.001831055,0.003295898,0.017938614,0,
00:07.7,0.001825333,0.003290176,0.017938614,0,
00:07.7,0.001808167,0.003278732,0.017950058,0,
00:07.7,0.001808167,0.003278732,0.017950058,0,
00:07.7,0.001808167,0.003267288,0.01795578,0,
00:07.7,0.001836777,0.003290176,0.017932892,0,
00:07.7,0.001819611,0.00330162,0.017938614,0,
00:07.7,0.001773834,0.003284454,0.017944336,0,
00:07.7,0.001813889,0.003284454,0.017938614,0,
00:07.7,0.001825333,0.003284454,0.017961502,0,
00:07.7,0.001813889,0.003290176,0.017950058,0,
00:07.7,0.001808167,0.003290176,0.01795578,0,
00:07.7,0.001819611,0.003284454,0.017944336,0,
00:07.7,0.001819611,0.003278732,0.017950058,0,
00:07.7,0.001825333,0.003290176,0.017944336,0,
00:07.7,0.001808167,0.003290176,0.017932892,0,
00:07.7,0.001819611,0.003284454,0.017950058,0,
00:07.7,0.001831055,0.003284454,0.017961502,0,
00:07.8,0.001825333,0.003290176,0.017950058,0,
00:07.8,0.001813889,0.003284454,0.017938614,0,
00:07.8,0.001802444,0.003284454,0.017944336,0,
00:07.8,0.001796722,0.003278732,0.017938614,0,
00:07.8,0.001831055,0.003278732,0.017944336,0,
00:07.8,0.001825333,0.003278732,0.017932892,0,
00:07.8,0.001808167,0.003284454,0.01795578,0,
00:07.8,0.001796722,0.003295898,0.01795578,0,
00:07.8,0.001825333,0.003295898,0.017921448,0,
00:07.8,0.001825333,0.003278732,0.01792717,0,
00:07.8,0.001813889,0.003278732,0.017967224,0,
00:07.8,0.001825333,0.003278732,0.017950058,0,
00:07.8,0.001825333,0.003290176,0.017938614,0,
00:07.8,0.001819611,0.003290176,0.017938614,0,
00:07.8,0.001813889,0.003290176,0.017944336,0,
00:07.8,0.001813889,0.003284454,0.017938614,0,
00:07.8,0.001808167,0.003284454,0.01792717,0,
00:07.8,0.001802444,0.003290176,0.017921448,0,
00:07.8,0.001802444,0.003284454,0.017915726,0,
00:07.8,0.001819611,0.003290176,0.017944336,0,
00:07.8,0.001808167,0.003290176,0.017944336,0,
00:07.8,0.001813889,0.003290176,0.017932892,0,
00:07.8,0.001825333,0.003278732,0.017932892,0,
00:07.8,0.001808167,0.003278732,0.01792717,0,
00:07.8,0.001819611,0.003290176,0.017921448,0,
00:07.9,0.001819611,0.003290176,0.017932892,0,
00:07.9,0.001825333,0.003295898,0.017938614,0,
00:07.9,0.001836777,0.00330162,0.017938614,0,
00:07.9,0.001808167,0.003284454,0.01792717,0,
00:07.9,0.001791,0.003278732,0.017932892,0,
00:07.9,0.001808167,0.003284454,0.017944336,0,
00:07.9,0.001808167,0.003284454,0.01792717,0,
00:07.9,0.001825333,0.003295898,0.01789856,0,
00:07.9,0.001825333,0.003290176,0.017904282,0,
00:07.9,0.001813889,0.003295898,0.017938614,0,
00:07.9,0.001808167,0.003290176,0.017932892,0,
00:07.9,0.001791,0.003284454,0.01792717,0,
00:07.9,0.001773834,0.003278732,0.017921448,0,
00:07.9,0.001825333,0.003284454,0.017904282,0,
00:07.9,0.001819611,0.003295898,0.017892838,0,
00:07.9,0.001836777,0.003290176,0.017921448,0,
00:07.9,0.001825333,0.003295898,0.017910004,0,
00:07.9,0.001802444,0.003290176,0.017915726,0,
00:07.9,0.001813889,0.003284454,0.017910004,0,
00:07.9,0.001842499,0.003295898,0.017910004,0,
00:07.9,0.001831055,0.003295898,0.01789856,0,
00:07.9,0.001796722,0.003284454,0.017921448,0,
00:07.9,0.001808167,0.003290176,0.017915726,0,
00:07.9,0.001813889,0.003295898,0.017915726,0,
00:07.9,0.001796722,0.003284454,0.017892838,0,
00:08.0,0.001808167,0.003290176,0.017887115,0,
00:08.0,0.001802444,0.003290176,0.017887115,0,
00:08.0,0.001791,0.003278732,0.017921448,0,
00:08.0,0.001802444,0.003295898,0.017910004,0,
00:08.0,0.001859665,0.003307343,0.01789856,0,
00:08.0,0.001825333,0.003284454,0.017904282,0,
00:08.0,0.001813889,0.003295898,0.017892838,0,
00:08.0,0.001808167,0.003295898,0.017892838,0,
00:08.0,0.001813889,0.003295898,0.017910004,0,
00:08.0,0.001802444,0.003290176,0.01789856,0,
00:08.0,0.001796722,0.003290176,0.017881393,0,
00:08.0,0.001813889,0.003290176,0.017892838,0,
00:00:08,0.001813889,0.003284454,0.017904282,0,
00:08.0,0.001796722,0.003284454,0.017904282,0,
00:08.0,0.001808167,0.003284454,0.017881393,0,
00:08.0,0.001836777,0.00330162,0.017858505,0,
00:08.0,0.001819611,0.003295898,0.01789856,0,
00:08.0,0.001791,0.003284454,0.017910004,0,
00:08.0,0.001819611,0.00330162,0.017892838,0,
00:08.0,0.001813889,0.003284454,0.017887115,0,
00:08.0,0.001791,0.003290176,0.017892838,0,
00:08.0,0.001819611,0.003295898,0.01789856,0,
00:08.0,0.001836777,0.003307343,0.017869949,0,
00:08.0,0.001831055,0.003295898,0.017858505,0,
00:08.0,0.001808167,0.003284454,0.017904282,0,
00:08.1,0.001802444,0.003284454,0.017904282,0,
00:08.1,0.001813889,0.003290176,0.017892838,0,
00:08.1,0.001819611,0.003307343,0.017881393,0,
00:08.1,0.001802444,0.00330162,0.017869949,0,
00:08.1,0.001785278,0.003284454,0.017887115,0,
00:08.1,0.001808167,0.003284454,0.017881393,0,
00:08.1,0.001813889,0.003284454,0.017869949,0,
00:08.1,0.001802444,0.00330162,0.017858505,0,
00:08.1,0.001813889,0.003295898,0.017881393,0,
00:08.1,0.001808167,0.003278732,0.017875671,0,
00:08.1,0.001819611,0.00330162,0.017875671,0,
00:08.1,0.001813889,0.003307343,0.017881393,0,
00:08.1,0.001831055,0.003295898,0.017869949,0,
00:08.1,0.001802444,0.003295898,0.017864227,0,
00:08.1,0.001808167,0.003290176,0.017875671,0,
00:08.1,0.001819611,0.003295898,0.017881393,0,
00:08.1,0.001808167,0.003295898,0.017875671,0,
00:08.1,0.001791,0.003290176,0.017858505,0,
00:08.1,0.001802444,0.003290176,0.017864227,0,
00:08.1,0.001825333,0.003290176,0.017869949,0,
00:08.1,0.001825333,0.003295898,0.017875671,0,
00:08.1,0.001831055,0.00330162,0.017869949,0,
00:08.1,0.001819611,0.003295898,0.017852783,0,
00:08.1,0.001802444,0.003284454,0.017852783,0,
00:08.1,0.001796722,0.003284454,0.017864227,0,
00:08.2,0.001796722,0.003295898,0.017864227,0,
00:08.2,0.001808167,0.00330162,0.017829895,0,
00:08.2,0.001836777,0.003295898,0.017841339,0,
00:08.2,0.001808167,0.003290176,0.017887115,0,
00:08.2,0.001791,0.003295898,0.017869949,0,
00:08.2,0.001825333,0.00330162,0.017847061,0,
00:08.2,0.001825333,0.003295898,0.017847061,0,
00:08.2,0.001813889,0.003295898,0.017858505,0,
00:08.2,0.001813889,0.003295898,0.017847061,0,
00:08.2,0.001813889,0.00330162,0.017841339,0,
00:08.2,0.001813889,0.003295898,0.017841339,0,
00:08.2,0.001819611,0.003284454,0.017858505,0,
00:08.2,0.001819611,0.00330162,0.017824173,0,
00:08.2,0.001831055,0.003307343,0.017824173,0,
00:08.2,0.001802444,0.003295898,0.017864227,0,
00:08.2,0.001785278,0.003295898,0.017841339,0,
00:08.2,0.001785278,0.003295898,0.017818451,0,
00:08.2,0.001819611,0.00330162,0.017841339,0,
00:08.2,0.001848221,0.003295898,0.017835617,0,
00:08.2,0.001825333,0.003295898,0.017841339,0,
00:08.2,0.001813889,0.003295898,0.017852783,0,
00:08.2,0.001813889,0.003295898,0.017829895,0,
00:08.2,0.001796722,0.00330162,0.017847061,0,
00:08.2,0.001813889,0.00330162,0.017835617,0,
00:08.2,0.001813889,0.00330162,0.017835617,0,
00:08.3,0.001825333,0.003307343,0.017829895,0,
00:08.3,0.001808167,0.003295898,0.017824173,0,
00:08.3,0.001796722,0.003295898,0.017807007,0,
00:08.3,0.001813889,0.00330162,0.017841339,0,
00:08.3,0.001813889,0.00330162,0.017841339,0,
00:08.3,0.001813889,0.003295898,0.017818451,0,
00:08.3,0.001819611,0.00330162,0.017818451,0,
00:08.3,0.001808167,0.003307343,0.017818451,0,
00:08.3,0.001802444,0.00330162,0.017795563,0,
00:08.3,0.001808167,0.003290176,0.017824173,0,
00:08.3,0.001808167,0.003295898,0.017847061,0,
00:08.3,0.001791,0.003295898,0.017812729,0,
00:08.3,0.001825333,0.003295898,0.017801285,0,
00:08.3,0.001842499,0.003307343,0.017824173,0,
00:08.3,0.001825333,0.00330162,0.017812729,0,
00:08.3,0.001813889,0.003295898,0.017795563,0,
00:08.3,0.001813889,0.00330162,0.017812729,0,
00:08.3,0.001808167,0.003313065,0.017801285,0,
00:08.3,0.001813889,0.003307343,0.017784119,0,
00:08.3,0.001808167,0.00330162,0.017818451,0,
00:08.3,0.001808167,0.003295898,0.017818451,0,
00:08.3,0.001808167,0.00330162,0.017801285,0,
00:08.3,0.001802444,0.00330162,0.017789841,0,
00:08.3,0.001808167,0.00330162,0.017801285,0,
00:08.3,0.001808167,0.003295898,0.017807007,0,
00:08.4,0.001808167,0.003295898,0.017795563,0,
00:08.4,0.001802444,0.00330162,0.017766953,0,
00:08.4,0.001802444,0.00330162,0.017812729,0,
00:08.4,0.001791,0.003295898,0.017818451,0,
00:08.4,0.001825333,0.00330162,0.017784119,0,
00:08.4,0.001813889,0.003313065,0.01776123,0,
00:08.4,0.001819611,0.00330162,0.017812729,0,
00:08.4,0.001796722,0.003295898,0.017818451,0,
00:08.4,0.001796722,0.003313065,0.017801285,0,
00:08.4,0.001808167,0.00330162,0.017784119,0,
00:08.4,0.001825333,0.003295898,0.017789841,0,
00:08.4,0.001796722,0.003295898,0.017795563,0,
00:08.4,0.001796722,0.00330162,0.017778397,0,
00:08.4,0.001813889,0.00330162,0.017784119,0,
00:08.4,0.001796722,0.00330162,0.017789841,0,
00:08.4,0.001802444,0.003307343,0.017778397,0,
00:08.4,0.001819611,0.003307343,0.017772675,0,
00:08.4,0.001785278,0.003295898,0.017772675,0,
00:08.4,0.001831055,0.003307343,0.017778397,0,
00:08.4,0.001825333,0.003307343,0.01776123,0,
00:08.4,0.001808167,0.00330162,0.017772675,0,
00:08.4,0.001802444,0.00330162,0.017772675,0,
00:08.4,0.001802444,0.003295898,0.017807007,0,
00:08.4,0.001802444,0.00330162,0.017784119,0,
00:08.4,0.001808167,0.003307343,0.017778397,0,
00:08.5,0.001825333,0.003307343,0.017772675,0,
00:08.5,0.001802444,0.00330162,0.017778397,0,
00:08.5,0.001796722,0.003307343,0.017766953,0,
00:08.5,0.001796722,0.00330162,0.01776123,0,
00:08.5,0.001802444,0.00330162,0.01776123,0,
00:08.5,0.001808167,0.003307343,0.017749786,0,
00:08.5,0.001796722,0.003307343,0.017766953,0,
00:08.5,0.001802444,0.00330162,0.017749786,0,
00:08.5,0.001802444,0.00330162,0.017755508,0,
00:08.5,0.001791,0.003307343,0.01776123,0,
00:08.5,0.001802444,0.00330162,0.01776123,0,
00:08.5,0.001796722,0.00330162,0.017755508,0,
00:08.5,0.001825333,0.003307343,0.017738342,0,
00:08.5,0.001813889,0.00330162,0.01773262,0,
00:08.5,0.001802444,0.003313065,0.017755508,0,
00:08.5,0.001836777,0.003330231,0.01773262,0,
00:08.5,0.001802444,0.00330162,0.017772675,0,
00:08.5,0.001796722,0.003307343,0.017749786,0,
00:08.5,0.001808167,0.00330162,0.01776123,0,
00:08.5,0.001796722,0.00330162,0.017755508,0,
00:08.5,0.001785278,0.00330162,0.017744064,0,
00:08.5,0.001808167,0.003307343,0.017738342,0,
00:08.5,0.001825333,0.003307343,0.017744064,0,
00:08.5,0.001796722,0.003307343,0.017749786,0,
00:08.5,0.001779556,0.00330162,0.017744064,0,
00:08.6,0.001802444,0.00330162,0.017726898,0,
00:08.6,0.001813889,0.00330162,0.017738342,0,
00:08.6,0.001796722,0.003313065,0.017744064,0,
00:08.6,0.001813889,0.003307343,0.017726898,0,
00:08.6,0.001825333,0.003307343,0.017744064,0,
00:08.6,0.001813889,0.003313065,0.017721176,0,
00:08.6,0.001802444,0.003318787,0.017698288,0,
00:08.6,0.001779556,0.003295898,0.017744064,0,
00:08.6,0.001802444,0.003295898,0.017738342,0,
00:08.6,0.001819611,0.003307343,0.017738342,0,
00:08.6,0.001813889,0.003307343,0.017721176,0,
00:08.6,0.001791,0.003307343,0.017715454,0,
00:08.6,0.001813889,0.00330162,0.017721176,0,
00:08.6,0.001819611,0.003307343,0.017715454,0,
00:08.6,0.001796722,0.003307343,0.01770401,0,
00:08.6,0.001808167,0.003307343,0.017726898,0,
00:08.6,0.001808167,0.00330162,0.017721176,0,
00:08.6,0.001813889,0.003313065,0.017698288,0,
00:08.6,0.001802444,0.003307343,0.017698288,0,
00:08.6,0.001802444,0.00330162,0.017692566,0,
00:08.6,0.001802444,0.003307343,0.0176754,0,
00:08.6,0.001808167,0.003313065,0.017692566,0,
00:08.6,0.001808167,0.003313065,0.017726898,0,
00:08.6,0.001802444,0.003307343,0.017721176,0,
00:08.6,0.001825333,0.003307343,0.01770401,0,
00:08.7,0.001802444,0.003307343,0.017692566,0,
00:08.7,0.001791,0.003313065,0.017686844,0,
00:08.7,0.001791,0.003307343,0.017698288,0,
00:08.7,0.001796722,0.003307343,0.0176754,0,
00:08.7,0.001831055,0.003313065,0.017692566,0,
00:08.7,0.001813889,0.003307343,0.017692566,0,
00:08.7,0.001808167,0.003307343,0.017681122,0,
00:08.7,0.001796722,0.003307343,0.017692566,0,
00:08.7,0.001785278,0.003307343,0.017698288,0,
00:08.7,0.001808167,0.003307343,0.017692566,0,
00:08.7,0.001813889,0.003313065,0.017669678,0,
00:08.7,0.001813889,0.003313065,0.017686844,0,
00:08.7,0.001802444,0.003313065,0.017692566,0,
00:08.7,0.001773834,0.003295898,0.017686844,0,
00:08.7,0.001808167,0.003307343,0.017686844,0,
00:08.7,0.001813889,0.003313065,0.0176754,0,
00:08.7,0.001813889,0.003307343,0.017686844,0,
00:08.7,0.001791,0.003307343,0.017686844,0,
00:08.7,0.001808167,0.00330162,0.017658234,0,
00:08.7,0.001819611,0.003324509,0.017641068,0,
00:08.7,0.001813889,0.003313065,0.017698288,0,
00:08.7,0.001808167,0.003307343,0.017686844,0,
00:08.7,0.001802444,0.003307343,0.0176754,0,
00:08.7,0.001802444,0.003307343,0.017663956,0,
00:08.7,0.001796722,0.00330162,0.017686844,0,
00:08.8,0.001808167,0.003307343,0.017681122,0,
00:08.8,0.001825333,0.003318787,0.0176754,0,
00:08.8,0.001808167,0.003318787,0.017669678,0,
00:08.8,0.001802444,0.003313065,0.017663956,0,
00:08.8,0.001796722,0.003307343,0.017652512,0,
00:08.8,0.001802444,0.00330162,0.0176754,0,
00:08.8,0.001791,0.003307343,0.017663956,0,
00:08.8,0.001796722,0.003313065,0.017663956,0,
00:08.8,0.001819611,0.003307343,0.0176754,0,
00:08.8,0.001808167,0.003307343,0.0176754,0,
00:08.8,0.001796722,0.00330162,0.017663956,0,
00:08.8,0.001791,0.003313065,0.017663956,0,
00:08.8,0.001802444,0.003313065,0.017669678,0,
00:08.8,0.001808167,0.003307343,0.01764679,0,
00:08.8,0.001802444,0.003307343,0.017635345,0,
00:08.8,0.001808167,0.003307343,0.017686844,0,
00:08.8,0.001796722,0.003307343,0.017669678,0,
00:08.8,0.001779556,0.003307343,0.017652512,0,
00:08.8,0.001785278,0.003295898,0.017658234,0,
00:08.8,0.001791,0.00330162,0.017669678,0,
00:08.8,0.001808167,0.003313065,0.017658234,0,
00:08.8,0.001796722,0.003313065,0.01764679,0,
00:08.8,0.001831055,0.003318787,0.017652512,0,
00:08.8,0.001831055,0.003318787,0.017652512,0,
00:08.8,0.001808167,0.003307343,0.017641068,0,
00:08.9,0.001796722,0.003295898,0.01764679,0,
00:08.9,0.001785278,0.00330162,0.017635345,0,
00:08.9,0.001791,0.003313065,0.017635345,0,
00:08.9,0.001802444,0.003307343,0.01764679,0,
00:08.9,0.001819611,0.003307343,0.017635345,0,
00:08.9,0.001808167,0.00330162,0.017629623,0,
00:08.9,0.001819611,0.003307343,0.017618179,0,
00:08.9,0.001819611,0.003313065,0.017635345,0,
00:08.9,0.001796722,0.003290176,0.017629623,0,
00:08.9,0.001802444,0.003313065,0.017623901,0,
00:08.9,0.001802444,0.003313065,0.017635345,0,
00:08.9,0.001813889,0.003307343,0.017623901,0,
00:08.9,0.001825333,0.00330162,0.017623901,0,
00:08.9,0.001802444,0.00330162,0.017623901,0,
00:08.9,0.001808167,0.003307343,0.017629623,0,
00:08.9,0.001808167,0.00330162,0.017629623,0,
00:08.9,0.001808167,0.003313065,0.017629623,0,
00:08.9,0.001802444,0.00330162,0.017618179,0,
00:08.9,0.001785278,0.00330162,0.017612457,0,
00:08.9,0.001791,0.003295898,0.017612457,0,
00:08.9,0.001802444,0.00330162,0.017612457,0,
00:08.9,0.001831055,0.00330162,0.017623901,0,
00:08.9,0.001813889,0.003307343,0.017601013,0,
00:08.9,0.001819611,0.003313065,0.017595291,0,
00:08.9,0.001813889,0.003313065,0.017601013,0,
00:09.0,0.001802444,0.003307343,0.017618179,0,
00:09.0,0.001808167,0.003307343,0.017595291,0,
00:09.0,0.001802444,0.00330162,0.017601013,0,
00:09.0,0.001785278,0.003307343,0.017618179,0,
00:09.0,0.001819611,0.00330162,0.017606735,0,
00:09.0,0.001808167,0.003313065,0.017601013,0,
00:09.0,0.001808167,0.003307343,0.017601013,0,
00:09.0,0.001819611,0.003313065,0.017606735,0,
00:09.0,0.001802444,0.00330162,0.017606735,0,
00:09.0,0.001796722,0.003295898,0.017601013,0,
00:09.0,0.001802444,0.003290176,0.017589569,0,
00:09.0,0.001808167,0.00330162,0.017606735,0,
00:00:09,0.001808167,0.003307343,0.017601013,0,
00:09.0,0.001813889,0.003313065,0.017595291,0,
00:09.0,0.001802444,0.00330162,0.017589569,0,
00:09.0,0.001796722,0.003295898,0.017578125,0,
00:09.0,0.001791,0.003307343,0.017595291,0,
00:09.0,0.001813889,0.003307343,0.017595291,0,
00:09.0,0.001819611,0.00330162,0.017595291,0,
00:09.0,0.001808167,0.003307343,0.017583847,0,
00:09.0,0.001808167,0.003295898,0.017583847,0,
00:09.0,0.001802444,0.00330162,0.017578125,0,
00:09.0,0.001802444,0.003307343,0.017572403,0,
00:09.0,0.001785278,0.00330162,0.017601013,0,
00:09.0,0.001796722,0.003307343,0.017572403,0,
00:09.1,0.001819611,0.00330162,0.017543793,0,
00:09.1,0.001802444,0.003290176,0.017612457,0,
00:09.1,0.001796722,0.003290176,0.017601013,0,
00:09.1,0.001796722,0.00330162,0.017589569,0,
00:09.1,0.001796722,0.003295898,0.017578125,0,
00:09.1,0.001813889,0.003295898,0.017589569,0,
00:09.1,0.001825333,0.00330162,0.017578125,0,
00:09.1,0.001813889,0.003307343,0.017578125,0,
00:09.1,0.001808167,0.003307343,0.017583847,0,
00:09.1,0.001819611,0.003295898,0.017572403,0,
00:09.1,0.001819611,0.00330162,0.017555237,0,
00:09.1,0.001819611,0.00330162,0.017549515,0,
00:09.1,0.001808167,0.003295898,0.017589569,0,
00:09.1,0.001802444,0.003278732,0.017566681,0,
00:09.1,0.001802444,0.003295898,0.017560959,0,
00:09.1,0.001808167,0.003307343,0.017572403,0,
00:09.1,0.001785278,0.00330162,0.017560959,0,
00:09.1,0.001791,0.003295898,0.017549515,0,
00:09.1,0.001785278,0.003290176,0.017566681,0,
00:09.1,0.001813889,0.003295898,0.017560959,0,
00:09.1,0.001842499,0.00330162,0.017555237,0,
00:09.1,0.001813889,0.003295898,0.017572403,0,
00:09.1,0.001796722,0.00330162,0.017560959,0,
00:09.1,0.001819611,0.003295898,0.017555237,0,
00:09.1,0.001819611,0.003290176,0.017560959,0,
00:09.2,0.001802444,0.003295898,0.017549515,0,
00:09.2,0.001791,0.003295898,0.017538071,0,
00:09.2,0.001796722,0.003290176,0.017526627,0,
00:09.2,0.001796722,0.00327301,0.017560959,0,
00:09.2,0.001802444,0.003290176,0.017549515,0,
00:09.2,0.001802444,0.00330162,0.017555237,0,
00:09.2,0.001819611,0.00330162,0.017543793,0,
00:09.2,0.001802444,0.003295898,0.017555237,0,
00:09.2,0.001802444,0.003290176,0.017549515,0,
00:09.2,0.001802444,0.003295898,0.017549515,0,
00:09.2,0.001813889,0.003295898,0.017538071,0,
00:09.2,0.001808167,0.00330162,0.017538071,0,
00:09.2,0.001791,0.00330162,0.017532349,0,
00:09.2,0.001808167,0.003290176,0.017532349,0,
00:09.2,0.001813889,0.003295898,0.017549515,0,
00:09.2,0.001819611,0.003290176,0.017532349,0,
00:09.2,0.001825333,0.003290176,0.017543793,0,
00:09.2,0.001813889,0.00330162,0.017549515,0,
00:09.2,0.001819611,0.00330162,0.017532349,0,
00:09.2,0.001802444,0.003295898,0.017526627,0,
00:09.2,0.001808167,0.003295898,0.017543793,0,
00:09.2,0.001819611,0.00330162,0.017526627,0,
00:09.2,0.001808167,0.003290176,0.017526627,0,
00:09.2,0.001791,0.003295898,0.017520905,0,
00:09.2,0.001813889,0.003295898,0.017520905,0,
00:09.3,0.001808167,0.003290176,0.017549515,0,
00:09.3,0.001819611,0.003307343,0.017538071,0,
00:09.3,0.001813889,0.00330162,0.017526627,0,
00:09.3,0.001813889,0.003290176,0.017532349,0,
00:09.3,0.001808167,0.003295898,0.017538071,0,
00:09.3,0.001785278,0.003295898,0.017515182,0,
00:09.3,0.001779556,0.003290176,0.017520905,0,
00:09.3,0.001819611,0.003295898,0.017538071,0,
00:09.3,0.001831055,0.00330162,0.017532349,0,
00:09.3,0.001808167,0.003290176,0.017526627,0,
00:09.3,0.001808167,0.003295898,0.017520905,0,
00:09.3,0.001842499,0.003295898,0.017520905,0,
00:09.3,0.001825333,0.003295898,0.017515182,0,
00:09.3,0.001813889,0.00330162,0.017520905,0,
00:09.3,0.001802444,0.003290176,0.017532349,0,
00:09.3,0.001802444,0.003278732,0.01750946,0,
00:09.3,0.001796722,0.003290176,0.017515182,0,
00:09.3,0.001836777,0.003307343,0.017515182,0,
00:09.3,0.001825333,0.003295898,0.017503738,0,
00:09.3,0.001819611,0.003295898,0.017520905,0,
00:09.3,0.001819611,0.003295898,0.017515182,0,
00:09.3,0.001813889,0.003295898,0.017526627,0,
00:09.3,0.001819611,0.003290176,0.017526627,0,
00:09.3,0.001819611,0.003295898,0.017520905,0,
00:09.3,0.001813889,0.003290176,0.017515182,0,
00:09.4,0.001813889,0.003290176,0.01750946,0,
00:09.4,0.001813889,0.003290176,0.017503738,0,
00:09.4,0.001796722,0.003295898,0.017492294,0,
00:09.4,0.001808167,0.003295898,0.017515182,0,
00:09.4,0.001831055,0.003290176,0.01750946,0,
00:09.4,0.001813889,0.003284454,0.01750946,0,
00:09.4,0.001791,0.003284454,0.017498016,0,
00:09.4,0.001813889,0.003290176,0.01750946,0,
00:09.4,0.001791,0.003284454,0.017503738,0,
00:09.4,0.001773834,0.003284454,0.017486572,0,
00:09.4,0.001825333,0.00330162,0.017503738,0,
00:09.4,0.001836777,0.003295898,0.017515182,0,
00:09.4,0.001836777,0.003295898,0.01750946,0,
00:09.4,0.001819611,0.003295898,0.017469406,0,
00:09.4,0.001836777,0.00330162,0.01750946,0,
00:09.4,0.001825333,0.003290176,0.017520905,0,
00:09.4,0.001813889,0.003295898,0.017520905,0,
00:09.4,0.001813889,0.003295898,0.01750946,0,
00:09.4,0.001819611,0.003295898,0.017492294,0,
00:09.4,0.001808167,0.003290176,0.017498016,0,
00:09.4,0.001808167,0.003290176,0.01750946,0,
00:09.4,0.001796722,0.00330162,0.017498016,0,
00:09.4,0.001836777,0.003307343,0.017492294,0,
00:09.4,0.001819611,0.003290176,0.017503738,0,
00:09.4,0.001802444,0.003290176,0.017486572,0,
00:09.5,0.001819611,0.003295898,0.01750946,0,
00:09.5,0.001831055,0.003295898,0.017492294,0,
00:09.5,0.001825333,0.003278732,0.017486572,0,
00:09.5,0.001813889,0.003284454,0.017515182,0,
00:09.5,0.001813889,0.003290176,0.017503738,0,
00:09.5,0.001802444,0.003290176,0.017498016,0,
00:09.5,0.001813889,0.003284454,0.017492294,0,
00:09.5,0.001819611,0.003290176,0.017486572,0,
00:09.5,0.001779556,0.003290176,0.017492294,0,
00:09.5,0.001813889,0.003284454,0.017503738,0,
00:09.5,0.001836777,0.003290176,0.01748085,0,
00:09.5,0.001825333,0.00330162,0.017492294,0,
00:09.5,0.001836777,0.003295898,0.017498016,0,
00:09.5,0.001819611,0.003295898,0.017486572,0,
00:09.5,0.001791,0.003284454,0.017486572,0,
00:09.5,0.001808167,0.003290176,0.01748085,0,
00:09.5,0.001831055,0.003290176,0.01750946,0,
00:09.5,0.001831055,0.003290176,0.017498016,0,
00:09.5,0.001808167,0.003284454,0.017498016,0,
00:09.5,0.001819611,0.003284454,0.017498016,0,
00:09.5,0.001819611,0.003295898,0.017475128,0,
00:09.5,0.001819611,0.003290176,0.017486572,0,
00:09.5,0.001802444,0.003284454,0.01750946,0,
00:09.5,0.001802444,0.00327301,0.017486572,0,
00:09.5,0.001831055,0.003290176,0.017492294,0,
00:09.6,0.001808167,0.003290176,0.017486572,0,
00:09.6,0.001796722,0.003284454,0.017492294,0,
00:09.6,0.001808167,0.003284454,0.017486572,0,
00:09.6,0.001825333,0.003278732,0.017475128,0,
00:09.6,0.001785278,0.003278732,0.017492294,0,
00:09.6,0.001796722,0.00327301,0.017503738,0,
00:09.6,0.001848221,0.003295898,0.017498016,0,
00:09.6,0.001831055,0.003295898,0.01750946,0,
00:09.6,0.001813889,0.003290176,0.017492294,0,
00:09.6,0.001819611,0.003278732,0.01748085,0,
00:09.6,0.001831055,0.003295898,0.017469406,0,
00:09.6,0.001791,0.003284454,0.01748085,0,
00:09.6,0.001791,0.003290176,0.017475128,0,
00:09.6,0.001819611,0.003284454,0.017486572,0,
00:09.6,0.001808167,0.00327301,0.017520905,0,
00:09.6,0.001836777,0.003290176,0.01750946,0,
00:09.6,0.001825333,0.003295898,0.017492294,0,
00:09.6,0.001808167,0.003284454,0.017498016,0,
00:09.6,0.001779556,0.003267288,0.017498016,0,
00:09.6,0.001808167,0.003267288,0.017492294,0,
00:09.6,0.001831055,0.003284454,0.017492294,0,
00:09.6,0.001819611,0.003284454,0.017503738,0,
00:09.6,0.001808167,0.00327301,0.017492294,0,
00:09.6,0.001825333,0.003284454,0.017486572,0,
00:09.6,0.001808167,0.003290176,0.017503738,0,
00:09.7,0.001796722,0.003278732,0.017498016,0,
00:09.7,0.001802444,0.003278732,0.01748085,0,
00:09.7,0.001819611,0.003290176,0.017475128,0,
00:09.7,0.001819611,0.003278732,0.01748085,0,
00:09.7,0.001813889,0.003290176,0.017486572,0,
00:09.7,0.001802444,0.003278732,0.01750946,0,
00:09.7,0.001825333,0.003278732,0.01750946,0,
00:09.7,0.001802444,0.003278732,0.017520905,0,
00:09.7,0.001813889,0.003278732,0.01750946,0,
00:09.7,0.001819611,0.003278732,0.01748085,0,
00:09.7,0.001813889,0.003278732,0.017486572,0,
00:09.7,0.001825333,0.003278732,0.017498016,0,
00:09.7,0.001802444,0.003278732,0.01745224,0,
00:09.7,0.001785278,0.003267288,0.01748085,0,
00:09.7,0.001791,0.003267288,0.017520905,0,
00:09.7,0.001813889,0.003267288,0.017515182,0,
00:09.7,0.001802444,0.003284454,0.017498016,0,
00:09.7,0.001813889,0.003307343,0.017486572,0,
00:09.7,0.001808167,0.003284454,0.017475128,0,
00:09.7,0.001813889,0.00327301,0.017492294,0,
00:09.7,0.001808167,0.00327301,0.017492294,0,
00:09.7,0.001802444,0.003278732,0.017475128,0,
00:09.7,0.001825333,0.003284454,0.017498016,0,
00:09.7,0.001825333,0.00327301,0.017520905,0,
00:09.7,0.001808167,0.003278732,0.017492294,0,
00:09.8,0.001813889,0.003267288,0.017475128,0,
00:09.8,0.001808167,0.00327301,0.017475128,0,
00:09.8,0.001808167,0.003278732,0.017498016,0,
00:09.8,0.001785278,0.003267288,0.017486572,0,
00:09.8,0.001773834,0.003261566,0.017503738,0,
00:09.8,0.001813889,0.003267288,0.01750946,0,
00:09.8,0.001831055,0.003267288,0.017486572,0,
00:09.8,0.001808167,0.003267288,0.017446518,0,
00:09.8,0.001836777,0.003284454,0.017486572,0,
00:09.8,0.001825333,0.003290176,0.017520905,0,
00:09.8,0.001802444,0.003267288,0.017486572,0,
00:09.8,0.001796722,0.003278732,0.017475128,0,
00:09.8,0.001813889,0.00327301,0.01748085,0,
00:09.8,0.001813889,0.00327301,0.017492294,0,
00:09.8,0.001808167,0.00327301,0.017503738,0,
00:09.8,0.001796722,0.00327301,0.017486572,0,
00:09.8,0.001791,0.00327301,0.01748085,0,
00:09.8,0.001819611,0.00327301,0.017457962,0,
00:09.8,0.001796722,0.003261566,0.017486572,0,
00:09.8,0.001768112,0.003267288,0.017492294,0,
00:09.8,0.001796722,0.00327301,0.01748085,0,
00:09.8,0.001831055,0.00327301,0.01748085,0,
00:09.8,0.001802444,0.003267288,0.017469406,0,
00:09.8,0.001779556,0.003250122,0.017498016,0,
00:09.8,0.001825333,0.00327301,0.017486572,0,
00:09.9,0.001831055,0.003284454,0.01748085,0,
00:09.9,0.001831055,0.003284454,0.01745224,0,
00:09.9,0.001813889,0.00327301,0.017475128,0,
00:09.9,0.001791,0.003255844,0.017503738,0,
00:09.9,0.001802444,0.003267288,0.017486572,0,
00:09.9,0.001796722,0.00327301,0.01748085,0,
00:09.9,0.001802444,0.003267288,0.017475128,0,
00:09.9,0.001796722,0.003267288,0.017429352,0,
00:09.9,0.001802444,0.00327301,0.01748085,0,
00:09.9,0.001819611,0.003278732,0.017498016,0,
00:09.9,0.001819611,0.0032444,0.01748085,0,
00:09.9,0.001808167,0.003238678,0.01748085,0,
00:09.9,0.001808167,0.003284454,0.01748085,0,
00:09.9,0.001808167,0.00327301,0.017498016,0,
00:09.9,0.001785278,0.003261566,0.01748085,0,
00:09.9,0.001773834,0.003261566,0.017463684,0,
00:09.9,0.001773834,0.003267288,0.017463684,0,
00:09.9,0.001802444,0.003267288,0.017486572,0,
00:09.9,0.001819611,0.003267288,0.017463684,0,
00:09.9,0.001836777,0.003255844,0.017475128,0,
00:09.9,0.001808167,0.003261566,0.017475128,0,
00:09.9,0.001802444,0.00327301,0.017463684,0,
00:09.9,0.001802444,0.00327301,0.017486572,0,
00:09.9,0.001813889,0.003278732,0.017475128,0,
00:09.9,0.001813889,0.003261566,0.01748085,0,
00:10.0,0.001791,0.003261566,0.017503738,0,
00:10.0,0.001802444,0.003267288,0.017486572,0,
00:10.0,0.001831055,0.003284454,0.017457962,0,
00:10.0,0.001808167,0.003238678,0.017475128,0,
00:10.0,0.001813889,0.003238678,0.01745224,0,
00:10.0,0.001813889,0.003278732,0.017486572,0,
00:10.0,0.001796722,0.00327301,0.017498016,0,
00:10.0,0.00176239,0.003255844,0.017492294,0,
00:10.0,0.001813889,0.003255844,0.01748085,0,
00:10.0,0.001825333,0.003261566,0.017492294,0,
00:10.0,0.001802444,0.003267288,0.017498016,0,
00:10.0,0.001785278,0.003255844,0.017486572,0,
00:00:10,0.001808167,0.003261566,0.017486572,0,
00:10.0,0.001808167,0.003278732,0.017469406,0,
00:10.0,0.001808167,0.00327301,0.017469406,0,
00:10.0,0.001796722,0.003267288,0.017498016,0,
00:10.0,0.001791,0.003261566,0.017492294,0,
00:10.0,0.001785278,0.003255844,0.017498016,0,
00:10.0,0.001791,0.003261566,0.01748085,0,
00:10.0,0.001791,0.003255844,0.017463684,0,
00:10.0,0.001785278,0.003261566,0.017492294,0,
00:10.0,0.001819611,0.003261566,0.017469406,0,
00:10.0,0.001831055,0.003238678,0.017469406,0,
00:10.0,0.001791,0.00327301,0.01750946,0,
00:10.0,0.001779556,0.003261566,0.01750946,0,
00:10.1,0.001836777,0.003267288,0.017486572,0,
00:10.1,0.001819611,0.003267288,0.017492294,0,
00:10.1,0.001808167,0.00327301,0.01748085,0,
00:10.1,0.001813889,0.003267288,0.017475128,0,
00:10.1,0.001802444,0.003255844,0.017492294,0,
00:10.1,0.001791,0.003261566,0.017492294,0,
00:10.1,0.001802444,0.00327301,0.01745224,0,
00:10.1,0.001796722,0.003255844,0.017475128,0,
00:10.1,0.001791,0.0032444,0.017498016,0,
00:10.1,0.001796722,0.003261566,0.017475128,0,
00:10.1,0.001796722,0.003250122,0.017469406,0,
00:10.1,0.001819611,0.00327301,0.01748085,0,
00:10.1,0.001808167,0.00327301,0.017463684,0,
00:10.1,0.001796722,0.003255844,0.017498016,0,
00:10.1,0.001785278,0.003255844,0.017492294,0,
00:10.1,0.001796722,0.003261566,0.017486572,0,
00:10.1,0.001802444,0.003255844,0.017475128,0,
00:10.1,0.001796722,0.003261566,0.017469406,0,
00:10.1,0.001802444,0.003261566,0.017475128,0,
00:10.1,0.001819611,0.00327301,0.017463684,0,
00:10.1,0.001808167,0.003261566,0.017475128,0,
00:10.1,0.001796722,0.003232956,0.017463684,0,
00:10.1,0.001813889,0.003284454,0.017457962,0,
00:10.1,0.001802444,0.00327301,0.017435074,0,
00:10.1,0.001779556,0.003238678,0.01748085,0,
00:10.2,0.001796722,0.003238678,0.017486572,0,
00:10.2,0.001813889,0.003290176,0.017463684,0,
00:10.2,0.001813889,0.003290176,0.017412186,0,
00:10.2,0.001791,0.003290176,0.017383575,0,
00:10.2,0.001808167,0.003261566,0.017440796,0,
00:10.2,0.001779556,0.003267288,0.017526627,0,
00:10.2,0.001813889,0.003284454,0.017463684,0,
00:10.2,0.001819611,0.003267288,0.017469406,0,
00:10.2,0.001813889,0.003267288,0.017446518,0,
00:10.2,0.001785278,0.003250122,0.01745224,0,
00:10.2,0.001796722,0.003261566,0.017457962,0,
00:10.2,0.001813889,0.003267288,0.01745224,0,
00:10.2,0.001779556,0.003261566,0.017440796,0,
00:10.2,0.001768112,0.003238678,0.017440796,0,
00:10.2,0.001808167,0.003250122,0.01742363,0,
00:10.2,0.001836777,0.003278732,0.01742363,0,
00:10.2,0.001813889,0.003267288,0.017412186,0,
00:10.2,0.001813889,0.003278732,0.017389297,0,
00:10.2,0.001773834,0.003238678,0.017429352,0,
00:10.2,0.001785278,0.003255844,0.01745224,0,
00:10.2,0.001808167,0.00327301,0.017429352,0,
00:10.2,0.001808167,0.003267288,0.017406464,0,
00:10.2,0.001785278,0.003255844,0.017417908,0,
00:10.2,0.001813889,0.003267288,0.017400742,0,
00:10.2,0.001813889,0.00327301,0.017429352,0,
00:10.3,0.001779556,0.003261566,0.017417908,0,
00:10.3,0.001785278,0.003255844,0.017412186,0,
00:10.3,0.001791,0.003255844,0.01739502,0,
00:10.3,0.001791,0.003267288,0.017400742,0,
00:10.3,0.001808167,0.00327301,0.017366409,0,
00:10.3,0.001808167,0.003261566,0.017383575,0,
00:10.3,0.001779556,0.003261566,0.017435074,0,
00:10.3,0.00176239,0.003255844,0.017389297,0,
00:10.3,0.00176239,0.0032444,0.017406464,0,
00:10.3,0.001825333,0.003261566,0.017406464,0,
