Elapsed_Time,EMG1,EMG2,EMG3,BioRadio Event,Unnamed: 5
00:00:00,0.001527786,0.003410339,0.018201828,0,
00:00.0,0.00151062,0.003416061,0.018201828,0,
00:00.0,0.001504898,0.003410339,0.018184662,0,
00:00.0,0.001499176,0.003404617,0.018201828,0,
00:00.0,0.00151062,0.003404617,0.018196106,0,
00:00.0,0.001504898,0.003404617,0.01817894,0,
00:00.0,0.001499176,0.003410339,0.018190384,0,
00:00.0,0.001522064,0.003410339,0.018201828,0,
00:00.0,0.001516342,0.003410339,0.018196106,0,
00:00.0,0.001504898,0.003410339,0.018196106,0,
00:00.0,0.001504898,0.003404617,0.01820755,0,
00:00.0,0.00151062,0.003404617,0.018196106,0,
00:00.0,0.00151062,0.003398895,0.018190384,0,
00:00.1,0.001504898,0.003398895,0.018190384,0,
00:00.1,0.001504898,0.003404617,0.018184662,0,
00:00.1,0.001504898,0.003410339,0.018184662,0,
00:00.1,0.001504898,0.003404617,0.018190384,0,
00:00.1,0.00151062,0.003404617,0.018190384,0,
00:00.1,0.00151062,0.003398895,0.018201828,0,
00:00.1,0.001487732,0.003398895,0.018190384,0,
00:00.1,0.001487732,0.003410339,0.018184662,0,
00:00.1,0.001487732,0.003404617,0.018213272,0,
00:00.1,0.001504898,0.003404617,0.01820755,0,
00:00.1,0.001522064,0.003404617,0.018196106,0,
00:00.1,0.001504898,0.003398895,0.018190384,0,
00:00.1,0.00151062,0.003404617,0.01820755,0,
00:00.1,0.00151062,0.003410339,0.018201828,0,
00:00.1,0.00151062,0.003410339,0.018196106,0,
00:00.1,0.001516342,0.003398895,0.018190384,0,
00:00.1,0.001516342,0.003398895,0.018190384,0,
00:00.1,0.001504898,0.003404617,0.018190384,0,
00:00.1,0.001493454,0.003404617,0.018196106,0,
00:00.1,0.001504898,0.003404617,0.018196106,0,
00:00.1,0.001504898,0.003404617,0.018196106,0,
00:00.1,0.00151062,0.003410339,0.018184662,0,
00:00.1,0.00151062,0.003404617,0.01820755,0,
00:00.1,0.001499176,0.003404617,0.018201828,0,
00:00.1,0.00151062,0.003398895,0.018201828,0,
00:00.2,0.00151062,0.003393173,0.018190384,0,
00:00.2,0.001504898,0.003398895,0.018190384,0,
00:00.2,0.001504898,0.003410339,0.018184662,0,
00:00.2,0.00151062,0.003404617,0.018173218,0,
00:00.2,0.001504898,0.003398895,0.018201828,0,
00:00.2,0.001504898,0.003398895,0.018224716,0,
00:00.2,0.001499176,0.003398895,0.018213272,0,
00:00.2,0.001504898,0.003404617,0.018196106,0,
00:00.2,0.001504898,0.003404617,0.018190384,0,
00:00.2,0.001504898,0.003398895,0.018184662,0,
00:00.2,0.001493454,0.003398895,0.018190384,0,
00:00.2,0.001487732,0.003404617,0.018201828,0,
00:00.2,0.001493454,0.003398895,0.018196106,0,
00:00.2,0.001499176,0.003393173,0.018201828,0,
00:00.2,0.00151062,0.003398895,0.01820755,0,
00:00.2,0.001527786,0.003393173,0.018201828,0,
00:00.2,0.00151062,0.003398895,0.018196106,0,
00:00.2,0.001504898,0.003398895,0.018196106,0,
00:00.2,0.00151062,0.003393173,0.018201828,0,
00:00.2,0.00151062,0.003393173,0.018201828,0,
00:00.2,0.001504898,0.003393173,0.018196106,0,
00:00.2,0.001499176,0.003398895,0.018196106,0,
00:00.2,0.001499176,0.003398895,0.018190384,0,
00:00.2,0.001493454,0.003393173,0.018184662,0,
00:00.2,0.001493454,0.003387451,0.01817894,0,
00:00.3,0.001499176,0.003393173,0.018173218,0,
00:00.3,0.001516342,0.003387451,0.018218994,0,
00:00.3,0.00151062,0.003393173,0.018213272,0,
00:00.3,0.001504898,0.003393173,0.018201828,0,
00:00.3,0.001504898,0.003393173,0.018184662,0,
00:00.3,0.001504898,0.003393173,0.01817894,0,
00:00.3,0.001499176,0.003393173,0.01820755,0,
00:00.3,0.001504898,0.003393173,0.018201828,0,
00:00.3,0.001504898,0.003404617,0.018196106,0,
00:00.3,0.001504898,0.003387451,0.01817894,0,
00:00.3,0.001499176,0.003381729,0.018190384,0,
00:00.3,0.001499176,0.003387451,0.018184662,0,
00:00.3,0.001499176,0.003381729,0.018184662,0,
00:00.3,0.001499176,0.003393173,0.018196106,0,
00:00.3,0.001487732,0.003387451,0.018213272,0,
00:00.3,0.001499176,0.003387451,0.018190384,0,
00:00.3,0.00151062,0.003387451,0.018184662,0,
00:00.3,0.001493454,0.003387451,0.018201828,0,
00:00.3,0.001499176,0.003387451,0.018184662,0,
00:00.3,0.001499176,0.003381729,0.018196106,0,
00:00.3,0.001499176,0.003381729,0.018196106,0,
00:00.3,0.001499176,0.003381729,0.018196106,0,
00:00.3,0.00148201,0.003387451,0.018196106,0,
00:00.3,0.001499176,0.003381729,0.018190384,0,
00:00.3,0.00151062,0.003376007,0.01817894,0,
00:00.4,0.00151062,0.003376007,0.018184662,0,
00:00.4,0.00151062,0.003381729,0.018190384,0,
00:00.4,0.001499176,0.003387451,0.018184662,0,
00:00.4,0.001493454,0.003387451,0.018184662,0,
00:00.4,0.00148201,0.003387451,0.018190384,0,
00:00.4,0.001499176,0.003370285,0.01817894,0,
00:00.4,0.001516342,0.003376007,0.01817894,0,
00:00.4,0.001504898,0.003381729,0.018190384,0,
00:00.4,0.001499176,0.003381729,0.018190384,0,
00:00.4,0.001499176,0.003370285,0.018196106,0,
00:00.4,0.001499176,0.003370285,0.018190384,0,
00:00.4,0.001493454,0.003376007,0.018196106,0,
00:00.4,0.001493454,0.003376007,0.018196106,0,
00:00.4,0.001504898,0.003376007,0.018190384,0,
00:00.4,0.001499176,0.003376007,0.018184662,0,
00:00.4,0.001493454,0.003376007,0.01817894,0,
00:00.4,0.001487732,0.003376007,0.018167496,0,
00:00.4,0.00151062,0.003381729,0.01817894,0,
00:00.4,0.00151062,0.003381729,0.018196106,0,
00:00.4,0.001499176,0.003370285,0.018196106,0,
00:00.4,0.001487732,0.003364563,0.018196106,0,
00:00.4,0.00151062,0.003376007,0.01817894,0,
00:00.4,0.001499176,0.003376007,0.018184662,0,
00:00.4,0.001493454,0.003376007,0.018196106,0,
00:00.4,0.001487732,0.003376007,0.018196106,0,
00:00.5,0.001504898,0.003353119,0.018196106,0,
00:00.5,0.001504898,0.003358841,0.018201828,0,
00:00.5,0.001504898,0.003370285,0.018196106,0,
00:00.5,0.00151062,0.003370285,0.018190384,0,
00:00.5,0.001499176,0.003364563,0.018184662,0,
00:00.5,0.001499176,0.003364563,0.018190384,0,
00:00.5,0.001504898,0.003358841,0.018184662,0,
00:00.5,0.001499176,0.003370285,0.018196106,0,
00:00.5,0.001499176,0.003376007,0.018196106,0,
00:00.5,0.001493454,0.003358841,0.018196106,0,
00:00.5,0.001499176,0.003353119,0.01820755,0,
00:00.5,0.001499176,0.003358841,0.018201828,0,
00:00.5,0.00151062,0.003358841,0.018190384,0,
00:00.5,0.001504898,0.003364563,0.018184662,0,
00:00.5,0.00151062,0.003364563,0.018184662,0,
00:00.5,0.001499176,0.003353119,0.018213272,0,
00:00.5,0.001487732,0.003353119,0.018213272,0,
00:00.5,0.001499176,0.003358841,0.018201828,0,
00:00.5,0.001504898,0.003358841,0.018201828,0,
00:00.5,0.001493454,0.003353119,0.018184662,0,
00:00.5,0.00148201,0.003347397,0.018196106,0,
00:00.5,0.001499176,0.003347397,0.018213272,0,
00:00.5,0.001516342,0.003353119,0.01820755,0,
00:00.5,0.001516342,0.003353119,0.018201828,0,
00:00.5,0.001504898,0.003347397,0.018196106,0,
00:00.6,0.001499176,0.003341675,0.018196106,0,
00:00.6,0.001499176,0.003347397,0.018184662,0,
00:00.6,0.001493454,0.003347397,0.01820755,0,
00:00.6,0.001493454,0.003347397,0.018213272,0,
00:00.6,0.001487732,0.003347397,0.018213272,0,
00:00.6,0.001504898,0.003347397,0.01820755,0,
00:00.6,0.001499176,0.003341675,0.018196106,0,
00:00.6,0.001493454,0.003347397,0.018190384,0,
00:00.6,0.001487732,0.003341675,0.018218994,0,
00:00.6,0.001522064,0.003330231,0.018201828,0,
00:00.6,0.00151062,0.003335953,0.018196106,0,
00:00.6,0.001504898,0.003341675,0.018218994,0,
00:00.6,0.001493454,0.003341675,0.018218994,0,
00:00.6,0.001499176,0.003347397,0.018196106,0,
00:00.6,0.001499176,0.003330231,0.018213272,0,
00:00.6,0.001504898,0.003318787,0.018213272,0,
00:00.6,0.001487732,0.003324509,0.018230438,0,
00:00.6,0.001499176,0.003335953,0.01820755,0,
00:00.6,0.001504898,0.003330231,0.01820755,0,
00:00.6,0.001499176,0.003324509,0.01823616,0,
00:00.6,0.001493454,0.003318787,0.018218994,0,
00:00.6,0.00151062,0.003324509,0.018218994,0,
00:00.6,0.001504898,0.003330231,0.018230438,0,
00:00.6,0.001493454,0.003330231,0.018218994,0,
00:00.6,0.001504898,0.003330231,0.018218994,0,
00:00.7,0.001476288,0.003324509,0.018213272,0,
00:00.7,0.001487732,0.003330231,0.018218994,0,
00:00.7,0.001522064,0.003324509,0.018218994,0,
00:00.7,0.00151062,0.003318787,0.01820755,0,
00:00.7,0.001504898,0.003324509,0.018224716,0,
00:00.7,0.001493454,0.003318787,0.018230438,0,
00:00.7,0.001499176,0.003313065,0.018218994,0,
00:00.7,0.001487732,0.003318787,0.01823616,0,
00:00.7,0.00148201,0.003324509,0.018241882,0,
00:00.7,0.001499176,0.003318787,0.018230438,0,
00:00.7,0.00151062,0.003313065,0.018213272,0,
00:00.7,0.00151062,0.003318787,0.01823616,0,
00:00.7,0.001499176,0.003313065,0.018241882,0,
00:00.7,0.001493454,0.003318787,0.018247604,0,
00:00.7,0.001487732,0.003318787,0.018247604,0,
00:00.7,0.001499176,0.00330162,0.01823616,0,
00:00.7,0.001516342,0.003313065,0.018230438,0,
00:00.7,0.001504898,0.003313065,0.018259048,0,
00:00.7,0.001516342,0.003318787,0.018259048,0,
00:00.7,0.001504898,0.003313065,0.018259048,0,
00:00.7,0.001493454,0.00330162,0.018259048,0,
00:00.7,0.001499176,0.00330162,0.018253326,0,
00:00.7,0.001499176,0.003307343,0.018241882,0,
00:00.7,0.001504898,0.003313065,0.01823616,0,
00:00.7,0.001504898,0.003307343,0.01823616,0,
00:00.8,0.001493454,0.003295898,0.018253326,0,
00:00.8,0.00148201,0.00330162,0.018264771,0,
00:00.8,0.001493454,0.003307343,0.018247604,0,
00:00.8,0.001493454,0.003307343,0.018247604,0,
00:00.8,0.001499176,0.003295898,0.018270493,0,
00:00.8,0.001504898,0.003290176,0.018270493,0,
00:00.8,0.001487732,0.00330162,0.018259048,0,
00:00.8,0.001493454,0.003307343,0.018259048,0,
00:00.8,0.00151062,0.003295898,0.018259048,0,
00:00.8,0.001504898,0.003290176,0.018281937,0,
00:00.8,0.001499176,0.003290176,0.018281937,0,
00:00.8,0.001499176,0.003284454,0.018281937,0,
00:00.8,0.001499176,0.003295898,0.018287659,0,
00:00.8,0.001499176,0.003290176,0.018281937,0,
00:00.8,0.001499176,0.003295898,0.018276215,0,
00:00.8,0.001499176,0.003290176,0.018276215,0,
00:00.8,0.00151062,0.003290176,0.018281937,0,
00:00.8,0.001504898,0.003295898,0.018264771,0,
00:00.8,0.001493454,0.003284454,0.018270493,0,
00:00.8,0.00148201,0.003290176,0.018287659,0,
00:00.8,0.001499176,0.003290176,0.018293381,0,
00:00.8,0.001504898,0.003284454,0.018287659,0,
00:00.8,0.001487732,0.003290176,0.018293381,0,
00:00.8,0.001493454,0.003295898,0.018299103,0,
00:00.8,0.001493454,0.003290176,0.018304825,0,
00:00.9,0.001476288,0.003278732,0.018299103,0,
00:00.9,0.001499176,0.003278732,0.018293381,0,
00:00.9,0.00151062,0.003284454,0.018299103,0,
00:00.9,0.001499176,0.003284454,0.018321991,0,
00:00.9,0.001487732,0.003278732,0.018310547,0,
00:00.9,0.001493454,0.003278732,0.018304825,0,
00:00.9,0.001487732,0.003278732,0.018299103,0,
00:00.9,0.001493454,0.003284454,0.018321991,0,
00:00.9,0.001487732,0.003284454,0.018310547,0,
00:00.9,0.001493454,0.003278732,0.018310547,0,
00:00.9,0.001504898,0.003278732,0.018321991,0,
00:00.9,0.00151062,0.00327301,0.018327713,0,
00:00.9,0.001499176,0.00327301,0.018327713,0,
00:00.9,0.001493454,0.003278732,0.018327713,0,
00:00.9,0.001504898,0.003278732,0.018310547,0,
00:00.9,0.001499176,0.00327301,0.018321991,0,
00:00.9,0.001499176,0.003278732,0.018333435,0,
00:00.9,0.001493454,0.003278732,0.018327713,0,
00:00.9,0.001487732,0.003267288,0.018327713,0,
00:00.9,0.00148201,0.003267288,0.018321991,0,
00:00.9,0.001499176,0.003267288,0.018316269,0,
00:00.9,0.001504898,0.003278732,0.018316269,0,
00:00.9,0.001499176,0.00327301,0.018333435,0,
00:00.9,0.001493454,0.00327301,0.018339157,0,
00:00.9,0.001499176,0.003261566,0.018321991,0,
00:01.0,0.001499176,0.003267288,0.018316269,0,
00:01.0,0.001487732,0.003261566,0.018327713,0,
00:01.0,0.001499176,0.00327301,0.018344879,0,
00:01.0,0.001499176,0.00327301,0.018333435,0,
00:01.0,0.001487732,0.003255844,0.018339157,0,
00:01.0,0.001493454,0.003255844,0.018339157,0,
00:01.0,0.001493454,0.003261566,0.018344879,0,
00:01.0,0.00148201,0.003267288,0.018339157,0,
00:01.0,0.001493454,0.003255844,0.018333435,0,
00:01.0,0.001499176,0.003250122,0.018333435,0,
00:01.0,0.001499176,0.003255844,0.018327713,0,
00:01.0,0.001487732,0.003261566,0.018339157,0,
00:00:01,0.001499176,0.003255844,0.018339157,0,
00:01.0,0.001504898,0.003255844,0.018350601,0,
00:01.0,0.001493454,0.003250122,0.018344879,0,
00:01.0,0.001499176,0.003250122,0.018333435,0,
00:01.0,0.001499176,0.003255844,0.018327713,0,
00:01.0,0.001504898,0.003261566,0.018344879,0,
00:01.0,0.001499176,0.003255844,0.018344879,0,
00:01.0,0.001487732,0.003250122,0.018344879,0,
00:01.0,0.001493454,0.003250122,0.018344879,0,
00:01.0,0.001504898,0.003250122,0.018344879,0,
00:01.0,0.001493454,0.003250122,0.018344879,0,
00:01.0,0.001487732,0.003250122,0.018356323,0,
00:01.0,0.00148201,0.0032444,0.018344879,0,
00:01.1,0.001499176,0.003250122,0.018350601,0,
00:01.1,0.001504898,0.003250122,0.018350601,0,
00:01.1,0.001499176,0.0032444,0.018350601,0,
00:01.1,0.001476288,0.003238678,0.018362045,0,
00:01.1,0.001493454,0.0032444,0.018344879,0,
00:01.1,0.001522064,0.003250122,0.018321991,0,
00:01.1,0.001499176,0.0032444,0.018350601,0,
00:01.1,0.001493454,0.003250122,0.018362045,0,
00:01.1,0.001499176,0.003250122,0.018367767,0,
00:01.1,0.001487732,0.0032444,0.018356323,0,
00:01.1,0.001476288,0.003238678,0.018356323,0,
00:01.1,0.001499176,0.0032444,0.018367767,0,
00:01.1,0.001493454,0.0032444,0.018367767,0,
00:01.1,0.001493454,0.003238678,0.018362045,0,
00:01.1,0.001493454,0.0032444,0.018356323,0,
00:01.1,0.001504898,0.003238678,0.018356323,0,
00:01.1,0.001504898,0.003238678,0.018344879,0,
00:01.1,0.001499176,0.0032444,0.018344879,0,
00:01.1,0.001487732,0.0032444,0.018362045,0,
00:01.1,0.001499176,0.0032444,0.018356323,0,
00:01.1,0.001504898,0.003238678,0.018356323,0,
00:01.1,0.001499176,0.003232956,0.018350601,0,
00:01.1,0.001487732,0.0032444,0.018356323,0,
00:01.1,0.001493454,0.003238678,0.018367767,0,
00:01.1,0.001493454,0.003238678,0.018373489,0,
00:01.2,0.00148201,0.0032444,0.018373489,0,
00:01.2,0.001504898,0.003238678,0.018362045,0,
00:01.2,0.00151062,0.0032444,0.018362045,0,
00:01.2,0.001487732,0.003232956,0.018356323,0,
00:01.2,0.001464844,0.003221512,0.018367767,0,
00:01.2,0.00148201,0.003227234,0.018373489,0,
00:01.2,0.00151062,0.0032444,0.018384933,0,
00:01.2,0.001516342,0.003250122,0.018373489,0,
00:01.2,0.001499176,0.003238678,0.018367767,0,
00:01.2,0.001493454,0.003238678,0.018367767,0,
00:01.2,0.001493454,0.003227234,0.018367767,0,
00:01.2,0.001487732,0.003232956,0.018390656,0,
00:01.2,0.001470566,0.003238678,0.018384933,0,
00:01.2,0.00148201,0.003238678,0.018379211,0,
00:01.2,0.001493454,0.003227234,0.018367767,0,
00:01.2,0.001493454,0.003238678,0.018367767,0,
00:01.2,0.001493454,0.003238678,0.018367767,0,
00:01.2,0.001493454,0.003238678,0.018373489,0,
00:01.2,0.001493454,0.003238678,0.018379211,0,
00:01.2,0.001493454,0.003227234,0.018379211,0,
00:01.2,0.001493454,0.003221512,0.018379211,0,
00:01.2,0.001493454,0.003227234,0.018367767,0,
00:01.2,0.001499176,0.003232956,0.018356323,0,
00:01.2,0.001493454,0.003238678,0.018379211,0,
00:01.2,0.001476288,0.003238678,0.0184021,0,
00:01.3,0.00148201,0.003227234,0.018390656,0,
00:01.3,0.001504898,0.003227234,0.018384933,0,
00:01.3,0.001487732,0.003227234,0.018379211,0,
00:01.3,0.001487732,0.003238678,0.018384933,0,
00:01.3,0.001476288,0.003232956,0.018384933,0,
00:01.3,0.001476288,0.003221512,0.018390656,0,
00:01.3,0.001493454,0.003232956,0.018384933,0,
00:01.3,0.001487732,0.003232956,0.018379211,0,
00:01.3,0.001499176,0.003232956,0.018396378,0,
00:01.3,0.001487732,0.003227234,0.018384933,0,
00:01.3,0.001470566,0.003232956,0.018384933,0,
00:01.3,0.001487732,0.003227234,0.018379211,0,
00:01.3,0.001504898,0.003232956,0.018384933,0,
00:01.3,0.001499176,0.003227234,0.018373489,0,
00:01.3,0.001493454,0.003227234,0.018379211,0,
00:01.3,0.001487732,0.003221512,0.018396378,0,
00:01.3,0.001493454,0.003227234,0.0184021,0,
00:01.3,0.001493454,0.003232956,0.0184021,0,
00:01.3,0.001487732,0.003232956,0.018384933,0,
00:01.3,0.001470566,0.003227234,0.018384933,0,
00:01.3,0.00148201,0.003221512,0.0184021,0,
00:01.3,0.001493454,0.003227234,0.018407822,0,
00:01.3,0.001493454,0.003238678,0.018396378,0,
00:01.3,0.001487732,0.003238678,0.018384933,0,
00:01.3,0.00148201,0.003227234,0.018390656,0,
00:01.4,0.001470566,0.003221512,0.018413544,0,
00:01.4,0.001493454,0.003221512,0.018396378,0,
00:01.4,0.001493454,0.003227234,0.0184021,0,
00:01.4,0.00148201,0.003227234,0.018384933,0,
00:01.4,0.001493454,0.003221512,0.0184021,0,
00:01.4,0.001504898,0.003227234,0.018407822,0,
00:01.4,0.001493454,0.003232956,0.018396378,0,
00:01.4,0.001487732,0.003232956,0.018396378,0,
00:01.4,0.001487732,0.003232956,0.018384933,0,
00:01.4,0.001487732,0.003221512,0.0184021,0,
00:01.4,0.001487732,0.00321579,0.018424988,0,
00:01.4,0.001499176,0.003227234,0.0184021,0,
00:01.4,0.001493454,0.003227234,0.018396378,0,
00:01.4,0.00148201,0.003227234,0.018413544,0,
00:01.4,0.00148201,0.003221512,0.018407822,0,
00:01.4,0.00148201,0.003221512,0.0184021,0,
00:01.4,0.001487732,0.003221512,0.018384933,0,
00:01.4,0.001487732,0.003221512,0.018396378,0,
00:01.4,0.001504898,0.003232956,0.0184021,0,
00:01.4,0.001504898,0.003227234,0.018390656,0,
00:01.4,0.001493454,0.003227234,0.018379211,0,
00:01.4,0.001487732,0.003227234,0.018407822,0,
00:01.4,0.00148201,0.003227234,0.018424988,0,
00:01.4,0.00148201,0.003221512,0.018413544,0,
00:01.4,0.001487732,0.003221512,0.0184021,0,
00:01.5,0.001499176,0.003221512,0.018407822,0,
00:01.5,0.001493454,0.00321579,0.0184021,0,
00:01.5,0.00148201,0.003221512,0.0184021,0,
00:01.5,0.001487732,0.003227234,0.018413544,0,
00:01.5,0.001487732,0.003221512,0.018419266,0,
00:01.5,0.001493454,0.003227234,0.018407822,0,
00:01.5,0.001493454,0.003227234,0.018413544,0,
00:01.5,0.00148201,0.003227234,0.01843071,0,
00:01.5,0.001487732,0.003227234,0.018413544,0,
00:01.5,0.001487732,0.003221512,0.018413544,0,
00:01.5,0.001476288,0.003227234,0.018407822,0,
00:01.5,0.001487732,0.003232956,0.0184021,0,
00:01.5,0.001493454,0.003227234,0.018413544,0,
00:01.5,0.001487732,0.003227234,0.018419266,0,
00:01.5,0.00148201,0.003221512,0.018419266,0,
00:01.5,0.001470566,0.003221512,0.018413544,0,
00:01.5,0.001487732,0.003227234,0.018413544,0,
00:01.5,0.001504898,0.003232956,0.018407822,0,
00:01.5,0.001493454,0.003227234,0.018413544,0,
00:01.5,0.00148201,0.003221512,0.018407822,0,
00:01.5,0.001493454,0.003221512,0.018407822,0,
00:01.5,0.001476288,0.003227234,0.01843071,0,
00:01.5,0.001476288,0.003227234,0.018424988,0,
00:01.5,0.001487732,0.003232956,0.018413544,0,
00:01.5,0.00148201,0.003221512,0.018413544,0,
00:01.6,0.001464844,0.00321579,0.018419266,0,
00:01.6,0.001487732,0.003227234,0.018413544,0,
00:01.6,0.001493454,0.003232956,0.018407822,0,
00:01.6,0.001499176,0.003227234,0.018413544,0,
00:01.6,0.001487732,0.003221512,0.018419266,0,
00:01.6,0.001487732,0.003221512,0.018407822,0,
00:01.6,0.001499176,0.003227234,0.018413544,0,
00:01.6,0.001499176,0.003227234,0.018407822,0,
00:01.6,0.001487732,0.003227234,0.018424988,0,
00:01.6,0.001487732,0.003227234,0.018413544,0,
00:01.6,0.001487732,0.00321579,0.018424988,0,
00:01.6,0.00148201,0.003221512,0.01843071,0,
00:01.6,0.00148201,0.003227234,0.018419266,0,
00:01.6,0.00148201,0.003227234,0.018419266,0,
00:01.6,0.001499176,0.003232956,0.018419266,0,
00:01.6,0.001493454,0.003227234,0.018407822,0,
00:01.6,0.001476288,0.003221512,0.018424988,0,
00:01.6,0.00148201,0.003227234,0.018419266,0,
00:01.6,0.00148201,0.003221512,0.018413544,0,
00:01.6,0.001499176,0.003238678,0.018413544,0,
00:01.6,0.001493454,0.003221512,0.018419266,0,
00:01.6,0.001487732,0.003221512,0.018407822,0,
00:01.6,0.001476288,0.003227234,0.0184021,0,
00:01.6,0.00148201,0.003232956,0.0184021,0,
00:01.6,0.00148201,0.003227234,0.018413544,0,
00:01.7,0.001476288,0.003221512,0.018419266,0,
00:01.7,0.001470566,0.003232956,0.01843071,0,
00:01.7,0.00148201,0.003227234,0.01843071,0,
00:01.7,0.001487732,0.003227234,0.01843071,0,
00:01.7,0.001504898,0.003227234,0.018424988,0,
00:01.7,0.001499176,0.003227234,0.018419266,0,
00:01.7,0.001493454,0.003227234,0.018407822,0,
00:01.7,0.001487732,0.003238678,0.0184021,0,
00:01.7,0.001487732,0.003238678,0.018396378,0,
00:01.7,0.001493454,0.003232956,0.018419266,0,
00:01.7,0.001487732,0.003232956,0.01843071,0,
00:01.7,0.001487732,0.003232956,0.018413544,0,
00:01.7,0.001476288,0.003227234,0.018413544,0,
00:01.7,0.001487732,0.003227234,0.018413544,0,
00:01.7,0.00148201,0.003227234,0.018424988,0,
00:01.7,0.00148201,0.003227234,0.018424988,0,
00:01.7,0.001476288,0.003232956,0.018419266,0,
00:01.7,0.001470566,0.003238678,0.018413544,0,
00:01.7,0.001476288,0.003232956,0.018407822,0,
00:01.7,0.001499176,0.003227234,0.018407822,0,
00:01.7,0.001499176,0.003232956,0.018413544,0,
00:01.7,0.001487732,0.003238678,0.018413544,0,
00:01.7,0.001470566,0.003232956,0.018407822,0,
00:01.7,0.001476288,0.003227234,0.018419266,0,
00:01.7,0.001499176,0.003221512,0.018413544,0,
00:01.8,0.001487732,0.003227234,0.018407822,0,
00:01.8,0.001499176,0.003232956,0.018390656,0,
00:01.8,0.001476288,0.003232956,0.018413544,0,
00:01.8,0.001470566,0.003232956,0.018436432,0,
00:01.8,0.00148201,0.003221512,0.018419266,0,
00:01.8,0.00148201,0.003232956,0.018407822,0,
00:01.8,0.001487732,0.003232956,0.018413544,0,
00:01.8,0.001487732,0.0032444,0.018424988,0,
00:01.8,0.001487732,0.003232956,0.018424988,0,
00:01.8,0.00148201,0.003227234,0.018413544,0,
00:01.8,0.001476288,0.003232956,0.018407822,0,
00:01.8,0.001476288,0.0032444,0.018407822,0,
00:01.8,0.00148201,0.003238678,0.018407822,0,
00:01.8,0.00148201,0.003227234,0.018413544,0,
00:01.8,0.001487732,0.003227234,0.018396378,0,
00:01.8,0.001487732,0.003232956,0.018396378,0,
00:01.8,0.00148201,0.003232956,0.018407822,0,
00:01.8,0.00148201,0.003238678,0.018413544,0,
00:01.8,0.001487732,0.0032444,0.018407822,0,
00:01.8,0.00148201,0.003250122,0.018390656,0,
00:01.8,0.001464844,0.003221512,0.0184021,0,
00:01.8,0.001476288,0.003227234,0.0184021,0,
00:01.8,0.001476288,0.003232956,0.018424988,0,
00:01.8,0.001476288,0.003238678,0.018407822,0,
00:01.8,0.001476288,0.003238678,0.0184021,0,
00:01.9,0.00148201,0.003232956,0.018407822,0,
00:01.9,0.001487732,0.003238678,0.018413544,0,
00:01.9,0.001487732,0.0032444,0.018413544,0,
00:01.9,0.001470566,0.003232956,0.018407822,0,
00:01.9,0.001464844,0.003227234,0.018407822,0,
00:01.9,0.001470566,0.003232956,0.0184021,0,
00:01.9,0.001487732,0.003238678,0.018407822,0,
00:01.9,0.00148201,0.0032444,0.018396378,0,
00:01.9,0.001476288,0.0032444,0.018390656,0,
00:01.9,0.00148201,0.003238678,0.018390656,0,
00:01.9,0.00148201,0.003232956,0.018396378,0,
00:01.9,0.00148201,0.003232956,0.018413544,0,
00:01.9,0.001470566,0.003238678,0.018407822,0,
00:01.9,0.001493454,0.003238678,0.0184021,0,
00:01.9,0.001487732,0.003232956,0.018407822,0,
00:01.9,0.00148201,0.003232956,0.018407822,0,
00:01.9,0.001476288,0.003238678,0.018390656,0,
00:01.9,0.001464844,0.003238678,0.018396378,0,
00:01.9,0.001476288,0.003238678,0.0184021,0,
00:01.9,0.001476288,0.0032444,0.018390656,0,
00:01.9,0.001464844,0.003227234,0.018407822,0,
00:01.9,0.001470566,0.003227234,0.0184021,0,
00:01.9,0.001476288,0.003232956,0.018390656,0,
00:01.9,0.001487732,0.003238678,0.018390656,0,
00:01.9,0.001476288,0.003232956,0.018390656,0,
00:02.0,0.001459122,0.003232956,0.018396378,0,
00:02.0,0.001464844,0.003238678,0.018384933,0,
00:02.0,0.00148201,0.003238678,0.018379211,0,
00:02.0,0.001487732,0.003232956,0.018379211,0,
00:02.0,0.00148201,0.003238678,0.018390656,0,
00:02.0,0.001476288,0.0032444,0.018384933,0,
00:02.0,0.00148201,0.003232956,0.018390656,0,
00:02.0,0.00148201,0.003238678,0.018373489,0,
00:02.0,0.001476288,0.003232956,0.018384933,0,
00:02.0,0.001470566,0.003238678,0.018396378,0,
00:02.0,0.001470566,0.003238678,0.018384933,0,
00:02.0,0.001470566,0.003232956,0.018384933,0,
00:00:02,0.001476288,0.003238678,0.018379211,0,
00:02.0,0.001464844,0.003238678,0.018390656,0,
00:02.0,0.001476288,0.003232956,0.018390656,0,
00:02.0,0.001476288,0.003232956,0.018384933,0,
00:02.0,0.001470566,0.003232956,0.018384933,0,
00:02.0,0.001476288,0.003238678,0.018384933,0,
00:02.0,0.001464844,0.003238678,0.018384933,0,
00:02.0,0.001464844,0.0032444,0.018373489,0,
00:02.0,0.001476288,0.003238678,0.018373489,0,
00:02.0,0.001470566,0.0032444,0.018373489,0,
00:02.0,0.001464844,0.0032444,0.018367767,0,
00:02.0,0.001464844,0.003232956,0.018384933,0,
00:02.0,0.00148201,0.003232956,0.018367767,0,
00:02.1,0.001493454,0.003238678,0.018362045,0,
00:02.1,0.00148201,0.003227234,0.0184021,0,
00:02.1,0.00148201,0.0032444,0.0184021,0,
00:02.1,0.001476288,0.0032444,0.018390656,0,
00:02.1,0.001464844,0.003238678,0.018379211,0,
00:02.1,0.001476288,0.003238678,0.018373489,0,
00:02.1,0.001476288,0.003238678,0.018379211,0,
00:02.1,0.001470566,0.0032444,0.018379211,0,
00:02.1,0.001470566,0.003238678,0.018373489,0,
00:02.1,0.001470566,0.003232956,0.018367767,0,
00:02.1,0.001476288,0.003232956,0.018367767,0,
00:02.1,0.001470566,0.0032444,0.018379211,0,
00:02.1,0.001470566,0.003250122,0.018373489,0,
00:02.1,0.001476288,0.0032444,0.018362045,0,
00:02.1,0.00148201,0.0032444,0.018362045,0,
00:02.1,0.0014534,0.003232956,0.018356323,0,
00:02.1,0.001459122,0.003232956,0.018356323,0,
00:02.1,0.001476288,0.003238678,0.018367767,0,
00:02.1,0.001464844,0.0032444,0.018367767,0,
00:02.1,0.001464844,0.003238678,0.018362045,0,
00:02.1,0.001476288,0.003232956,0.018350601,0,
00:02.1,0.00148201,0.0032444,0.018362045,0,
00:02.1,0.00148201,0.003250122,0.018356323,0,
00:02.1,0.001476288,0.003238678,0.018367767,0,
00:02.1,0.001470566,0.0032444,0.018367767,0,
00:02.2,0.001470566,0.003250122,0.018350601,0,
00:02.2,0.001459122,0.0032444,0.018362045,0,
00:02.2,0.001464844,0.003250122,0.018356323,0,
00:02.2,0.001470566,0.0032444,0.018367767,0,
00:02.2,0.00148201,0.0032444,0.018362045,0,
00:02.2,0.001476288,0.0032444,0.018350601,0,
00:02.2,0.001470566,0.003238678,0.018356323,0,
00:02.2,0.001470566,0.0032444,0.018350601,0,
00:02.2,0.001476288,0.003250122,0.018339157,0,
00:02.2,0.001470566,0.0032444,0.018350601,0,
00:02.2,0.001470566,0.0032444,0.018362045,0,
00:02.2,0.001459122,0.003250122,0.018350601,0,
00:02.2,0.0014534,0.003250122,0.018356323,0,
00:02.2,0.001459122,0.003250122,0.018356323,0,
00:02.2,0.001476288,0.003238678,0.018344879,0,
00:02.2,0.00148201,0.003250122,0.018356323,0,
00:02.2,0.001476288,0.003250122,0.018350601,0,
00:02.2,0.001464844,0.0032444,0.018362045,0,
00:02.2,0.001447678,0.0032444,0.018350601,0,
00:02.2,0.001470566,0.003255844,0.018344879,0,
00:02.2,0.001470566,0.003250122,0.018333435,0,
00:02.2,0.001464844,0.003250122,0.018344879,0,
00:02.2,0.001464844,0.003250122,0.018362045,0,
00:02.2,0.001464844,0.003250122,0.018344879,0,
00:02.2,0.001464844,0.0032444,0.018339157,0,
00:02.3,0.001470566,0.0032444,0.018356323,0,
00:02.3,0.001464844,0.003250122,0.018339157,0,
00:02.3,0.001464844,0.003250122,0.018339157,0,
00:02.3,0.001459122,0.003250122,0.018344879,0,
00:02.3,0.001464844,0.003255844,0.018327713,0,
00:02.3,0.001476288,0.003250122,0.018333435,0,
00:02.3,0.001476288,0.003255844,0.018344879,0,
00:02.3,0.001459122,0.003255844,0.018339157,0,
00:02.3,0.001470566,0.003255844,0.018333435,0,
00:02.3,0.001464844,0.003255844,0.018327713,0,
00:02.3,0.001470566,0.003250122,0.018321991,0,
00:02.3,0.00148201,0.003255844,0.018327713,0,
00:02.3,0.001470566,0.003250122,0.018339157,0,
00:02.3,0.001464844,0.003250122,0.018327713,0,
00:02.3,0.001459122,0.003250122,0.018321991,0,
00:02.3,0.001447678,0.003261566,0.018327713,0,
00:02.3,0.0014534,0.003255844,0.018339157,0,
00:02.3,0.001464844,0.003255844,0.018327713,0,
00:02.3,0.001464844,0.003255844,0.018327713,0,
00:02.3,0.001464844,0.003261566,0.018316269,0,
00:02.3,0.001459122,0.003250122,0.018327713,0,
00:02.3,0.001464844,0.0032444,0.018327713,0,
00:02.3,0.00148201,0.003261566,0.018304825,0,
00:02.3,0.001464844,0.003255844,0.018333435,0,
00:02.3,0.001464844,0.003250122,0.018344879,0,
00:02.4,0.001476288,0.003255844,0.018321991,0,
00:02.4,0.00148201,0.003261566,0.018310547,0,
00:02.4,0.001464844,0.003261566,0.018316269,0,
00:02.4,0.001447678,0.003255844,0.018333435,0,
00:02.4,0.0014534,0.003250122,0.018321991,0,
00:02.4,0.001476288,0.003250122,0.018321991,0,
00:02.4,0.001476288,0.003261566,0.018316269,0,
00:02.4,0.001470566,0.003255844,0.018316269,0,
00:02.4,0.001459122,0.003255844,0.018310547,0,
00:02.4,0.001464844,0.003255844,0.018310547,0,
00:02.4,0.001476288,0.003255844,0.018310547,0,
00:02.4,0.001464844,0.003255844,0.018321991,0,
00:02.4,0.0014534,0.003255844,0.018316269,0,
00:02.4,0.0014534,0.003255844,0.018310547,0,
00:02.4,0.001470566,0.003250122,0.018299103,0,
00:02.4,0.001459122,0.003255844,0.018304825,0,
00:02.4,0.001464844,0.003255844,0.018316269,0,
00:02.4,0.001487732,0.003261566,0.018304825,0,
00:02.4,0.001464844,0.003255844,0.018293381,0,
00:02.4,0.001476288,0.003255844,0.018304825,0,
00:02.4,0.001476288,0.003255844,0.018321991,0,
00:02.4,0.001459122,0.003255844,0.018304825,0,
00:02.4,0.001459122,0.003255844,0.018304825,0,
00:02.4,0.001459122,0.003255844,0.018304825,0,
00:02.4,0.001459122,0.003250122,0.018299103,0,
00:02.5,0.00148201,0.003255844,0.018281937,0,
00:02.5,0.001476288,0.003267288,0.018287659,0,
00:02.5,0.0014534,0.003261566,0.018281937,0,
00:02.5,0.0014534,0.003255844,0.018293381,0,
00:02.5,0.001459122,0.003255844,0.018310547,0,
00:02.5,0.001459122,0.003255844,0.018310547,0,
00:02.5,0.001470566,0.003255844,0.018304825,0,
00:02.5,0.001464844,0.003255844,0.018299103,0,
00:02.5,0.001470566,0.003255844,0.018293381,0,
00:02.5,0.001476288,0.003255844,0.018287659,0,
00:02.5,0.001464844,0.003255844,0.018293381,0,
00:02.5,0.001470566,0.003261566,0.018281937,0,
00:02.5,0.001459122,0.003261566,0.018276215,0,
00:02.5,0.001459122,0.003261566,0.018293381,0,
00:02.5,0.001470566,0.003261566,0.018293381,0,
00:02.5,0.001476288,0.003255844,0.018276215,0,
00:02.5,0.001470566,0.003261566,0.018259048,0,
00:02.5,0.001459122,0.003261566,0.018293381,0,
00:02.5,0.001464844,0.003255844,0.018270493,0,
00:02.5,0.001447678,0.003250122,0.018293381,0,
00:02.5,0.001459122,0.003255844,0.018293381,0,
00:02.5,0.001470566,0.003261566,0.018293381,0,
00:02.5,0.001470566,0.003261566,0.018287659,0,
00:02.5,0.001459122,0.003255844,0.018276215,0,
00:02.5,0.001459122,0.003255844,0.018287659,0,
00:02.6,0.001464844,0.003255844,0.018293381,0,
00:02.6,0.001464844,0.003250122,0.018276215,0,
00:02.6,0.001459122,0.003255844,0.018270493,0,
00:02.6,0.001464844,0.003255844,0.018264771,0,
00:02.6,0.0014534,0.003250122,0.018276215,0,
00:02.6,0.001464844,0.003255844,0.018264771,0,
00:02.6,0.001459122,0.003261566,0.018270493,0,
00:02.6,0.001447678,0.003261566,0.018270493,0,
00:02.6,0.001464844,0.003261566,0.018259048,0,
00:02.6,0.001470566,0.003255844,0.018259048,0,
00:02.6,0.001470566,0.003255844,0.018253326,0,
00:02.6,0.001476288,0.003267288,0.018270493,0,
00:02.6,0.001476288,0.003267288,0.018270493,0,
00:02.6,0.001470566,0.003261566,0.018253326,0,
00:02.6,0.001447678,0.003261566,0.018247604,0,
00:02.6,0.001447678,0.003255844,0.018247604,0,
00:02.6,0.001470566,0.003255844,0.018259048,0,
00:02.6,0.001459122,0.003267288,0.018253326,0,
00:02.6,0.0014534,0.003255844,0.018259048,0,
00:02.6,0.001470566,0.003250122,0.018276215,0,
00:02.6,0.001464844,0.003250122,0.018253326,0,
00:02.6,0.001459122,0.003255844,0.018259048,0,
00:02.6,0.001459122,0.003261566,0.018253326,0,
00:02.6,0.0014534,0.003255844,0.018253326,0,
00:02.6,0.0014534,0.003255844,0.018253326,0,
00:02.7,0.001464844,0.003261566,0.018241882,0,
00:02.7,0.001470566,0.003261566,0.01823616,0,
00:02.7,0.001476288,0.003261566,0.018241882,0,
00:02.7,0.001464844,0.003261566,0.018241882,0,
00:02.7,0.001441956,0.003255844,0.018241882,0,
00:02.7,0.001459122,0.003255844,0.018241882,0,
00:02.7,0.001464844,0.003267288,0.018247604,0,
00:02.7,0.001441956,0.003255844,0.018241882,0,
00:02.7,0.001441956,0.003261566,0.01823616,0,
00:02.7,0.001476288,0.003261566,0.018253326,0,
00:02.7,0.001470566,0.003267288,0.018241882,0,
00:02.7,0.001464844,0.003261566,0.018241882,0,
00:02.7,0.001464844,0.003255844,0.018241882,0,
00:02.7,0.001464844,0.003255844,0.018230438,0,
00:02.7,0.0014534,0.003255844,0.018247604,0,
00:02.7,0.001459122,0.003255844,0.018241882,0,
00:02.7,0.0014534,0.003255844,0.01823616,0,
00:02.7,0.001464844,0.003261566,0.018230438,0,
00:02.7,0.001459122,0.003261566,0.018230438,0,
00:02.7,0.001441956,0.003250122,0.018224716,0,
00:02.7,0.001447678,0.003250122,0.018241882,0,
00:02.7,0.001464844,0.003261566,0.018241882,0,
00:02.7,0.001459122,0.003261566,0.01823616,0,
00:02.7,0.001447678,0.003255844,0.018241882,0,
00:02.7,0.001470566,0.003255844,0.01823616,0,
00:02.8,0.001470566,0.003255844,0.018224716,0,
00:02.8,0.001464844,0.003255844,0.018224716,0,
00:02.8,0.001459122,0.003261566,0.01823616,0,
00:02.8,0.001459122,0.003261566,0.01823616,0,
00:02.8,0.001459122,0.003255844,0.01823616,0,
00:02.8,0.001459122,0.003261566,0.018230438,0,
00:02.8,0.0014534,0.003267288,0.018224716,0,
00:02.8,0.001464844,0.003255844,0.018230438,0,
00:02.8,0.001459122,0.003250122,0.018224716,0,
00:02.8,0.001459122,0.003255844,0.018218994,0,
00:02.8,0.001464844,0.003255844,0.018224716,0,
00:02.8,0.001459122,0.003261566,0.018230438,0,
00:02.8,0.0014534,0.003261566,0.01823616,0,
00:02.8,0.001459122,0.003261566,0.018230438,0,
00:02.8,0.001459122,0.003250122,0.018218994,0,
00:02.8,0.0014534,0.003255844,0.018218994,0,
00:02.8,0.001441956,0.003255844,0.018224716,0,
00:02.8,0.001447678,0.003267288,0.018230438,0,
00:02.8,0.001464844,0.003267288,0.018224716,0,
00:02.8,0.0014534,0.003261566,0.018218994,0,
00:02.8,0.001447678,0.003255844,0.018224716,0,
00:02.8,0.001464844,0.003255844,0.018230438,0,
00:02.8,0.001464844,0.003255844,0.018218994,0,
00:02.8,0.001464844,0.003255844,0.018218994,0,
00:02.8,0.001459122,0.003255844,0.018224716,0,
00:02.9,0.001447678,0.003255844,0.018218994,0,
00:02.9,0.001459122,0.003261566,0.018218994,0,
00:02.9,0.0014534,0.003261566,0.018218994,0,
00:02.9,0.001447678,0.003261566,0.018218994,0,
00:02.9,0.001459122,0.003255844,0.018201828,0,
00:02.9,0.001459122,0.003261566,0.018201828,0,
00:02.9,0.001459122,0.003261566,0.018213272,0,
00:02.9,0.0014534,0.003255844,0.018224716,0,
00:02.9,0.0014534,0.003255844,0.018230438,0,
00:02.9,0.001459122,0.003255844,0.018224716,0,
00:02.9,0.001464844,0.003255844,0.018218994,0,
00:02.9,0.001459122,0.003261566,0.018213272,0,
00:02.9,0.0014534,0.003267288,0.018184662,0,
00:02.9,0.001447678,0.003255844,0.018201828,0,
00:02.9,0.001447678,0.003255844,0.018230438,0,
00:02.9,0.001447678,0.003255844,0.018224716,0,
00:02.9,0.001430511,0.0032444,0.018218994,0,
00:02.9,0.001459122,0.003255844,0.01820755,0,
00:02.9,0.001464844,0.003261566,0.018213272,0,
00:02.9,0.001464844,0.003255844,0.018213272,0,
00:02.9,0.001464844,0.003261566,0.018213272,0,
00:02.9,0.001459122,0.003261566,0.01820755,0,
00:02.9,0.001447678,0.003250122,0.018201828,0,
00:02.9,0.001441956,0.003250122,0.018218994,0,
00:02.9,0.0014534,0.003250122,0.018213272,0,
00:03.0,0.0014534,0.003255844,0.018201828,0,
00:03.0,0.001459122,0.003255844,0.01820755,0,
00:03.0,0.001459122,0.003255844,0.018218994,0,
00:03.0,0.001447678,0.003250122,0.01820755,0,
00:03.0,0.001441956,0.0032444,0.018196106,0,
00:03.0,0.0014534,0.003261566,0.018201828,0,
00:03.0,0.0014534,0.003261566,0.01820755,0,
00:03.0,0.0014534,0.003250122,0.018224716,0,
00:03.0,0.0014534,0.0032444,0.018196106,0,
00:03.0,0.0014534,0.003250122,0.018196106,0,
00:03.0,0.001459122,0.003250122,0.018230438,0,
00:03.0,0.001447678,0.003255844,0.018230438,0,
00:00:03,0.001447678,0.003261566,0.018213272,0,
00:03.0,0.001436234,0.003250122,0.01820755,0,
00:03.0,0.001447678,0.003250122,0.018213272,0,
00:03.0,0.001459122,0.003255844,0.018201828,0,
00:03.0,0.001447678,0.003250122,0.018196106,0,
00:03.0,0.001424789,0.003250122,0.01820755,0,
00:03.0,0.001430511,0.003250122,0.018213272,0,
00:03.0,0.001459122,0.003250122,0.018196106,0,
00:03.0,0.001459122,0.003255844,0.018190384,0,
00:03.0,0.0014534,0.003255844,0.018196106,0,
00:03.0,0.001447678,0.003250122,0.018213272,0,
00:03.0,0.0014534,0.003250122,0.01820755,0,
00:03.0,0.001459122,0.003250122,0.01820755,0,
00:03.1,0.001459122,0.003250122,0.018196106,0,
00:03.1,0.001459122,0.003255844,0.018196106,0,
00:03.1,0.001441956,0.003255844,0.018196106,0,
00:03.1,0.001436234,0.003250122,0.018201828,0,
00:03.1,0.001441956,0.003250122,0.018196106,0,
00:03.1,0.001459122,0.003250122,0.018190384,0,
00:03.1,0.001459122,0.003250122,0.01820755,0,
00:03.1,0.001447678,0.003250122,0.01820755,0,
00:03.1,0.0014534,0.003255844,0.018201828,0,
00:03.1,0.0014534,0.003250122,0.018201828,0,
00:03.1,0.001447678,0.003250122,0.01820755,0,
00:03.1,0.0014534,0.003261566,0.01820755,0,
00:03.1,0.001441956,0.003250122,0.018201828,0,
00:03.1,0.001447678,0.003250122,0.018190384,0,
00:03.1,0.001459122,0.003238678,0.01820755,0,
00:03.1,0.001447678,0.0032444,0.018201828,0,
00:03.1,0.001447678,0.003250122,0.01820755,0,
00:03.1,0.001447678,0.003250122,0.018201828,0,
00:03.1,0.001441956,0.0032444,0.018201828,0,
00:03.1,0.001436234,0.003238678,0.018201828,0,
00:03.1,0.001447678,0.0032444,0.018196106,0,
00:03.1,0.001447678,0.003255844,0.018190384,0,
00:03.1,0.0014534,0.003261566,0.018196106,0,
00:03.1,0.001464844,0.003255844,0.018190384,0,
00:03.1,0.001459122,0.003238678,0.018190384,0,
00:03.2,0.0014534,0.0032444,0.018184662,0,
00:03.2,0.0014534,0.003250122,0.018201828,0,
00:03.2,0.0014534,0.003250122,0.01820755,0,
00:03.2,0.001441956,0.0032444,0.018196106,0,
00:03.2,0.001436234,0.003250122,0.018184662,0,
00:03.2,0.001447678,0.003250122,0.01820755,0,
00:03.2,0.001464844,0.003250122,0.018201828,0,
00:03.2,0.001447678,0.003250122,0.018201828,0,
00:03.2,0.001430511,0.0032444,0.018196106,0,
00:03.2,0.001441956,0.003250122,0.018196106,0,
00:03.2,0.001459122,0.0032444,0.018196106,0,
00:03.2,0.0014534,0.0032444,0.018196106,0,
00:03.2,0.001447678,0.003250122,0.018196106,0,
00:03.2,0.0014534,0.003250122,0.018196106,0,
00:03.2,0.001441956,0.003238678,0.018196106,0,
00:03.2,0.001447678,0.0032444,0.018184662,0,
00:03.2,0.0014534,0.003250122,0.01817894,0,
00:03.2,0.001447678,0.003250122,0.018184662,0,
00:03.2,0.001459122,0.0032444,0.018190384,0,
00:03.2,0.001447678,0.003238678,0.018190384,0,
00:03.2,0.001436234,0.003238678,0.018196106,0,
00:03.2,0.001430511,0.003238678,0.018190384,0,
00:03.2,0.0014534,0.0032444,0.018184662,0,
00:03.2,0.001459122,0.0032444,0.018196106,0,
00:03.2,0.0014534,0.0032444,0.01817894,0,
00:03.3,0.0014534,0.003238678,0.01817894,0,
00:03.3,0.001447678,0.003238678,0.018196106,0,
00:03.3,0.001436234,0.003238678,0.018190384,0,
00:03.3,0.0014534,0.003232956,0.018184662,0,
00:03.3,0.001464844,0.003238678,0.018184662,0,
00:03.3,0.0014534,0.0032444,0.01817894,0,
00:03.3,0.001447678,0.003238678,0.018184662,0,
00:03.3,0.001447678,0.0032444,0.018184662,0,
00:03.3,0.001447678,0.0032444,0.018184662,0,
00:03.3,0.001447678,0.003238678,0.018190384,0,
00:03.3,0.0014534,0.003232956,0.018184662,0,
00:03.3,0.0014534,0.003238678,0.018173218,0,
00:03.3,0.001447678,0.0032444,0.018184662,0,
00:03.3,0.001441956,0.003238678,0.018173218,0,
00:03.3,0.001441956,0.003232956,0.01817894,0,
00:03.3,0.001441956,0.003232956,0.018184662,0,
00:03.3,0.001441956,0.0032444,0.018173218,0,
00:03.3,0.001447678,0.0032444,0.018161774,0,
00:03.3,0.001441956,0.0032444,0.018173218,0,
00:03.3,0.001441956,0.003238678,0.018184662,0,
00:03.3,0.001447678,0.003227234,0.018190384,0,
00:03.3,0.001447678,0.003232956,0.018184662,0,
00:03.3,0.0014534,0.0032444,0.018167496,0,
00:03.3,0.001447678,0.0032444,0.018167496,0,
00:03.3,0.001436234,0.003227234,0.018167496,0,
00:03.4,0.001441956,0.003227234,0.018167496,0,
00:03.4,0.001459122,0.0032444,0.018161774,0,
00:03.4,0.001441956,0.0032444,0.018167496,0,
00:03.4,0.0014534,0.003238678,0.01817894,0,
00:03.4,0.001441956,0.003227234,0.018161774,0,
00:03.4,0.001436234,0.003232956,0.018161774,0,
00:03.4,0.001441956,0.003238678,0.018167496,0,
00:03.4,0.001447678,0.003238678,0.018173218,0,
00:03.4,0.001441956,0.003238678,0.018173218,0,
00:03.4,0.001447678,0.003232956,0.018173218,0,
00:03.4,0.0014534,0.003232956,0.018167496,0,
00:03.4,0.001447678,0.003232956,0.018184662,0,
00:03.4,0.001441956,0.003238678,0.018173218,0,
00:03.4,0.001441956,0.003238678,0.018156052,0,
00:03.4,0.001447678,0.003232956,0.01817894,0,
00:03.4,0.001447678,0.003232956,0.018184662,0,
00:03.4,0.001447678,0.003250122,0.018173218,0,
00:03.4,0.001436234,0.003238678,0.018156052,0,
00:03.4,0.001430511,0.0032444,0.018167496,0,
00:03.4,0.001436234,0.003232956,0.018167496,0,
00:03.4,0.001447678,0.003227234,0.018167496,0,
00:03.4,0.0014534,0.003238678,0.018156052,0,
00:03.4,0.001447678,0.003238678,0.018184662,0,
00:03.4,0.001441956,0.003232956,0.01817894,0,
00:03.4,0.001441956,0.003232956,0.018167496,0,
00:03.5,0.001441956,0.003232956,0.018167496,0,
00:03.5,0.001436234,0.003232956,0.018161774,0,
00:03.5,0.001424789,0.003232956,0.018167496,0,
00:03.5,0.001436234,0.003232956,0.018167496,0,
00:03.5,0.001447678,0.003232956,0.018161774,0,
00:03.5,0.001436234,0.003232956,0.018173218,0,
00:03.5,0.001436234,0.003238678,0.018167496,0,
00:03.5,0.001441956,0.003232956,0.018173218,0,
00:03.5,0.001436234,0.003232956,0.018167496,0,
00:03.5,0.001430511,0.003227234,0.018156052,0,
00:03.5,0.001459122,0.003227234,0.018161774,0,
00:03.5,0.0014534,0.003238678,0.018167496,0,
00:03.5,0.001447678,0.003238678,0.018167496,0,
00:03.5,0.001436234,0.003238678,0.018156052,0,
00:03.5,0.001430511,0.003232956,0.018133163,0,
00:03.5,0.001430511,0.003227234,0.018138885,0,
00:03.5,0.001447678,0.003227234,0.018173218,0,
00:03.5,0.001436234,0.003227234,0.01817894,0,
00:03.5,0.001447678,0.003232956,0.018167496,0,
00:03.5,0.001436234,0.003227234,0.018161774,0,
00:03.5,0.001436234,0.003232956,0.018167496,0,
00:03.5,0.001436234,0.003232956,0.018161774,0,
00:03.5,0.001430511,0.003232956,0.01815033,0,
00:03.5,0.001430511,0.003232956,0.018161774,0,
00:03.5,0.001436234,0.003227234,0.018156052,0,
00:03.6,0.001441956,0.003221512,0.018156052,0,
00:03.6,0.001441956,0.003232956,0.018167496,0,
00:03.6,0.001430511,0.003238678,0.018167496,0,
00:03.6,0.001424789,0.003232956,0.01815033,0,
00:03.6,0.001447678,0.003232956,0.018144608,0,
00:03.6,0.001447678,0.003232956,0.01815033,0,
00:03.6,0.001436234,0.003232956,0.018167496,0,
00:03.6,0.001436234,0.003238678,0.018156052,0,
00:03.6,0.001441956,0.003238678,0.018161774,0,
00:03.6,0.001436234,0.003221512,0.018161774,0,
00:03.6,0.001436234,0.003227234,0.018161774,0,
00:03.6,0.001436234,0.003232956,0.01815033,0,
00:03.6,0.001441956,0.003232956,0.018127441,0,
00:03.6,0.001430511,0.003227234,0.01815033,0,
00:03.6,0.001436234,0.003221512,0.018167496,0,
00:03.6,0.001441956,0.00321579,0.018156052,0,
00:03.6,0.001436234,0.003221512,0.01815033,0,
00:03.6,0.001436234,0.003238678,0.018156052,0,
00:03.6,0.001441956,0.003232956,0.01815033,0,
00:03.6,0.001441956,0.003227234,0.01815033,0,
00:03.6,0.001436234,0.003221512,0.018167496,0,
00:03.6,0.001424789,0.003221512,0.018161774,0,
00:03.6,0.001430511,0.003227234,0.018156052,0,
00:03.6,0.001430511,0.003227234,0.018156052,0,
00:03.6,0.001424789,0.003227234,0.01815033,0,
00:03.7,0.001436234,0.003232956,0.018144608,0,
00:03.7,0.001447678,0.003232956,0.018138885,0,
00:03.7,0.001436234,0.003227234,0.01815033,0,
00:03.7,0.001436234,0.003227234,0.018144608,0,
00:03.7,0.001441956,0.003221512,0.018156052,0,
00:03.7,0.001424789,0.003221512,0.01815033,0,
00:03.7,0.001430511,0.003227234,0.018144608,0,
00:03.7,0.001424789,0.003221512,0.018144608,0,
00:03.7,0.001424789,0.003221512,0.018144608,0,
00:03.7,0.001441956,0.00321579,0.01815033,0,
00:03.7,0.001441956,0.003227234,0.01815033,0,
00:03.7,0.001436234,0.003227234,0.018133163,0,
00:03.7,0.001436234,0.003232956,0.018138885,0,
00:03.7,0.001441956,0.003221512,0.01815033,0,
00:03.7,0.001441956,0.003221512,0.018156052,0,
00:03.7,0.001441956,0.003227234,0.018144608,0,
00:03.7,0.001424789,0.003227234,0.01815033,0,
00:03.7,0.001419067,0.003221512,0.018156052,0,
00:03.7,0.001430511,0.003227234,0.01815033,0,
00:03.7,0.001430511,0.003227234,0.01815033,0,
00:03.7,0.001424789,0.003221512,0.01815033,0,
00:03.7,0.001413345,0.00321579,0.01815033,0,
00:03.7,0.001424789,0.003221512,0.01815033,0,
00:03.7,0.001430511,0.003227234,0.018138885,0,
00:03.7,0.001430511,0.003221512,0.018138885,0,
00:03.8,0.001430511,0.003221512,0.018144608,0,
00:03.8,0.001436234,0.00321579,0.01815033,0,
00:03.8,0.001430511,0.003227234,0.018138885,0,
00:03.8,0.001419067,0.003221512,0.018144608,0,
00:03.8,0.001424789,0.003221512,0.018133163,0,
00:03.8,0.001419067,0.003221512,0.018133163,0,
00:03.8,0.001430511,0.003221512,0.018161774,0,
00:03.8,0.001430511,0.003227234,0.018167496,0,
00:03.8,0.001436234,0.003221512,0.018144608,0,
00:03.8,0.001436234,0.003221512,0.018144608,0,
00:03.8,0.001436234,0.003221512,0.01815033,0,
00:03.8,0.001424789,0.003221512,0.018144608,0,
00:03.8,0.001424789,0.003227234,0.01815033,0,
00:03.8,0.001419067,0.003221512,0.018144608,0,
00:03.8,0.001419067,0.00321579,0.01815033,0,
00:03.8,0.001430511,0.00321579,0.018138885,0,
00:03.8,0.001430511,0.003227234,0.018144608,0,
00:03.8,0.001430511,0.003227234,0.018133163,0,
00:03.8,0.001430511,0.003227234,0.018138885,0,
00:03.8,0.001424789,0.003221512,0.018144608,0,
00:03.8,0.001430511,0.003221512,0.018133163,0,
00:03.8,0.001441956,0.003221512,0.018144608,0,
00:03.8,0.001430511,0.003227234,0.01815033,0,
00:03.8,0.001413345,0.003210068,0.018144608,0,
00:03.8,0.001430511,0.003210068,0.018144608,0,
00:03.9,0.001430511,0.003221512,0.018138885,0,
00:03.9,0.001430511,0.00321579,0.01815033,0,
00:03.9,0.001424789,0.003221512,0.018161774,0,
00:03.9,0.001413345,0.003221512,0.018144608,0,
00:03.9,0.001419067,0.00321579,0.018133163,0,
00:03.9,0.001419067,0.00321579,0.018138885,0,
00:03.9,0.001419067,0.003221512,0.018133163,0,
00:03.9,0.001436234,0.003221512,0.018133163,0,
00:03.9,0.001436234,0.003221512,0.018127441,0,
00:03.9,0.001436234,0.003221512,0.01815033,0,
00:03.9,0.001441956,0.00321579,0.01815033,0,
00:03.9,0.001436234,0.003221512,0.018133163,0,
00:03.9,0.001430511,0.003221512,0.018115997,0,
00:03.9,0.001419067,0.00321579,0.018121719,0,
00:03.9,0.001424789,0.00321579,0.018144608,0,
00:03.9,0.001430511,0.00321579,0.018133163,0,
00:03.9,0.001430511,0.003210068,0.018144608,0,
00:03.9,0.001419067,0.00321579,0.018138885,0,
00:03.9,0.001419067,0.00321579,0.018138885,0,
00:03.9,0.001430511,0.003210068,0.018138885,0,
00:03.9,0.001430511,0.003210068,0.018121719,0,
00:03.9,0.001430511,0.003221512,0.018127441,0,
00:03.9,0.001424789,0.003227234,0.018121719,0,
00:03.9,0.001419067,0.00321579,0.018133163,0,
00:03.9,0.001424789,0.003204346,0.018138885,0,
00:04.0,0.001436234,0.003204346,0.018127441,0,
00:04.0,0.001430511,0.00321579,0.018133163,0,
00:04.0,0.001430511,0.003221512,0.018133163,0,
00:04.0,0.001424789,0.00321579,0.018115997,0,
00:04.0,0.001419067,0.003204346,0.018127441,0,
00:04.0,0.001419067,0.003210068,0.018133163,0,
00:04.0,0.001419067,0.003210068,0.018133163,0,
00:04.0,0.001436234,0.003210068,0.018144608,0,
00:04.0,0.001436234,0.003210068,0.018138885,0,
00:04.0,0.001441956,0.003210068,0.018144608,0,
00:04.0,0.001430511,0.003210068,0.018138885,0,
00:04.0,0.001430511,0.00321579,0.018133163,0,
00:00:04,0.001419067,0.003210068,0.018133163,0,
00:04.0,0.001419067,0.003210068,0.018121719,0,
00:04.0,0.001436234,0.003204346,0.018121719,0,
00:04.0,0.001430511,0.003210068,0.018133163,0,
00:04.0,0.001419067,0.003210068,0.018133163,0,
00:04.0,0.001419067,0.003210068,0.018127441,0,
00:04.0,0.001424789,0.003204346,0.018127441,0,
00:04.0,0.001430511,0.003204346,0.018121719,0,
00:04.0,0.001430511,0.003204346,0.018121719,0,
00:04.0,0.001424789,0.00321579,0.018110275,0,
00:04.0,0.001424789,0.00321579,0.018110275,0,
00:04.0,0.001419067,0.00321579,0.018127441,0,
00:04.0,0.001430511,0.003210068,0.018115997,0,
00:04.1,0.001436234,0.003204346,0.018138885,0,
00:04.1,0.001430511,0.003210068,0.018138885,0,
00:04.1,0.001419067,0.003204346,0.018133163,0,
00:04.1,0.001413345,0.003204346,0.018138885,0,
00:04.1,0.001419067,0.003204346,0.018127441,0,
00:04.1,0.001424789,0.003204346,0.018138885,0,
00:04.1,0.001430511,0.003210068,0.018133163,0,
00:04.1,0.001419067,0.003210068,0.018133163,0,
00:04.1,0.001407623,0.003204346,0.018133163,0,
00:04.1,0.001419067,0.003198624,0.018133163,0,
00:04.1,0.001430511,0.003204346,0.018133163,0,
00:04.1,0.001436234,0.00321579,0.018121719,0,
00:04.1,0.001436234,0.00321579,0.018115997,0,
00:04.1,0.001424789,0.003204346,0.018121719,0,
00:04.1,0.001419067,0.003204346,0.018127441,0,
00:04.1,0.001413345,0.003204346,0.018133163,0,
00:04.1,0.001413345,0.003210068,0.018121719,0,
00:04.1,0.001430511,0.003210068,0.018138885,0,
00:04.1,0.001424789,0.003198624,0.018133163,0,
00:04.1,0.001430511,0.003198624,0.018138885,0,
00:04.1,0.001436234,0.003204346,0.018138885,0,
00:04.1,0.001424789,0.003204346,0.018127441,0,
00:04.1,0.001424789,0.003210068,0.018127441,0,
00:04.1,0.001419067,0.003204346,0.018127441,0,
00:04.1,0.001413345,0.003204346,0.018127441,0,
00:04.2,0.001419067,0.003198624,0.018133163,0,
00:04.2,0.001419067,0.003204346,0.018121719,0,
00:04.2,0.001419067,0.003204346,0.018133163,0,
00:04.2,0.001424789,0.003198624,0.018121719,0,
00:04.2,0.001430511,0.003198624,0.018127441,0,
00:04.2,0.001424789,0.003204346,0.018127441,0,
00:04.2,0.001407623,0.003198624,0.018133163,0,
00:04.2,0.001419067,0.003204346,0.018138885,0,
00:04.2,0.001424789,0.00321579,0.018133163,0,
00:04.2,0.001430511,0.003198624,0.018121719,0,
00:04.2,0.001436234,0.003192902,0.018121719,0,
00:04.2,0.001424789,0.003198624,0.018133163,0,
00:04.2,0.001419067,0.003210068,0.018138885,0,
00:04.2,0.001401901,0.003192902,0.018138885,0,
00:04.2,0.001413345,0.00318718,0.018138885,0,
00:04.2,0.001424789,0.003204346,0.018121719,0,
00:04.2,0.001419067,0.003204346,0.018127441,0,
00:04.2,0.001430511,0.003204346,0.018127441,0,
00:04.2,0.001424789,0.003192902,0.018127441,0,
00:04.2,0.001419067,0.003192902,0.018133163,0,
00:04.2,0.001419067,0.003198624,0.018133163,0,
00:04.2,0.001424789,0.003198624,0.018133163,0,
00:04.2,0.001436234,0.003198624,0.018127441,0,
00:04.2,0.001419067,0.003198624,0.018127441,0,
00:04.2,0.001419067,0.003198624,0.018127441,0,
00:04.3,0.001407623,0.003192902,0.018121719,0,
00:04.3,0.001419067,0.003198624,0.018133163,0,
00:04.3,0.001424789,0.003198624,0.018127441,0,
00:04.3,0.001424789,0.003198624,0.018138885,0,
00:04.3,0.001413345,0.003192902,0.018138885,0,
00:04.3,0.001413345,0.00318718,0.018138885,0,
00:04.3,0.001419067,0.003192902,0.018127441,0,
00:04.3,0.001407623,0.003204346,0.018127441,0,
00:04.3,0.001430511,0.00321579,0.018121719,0,
00:04.3,0.001436234,0.003204346,0.018127441,0,
00:04.3,0.001419067,0.003181458,0.018115997,0,
00:04.3,0.001407623,0.003192902,0.018110275,0,
00:04.3,0.001407623,0.003198624,0.018127441,0,
00:04.3,0.001430511,0.003192902,0.018133163,0,
00:04.3,0.001430511,0.003192902,0.018133163,0,
00:04.3,0.001419067,0.003192902,0.018121719,0,
00:04.3,0.001401901,0.003192902,0.018127441,0,
00:04.3,0.001407623,0.003198624,0.018121719,0,
00:04.3,0.001419067,0.003192902,0.018127441,0,
00:04.3,0.001419067,0.003192902,0.018127441,0,
00:04.3,0.001424789,0.003192902,0.018127441,0,
00:04.3,0.001424789,0.003198624,0.018115997,0,
00:04.3,0.001413345,0.003198624,0.018121719,0,
00:04.3,0.001407623,0.003198624,0.018115997,0,
00:04.3,0.001424789,0.003192902,0.018115997,0,
00:04.4,0.001436234,0.00318718,0.018110275,0,
00:04.4,0.001413345,0.003198624,0.018133163,0,
00:04.4,0.001419067,0.003192902,0.018121719,0,
00:04.4,0.001419067,0.003192902,0.018121719,0,
00:04.4,0.001407623,0.00318718,0.018121719,0,
00:04.4,0.001407623,0.003198624,0.018133163,0,
00:04.4,0.001419067,0.003198624,0.018121719,0,
00:04.4,0.001419067,0.003192902,0.018127441,0,
00:04.4,0.001419067,0.003192902,0.018121719,0,
00:04.4,0.001419067,0.00318718,0.018115997,0,
00:04.4,0.001419067,0.003192902,0.018121719,0,
00:04.4,0.001413345,0.003198624,0.018127441,0,
00:04.4,0.001401901,0.003204346,0.018115997,0,
00:04.4,0.001401901,0.003192902,0.018115997,0,
00:04.4,0.001424789,0.00318718,0.018115997,0,
00:04.4,0.001413345,0.00318718,0.018121719,0,
00:04.4,0.001419067,0.003198624,0.018110275,0,
00:04.4,0.001407623,0.003204346,0.018098831,0,
00:04.4,0.001390457,0.003198624,0.018133163,0,
00:04.4,0.001424789,0.00318718,0.018138885,0,
00:04.4,0.001436234,0.00318718,0.018121719,0,
00:04.4,0.001419067,0.003192902,0.018127441,0,
00:04.4,0.001407623,0.00318718,0.018138885,0,
00:04.4,0.001424789,0.00318718,0.018127441,0,
00:04.4,0.001413345,0.00318718,0.018121719,0,
00:04.5,0.001401901,0.003192902,0.018133163,0,
00:04.5,0.001407623,0.003192902,0.018127441,0,
00:04.5,0.001413345,0.00318718,0.018127441,0,
00:04.5,0.001407623,0.00318718,0.018121719,0,
00:04.5,0.001407623,0.003192902,0.018121719,0,
00:04.5,0.001419067,0.00318718,0.018115997,0,
00:04.5,0.001407623,0.003192902,0.018110275,0,
00:04.5,0.001407623,0.003198624,0.018110275,0,
00:04.5,0.001413345,0.003181458,0.018115997,0,
00:04.5,0.001419067,0.003181458,0.018144608,0,
00:04.5,0.001413345,0.00318718,0.018133163,0,
00:04.5,0.001413345,0.003198624,0.018121719,0,
00:04.5,0.001407623,0.003192902,0.018115997,0,
00:04.5,0.001401901,0.003181458,0.018133163,0,
00:04.5,0.001413345,0.00318718,0.018138885,0,
00:04.5,0.001401901,0.00318718,0.018127441,0,
00:04.5,0.001419067,0.00318718,0.018115997,0,
00:04.5,0.001413345,0.003181458,0.018127441,0,
00:04.5,0.001401901,0.003181458,0.018133163,0,
00:04.5,0.001401901,0.003181458,0.018127441,0,
00:04.5,0.001419067,0.00318718,0.018121719,0,
00:04.5,0.001413345,0.00318718,0.018115997,0,
00:04.5,0.001413345,0.003198624,0.018121719,0,
00:04.5,0.001419067,0.003192902,0.018121719,0,
00:04.5,0.001401901,0.003181458,0.018121719,0,
00:04.6,0.001413345,0.00318718,0.018115997,0,
00:04.6,0.001413345,0.003192902,0.018104553,0,
00:04.6,0.001407623,0.003181458,0.018121719,0,
00:04.6,0.001401901,0.003170013,0.018144608,0,
00:04.6,0.001407623,0.00318718,0.018133163,0,
00:04.6,0.001413345,0.00318718,0.018121719,0,
00:04.6,0.001407623,0.003181458,0.018121719,0,
00:04.6,0.001413345,0.003181458,0.018121719,0,
00:04.6,0.001407623,0.003181458,0.018121719,0,
00:04.6,0.001413345,0.003181458,0.018127441,0,
00:04.6,0.001419067,0.003181458,0.018133163,0,
00:04.6,0.001413345,0.00318718,0.018121719,0,
00:04.6,0.001407623,0.00318718,0.018115997,0,
00:04.6,0.001407623,0.003181458,0.018115997,0,
00:04.6,0.001407623,0.003181458,0.018121719,0,
00:04.6,0.001401901,0.003181458,0.018133163,0,
00:04.6,0.001407623,0.003192902,0.018133163,0,
00:04.6,0.001407623,0.00318718,0.018121719,0,
00:04.6,0.001401901,0.00318718,0.018121719,0,
00:04.6,0.001407623,0.00318718,0.018121719,0,
00:04.6,0.001396179,0.003181458,0.018127441,0,
00:04.6,0.001407623,0.003181458,0.018133163,0,
00:04.6,0.001419067,0.003181458,0.018133163,0,
00:04.6,0.001413345,0.003175735,0.018121719,0,
00:04.6,0.001407623,0.003175735,0.018127441,0,
00:04.7,0.001401901,0.003181458,0.018127441,0,
00:04.7,0.001419067,0.003181458,0.018127441,0,
00:04.7,0.001413345,0.003181458,0.018121719,0,
00:04.7,0.001407623,0.003181458,0.018110275,0,
00:04.7,0.001413345,0.003181458,0.018121719,0,
00:04.7,0.001407623,0.003181458,0.018121719,0,
00:04.7,0.001413345,0.003175735,0.018127441,0,
00:04.7,0.001396179,0.003175735,0.018127441,0,
00:04.7,0.001401901,0.003192902,0.018138885,0,
00:04.7,0.001401901,0.003175735,0.018121719,0,
00:04.7,0.001407623,0.003164291,0.018121719,0,
00:04.7,0.001401901,0.003175735,0.018110275,0,
00:04.7,0.001407623,0.003181458,0.018115997,0,
00:04.7,0.001407623,0.003175735,0.018127441,0,
00:04.7,0.001401901,0.003175735,0.018133163,0,
00:04.7,0.001413345,0.003175735,0.018127441,0,
00:04.7,0.001407623,0.003181458,0.018127441,0,
00:04.7,0.001401901,0.003181458,0.018121719,0,
00:04.7,0.001413345,0.003175735,0.018121719,0,
00:04.7,0.001407623,0.003170013,0.018110275,0,
00:04.7,0.001413345,0.003170013,0.018104553,0,
00:04.7,0.001407623,0.003175735,0.018133163,0,
00:04.7,0.001401901,0.003175735,0.018127441,0,
00:04.7,0.001407623,0.003175735,0.018133163,0,
00:04.7,0.001413345,0.003175735,0.018127441,0,
00:04.8,0.001413345,0.003175735,0.018115997,0,
00:04.8,0.001413345,0.003181458,0.018115997,0,
00:04.8,0.001407623,0.003175735,0.018121719,0,
00:04.8,0.001396179,0.003170013,0.018115997,0,
00:04.8,0.001396179,0.003181458,0.018115997,0,
00:04.8,0.001401901,0.003181458,0.018110275,0,
00:04.8,0.001390457,0.003170013,0.018115997,0,
00:04.8,0.001407623,0.003170013,0.018115997,0,
00:04.8,0.001419067,0.003164291,0.018110275,0,
00:04.8,0.001401901,0.003175735,0.018098831,0,
00:04.8,0.001419067,0.003170013,0.018087387,0,
00:04.8,0.001413345,0.003170013,0.018110275,0,
00:04.8,0.001396179,0.003170013,0.018127441,0,
00:04.8,0.001401901,0.003170013,0.018127441,0,
00:04.8,0.001407623,0.003170013,0.018127441,0,
00:04.8,0.001413345,0.003175735,0.018115997,0,
00:04.8,0.001407623,0.003175735,0.018115997,0,
00:04.8,0.001396179,0.003175735,0.018115997,0,
00:04.8,0.001396179,0.003170013,0.018127441,0,
00:04.8,0.001396179,0.003170013,0.018127441,0,
00:04.8,0.001401901,0.003170013,0.018121719,0,
00:04.8,0.001407623,0.003170013,0.018110275,0,
00:04.8,0.001396179,0.003170013,0.018110275,0,
00:04.8,0.001390457,0.003164291,0.018115997,0,
00:04.8,0.001407623,0.003170013,0.018098831,0,
00:04.9,0.001401901,0.003175735,0.018115997,0,
00:04.9,0.001401901,0.003175735,0.018115997,0,
00:04.9,0.001401901,0.003170013,0.018110275,0,
00:04.9,0.001396179,0.003175735,0.018093109,0,
00:04.9,0.001401901,0.003164291,0.018098831,0,
00:04.9,0.001401901,0.003164291,0.018121719,0,
00:04.9,0.001396179,0.003170013,0.018110275,0,
00:04.9,0.001390457,0.003164291,0.018110275,0,
00:04.9,0.001401901,0.003170013,0.018104553,0,
00:04.9,0.001407623,0.003164291,0.018115997,0,
00:04.9,0.001401901,0.003164291,0.018115997,0,
00:04.9,0.001390457,0.003175735,0.018093109,0,
00:04.9,0.001390457,0.003175735,0.018093109,0,
00:04.9,0.001407623,0.003158569,0.018121719,0,
00:04.9,0.001419067,0.003158569,0.018121719,0,
00:04.9,0.001407623,0.003170013,0.018115997,0,
00:04.9,0.001407623,0.003175735,0.018110275,0,
00:04.9,0.001401901,0.003175735,0.018110275,0,
00:04.9,0.001401901,0.003164291,0.018110275,0,
00:04.9,0.001413345,0.003164291,0.018098831,0,
00:04.9,0.001401901,0.003164291,0.018098831,0,
00:04.9,0.001390457,0.003164291,0.018110275,0,
00:04.9,0.001384735,0.003170013,0.018104553,0,
00:04.9,0.001407623,0.003170013,0.018098831,0,
00:04.9,0.001413345,0.003164291,0.018087387,0,
00:05.0,0.001401901,0.003158569,0.018098831,0,
00:05.0,0.001396179,0.003170013,0.018115997,0,
00:05.0,0.001384735,0.003164291,0.018115997,0,
00:05.0,0.001384735,0.003164291,0.018104553,0,
00:05.0,0.001401901,0.003158569,0.018098831,0,
00:05.0,0.001413345,0.003158569,0.018104553,0,
00:05.0,0.001407623,0.003164291,0.018104553,0,
00:05.0,0.001401901,0.003170013,0.018104553,0,
00:05.0,0.001401901,0.003164291,0.018104553,0,
00:05.0,0.001390457,0.003152847,0.018110275,0,
00:05.0,0.001390457,0.003158569,0.018104553,0,
00:05.0,0.001401901,0.003170013,0.018098831,0,
00:00:05,0.001396179,0.003170013,0.018098831,0,
00:05.0,0.001396179,0.003170013,0.018087387,0,
00:05.0,0.001396179,0.003158569,0.018087387,0,
00:05.0,0.001401901,0.003152847,0.018098831,0,
00:05.0,0.001396179,0.003170013,0.018098831,0,
00:05.0,0.001384735,0.003164291,0.018093109,0,
00:05.0,0.001407623,0.003158569,0.018115997,0,
00:05.0,0.001401901,0.003152847,0.018104553,0,
00:05.0,0.001396179,0.003158569,0.018104553,0,
00:05.0,0.001390457,0.003158569,0.018098831,0,
00:05.0,0.001401901,0.003164291,0.018110275,0,
00:05.0,0.001396179,0.003164291,0.018104553,0,
00:05.0,0.001401901,0.003158569,0.018098831,0,
00:05.1,0.001401901,0.003152847,0.018093109,0,
00:05.1,0.001390457,0.003158569,0.018093109,0,
00:05.1,0.001390457,0.003158569,0.018093109,0,
00:05.1,0.001390457,0.003164291,0.018093109,0,
00:05.1,0.001384735,0.003147125,0.018093109,0,
00:05.1,0.001396179,0.003152847,0.018093109,0,
00:05.1,0.001396179,0.003164291,0.018093109,0,
00:05.1,0.001396179,0.003158569,0.018093109,0,
00:05.1,0.001401901,0.003152847,0.018087387,0,
00:05.1,0.001401901,0.003158569,0.018070221,0,
00:05.1,0.001384735,0.003158569,0.018081665,0,
00:05.1,0.001390457,0.003164291,0.018098831,0,
00:05.1,0.001413345,0.003147125,0.018115997,0,
00:05.1,0.001413345,0.003152847,0.018098831,0,
00:05.1,0.001390457,0.003158569,0.018098831,0,
00:05.1,0.001390457,0.003147125,0.018087387,0,
00:05.1,0.001396179,0.003152847,0.018087387,0,
00:05.1,0.001390457,0.003158569,0.018093109,0,
00:05.1,0.001407623,0.003147125,0.018098831,0,
00:05.1,0.001401901,0.003147125,0.018093109,0,
00:05.1,0.001401901,0.003152847,0.018104553,0,
00:05.1,0.001396179,0.003158569,0.018093109,0,
00:05.1,0.001384735,0.003158569,0.018087387,0,
00:05.1,0.001390457,0.003152847,0.018093109,0,
00:05.1,0.001396179,0.003147125,0.018087387,0,
00:05.2,0.001396179,0.003152847,0.018093109,0,
00:05.2,0.001390457,0.003158569,0.018081665,0,
00:05.2,0.001396179,0.003158569,0.018087387,0,
00:05.2,0.001390457,0.003147125,0.018075943,0,
00:05.2,0.001373291,0.003152847,0.018081665,0,
00:05.2,0.001390457,0.003152847,0.018087387,0,
00:05.2,0.001413345,0.003147125,0.018098831,0,
00:05.2,0.001390457,0.003147125,0.018098831,0,
00:05.2,0.001401901,0.003152847,0.018081665,0,
00:05.2,0.001401901,0.003147125,0.018081665,0,
00:05.2,0.001384735,0.003152847,0.018093109,0,
00:05.2,0.001373291,0.003147125,0.018087387,0,
00:05.2,0.001379013,0.003152847,0.018087387,0,
00:05.2,0.001401901,0.003147125,0.018087387,0,
00:05.2,0.001413345,0.003152847,0.018093109,0,
00:05.2,0.001396179,0.003147125,0.018087387,0,
00:05.2,0.001384735,0.003147125,0.018093109,0,
00:05.2,0.001384735,0.003147125,0.018087387,0,
00:05.2,0.001384735,0.003147125,0.018081665,0,
00:05.2,0.001401901,0.003147125,0.018070221,0,
00:05.2,0.001390457,0.003158569,0.018070221,0,
00:05.2,0.001396179,0.003158569,0.018087387,0,
00:05.2,0.001401901,0.003158569,0.018087387,0,
00:05.2,0.001390457,0.003141403,0.018087387,0,
00:05.2,0.001390457,0.003141403,0.018093109,0,
00:05.3,0.001384735,0.003147125,0.018087387,0,
00:05.3,0.001396179,0.003147125,0.018087387,0,
00:05.3,0.001401901,0.003147125,0.018093109,0,
00:05.3,0.001384735,0.003147125,0.018075943,0,
00:05.3,0.001390457,0.003152847,0.018081665,0,
00:05.3,0.001401901,0.003147125,0.018087387,0,
00:05.3,0.001396179,0.003147125,0.018081665,0,
00:05.3,0.001390457,0.003147125,0.018075943,0,
00:05.3,0.001379013,0.003141403,0.018087387,0,
00:05.3,0.001367569,0.003141403,0.018081665,0,
00:05.3,0.001407623,0.003141403,0.018081665,0,
00:05.3,0.001413345,0.003147125,0.018070221,0,
00:05.3,0.001396179,0.003147125,0.018058777,0,
00:05.3,0.001384735,0.003147125,0.018075943,0,
00:05.3,0.001390457,0.003141403,0.018075943,0,
00:05.3,0.001384735,0.003141403,0.018075943,0,
00:05.3,0.001390457,0.003152847,0.018075943,0,
00:05.3,0.001390457,0.003152847,0.018064499,0,
00:05.3,0.001390457,0.003141403,0.018075943,0,
00:05.3,0.001401901,0.003141403,0.018087387,0,
00:05.3,0.001396179,0.003147125,0.018070221,0,
00:05.3,0.001390457,0.003152847,0.018058777,0,
00:05.3,0.001384735,0.003147125,0.018064499,0,
00:05.3,0.001384735,0.003141403,0.018075943,0,
00:05.3,0.001384735,0.003141403,0.018081665,0,
00:05.4,0.001384735,0.003147125,0.018070221,0,
00:05.4,0.001407623,0.003147125,0.018075943,0,
00:05.4,0.001384735,0.003147125,0.018070221,0,
00:05.4,0.001373291,0.003147125,0.018070221,0,
00:05.4,0.001396179,0.003135681,0.018070221,0,
00:05.4,0.001401901,0.003141403,0.018064499,0,
00:05.4,0.001390457,0.003141403,0.018070221,0,
00:05.4,0.001379013,0.003135681,0.018075943,0,
00:05.4,0.001390457,0.003135681,0.018070221,0,
00:05.4,0.001384735,0.003141403,0.018070221,0,
00:05.4,0.001384735,0.003152847,0.018070221,0,
00:05.4,0.001384735,0.003141403,0.018058777,0,
00:05.4,0.001396179,0.003135681,0.018053055,0,
00:05.4,0.001401901,0.003135681,0.018053055,0,
00:05.4,0.001390457,0.003135681,0.018064499,0,
00:05.4,0.001379013,0.003135681,0.018064499,0,
00:05.4,0.001367569,0.003135681,0.018064499,0,
00:05.4,0.001396179,0.003141403,0.018070221,0,
00:05.4,0.001401901,0.003141403,0.018058777,0,
00:05.4,0.001390457,0.003141403,0.018053055,0,
00:05.4,0.001396179,0.003135681,0.018058777,0,
00:05.4,0.001390457,0.003135681,0.018058777,0,
00:05.4,0.001379013,0.003135681,0.018047333,0,
00:05.4,0.001373291,0.003124237,0.018058777,0,
00:05.4,0.001379013,0.003129959,0.018053055,0,
00:05.5,0.001379013,0.003141403,0.018064499,0,
00:05.5,0.001390457,0.003147125,0.018058777,0,
00:05.5,0.001384735,0.003141403,0.018053055,0,
00:05.5,0.001384735,0.003135681,0.018064499,0,
00:05.5,0.001390457,0.003135681,0.018053055,0,
00:05.5,0.001401901,0.003141403,0.018053055,0,
00:05.5,0.001390457,0.003141403,0.018053055,0,
00:05.5,0.001384735,0.003147125,0.018047333,0,
00:05.5,0.001384735,0.003141403,0.018035889,0,
00:05.5,0.001390457,0.003135681,0.018041611,0,
00:05.5,0.001390457,0.003135681,0.018035889,0,
00:05.5,0.001384735,0.003135681,0.018053055,0,
00:05.5,0.001384735,0.003135681,0.018064499,0,
00:05.5,0.001390457,0.003135681,0.018053055,0,
00:05.5,0.001390457,0.003135681,0.018041611,0,
00:05.5,0.001390457,0.003141403,0.018047333,0,
00:05.5,0.001384735,0.003141403,0.018047333,0,
00:05.5,0.001373291,0.003141403,0.018041611,0,
00:05.5,0.001361847,0.003129959,0.018047333,0,
00:05.5,0.001390457,0.003129959,0.018047333,0,
00:05.5,0.001396179,0.003135681,0.018047333,0,
00:05.5,0.001390457,0.003141403,0.018047333,0,
00:05.5,0.001384735,0.003135681,0.018041611,0,
00:05.5,0.001373291,0.003129959,0.018035889,0,
00:05.5,0.001379013,0.003135681,0.018041611,0,
00:05.6,0.001396179,0.003135681,0.018035889,0,
00:05.6,0.001401901,0.003141403,0.018047333,0,
00:05.6,0.001384735,0.003135681,0.018053055,0,
00:05.6,0.001384735,0.003129959,0.018047333,0,
00:05.6,0.001379013,0.003135681,0.018035889,0,
00:05.6,0.001396179,0.003141403,0.018041611,0,
00:05.6,0.001390457,0.003135681,0.018024445,0,
00:05.6,0.001384735,0.003135681,0.018035889,0,
00:05.6,0.001384735,0.003129959,0.018047333,0,
00:05.6,0.001384735,0.003129959,0.018035889,0,
00:05.6,0.001384735,0.003135681,0.018035889,0,
00:05.6,0.001379013,0.003135681,0.018035889,0,
00:05.6,0.001384735,0.003135681,0.018030167,0,
00:05.6,0.001390457,0.003135681,0.018035889,0,
00:05.6,0.001384735,0.003129959,0.018030167,0,
00:05.6,0.001384735,0.003141403,0.018018723,0,
00:05.6,0.001384735,0.003147125,0.018018723,0,
00:05.6,0.001361847,0.003129959,0.018035889,0,
00:05.6,0.001384735,0.003124237,0.018035889,0,
00:05.6,0.001384735,0.003135681,0.018024445,0,
00:05.6,0.001384735,0.003135681,0.018047333,0,
00:05.6,0.001396179,0.003129959,0.018035889,0,
00:05.6,0.001396179,0.003129959,0.018030167,0,
00:05.6,0.001390457,0.003135681,0.018035889,0,
00:05.6,0.001390457,0.003135681,0.018024445,0,
00:05.7,0.001384735,0.003135681,0.018030167,0,
00:05.7,0.001379013,0.003147125,0.018030167,0,
00:05.7,0.001390457,0.003135681,0.018030167,0,
00:05.7,0.001396179,0.003129959,0.018024445,0,
00:05.7,0.001390457,0.003129959,0.018018723,0,
00:05.7,0.001367569,0.003129959,0.018024445,0,
00:05.7,0.001367569,0.003141403,0.018024445,0,
00:05.7,0.001390457,0.003135681,0.018030167,0,
00:05.7,0.001384735,0.003129959,0.018035889,0,
00:05.7,0.001396179,0.003129959,0.018035889,0,
00:05.7,0.001401901,0.003129959,0.018035889,0,
00:05.7,0.001396179,0.003135681,0.018024445,0,
00:05.7,0.001379013,0.003129959,0.018018723,0,
00:05.7,0.001379013,0.003129959,0.018024445,0,
00:05.7,0.001379013,0.003129959,0.018024445,0,
00:05.7,0.001384735,0.003135681,0.018024445,0,
00:05.7,0.001379013,0.003135681,0.018024445,0,
00:05.7,0.001379013,0.003129959,0.018018723,0,
00:05.7,0.001396179,0.003135681,0.018013,0,
00:05.7,0.001384735,0.003141403,0.018013,0,
00:05.7,0.001379013,0.003135681,0.018007278,0,
00:05.7,0.001373291,0.003135681,0.018013,0,
00:05.7,0.001396179,0.003124237,0.018024445,0,
00:05.7,0.001384735,0.003118515,0.018041611,0,
00:05.7,0.001390457,0.003129959,0.018035889,0,
00:05.8,0.001390457,0.003135681,0.018018723,0,
00:05.8,0.001390457,0.003135681,0.018024445,0,
00:05.8,0.001384735,0.003129959,0.018024445,0,
00:05.8,0.001384735,0.003129959,0.018018723,0,
00:05.8,0.001379013,0.003129959,0.018007278,0,
00:05.8,0.001384735,0.003124237,0.018018723,0,
00:05.8,0.001379013,0.003129959,0.018024445,0,
00:05.8,0.001373291,0.003129959,0.018018723,0,
00:05.8,0.001379013,0.003124237,0.018001556,0,
00:05.8,0.001384735,0.003118515,0.018013,0,
00:05.8,0.001401901,0.003129959,0.018018723,0,
00:05.8,0.001390457,0.003129959,0.018013,0,
00:05.8,0.001379013,0.003124237,0.018018723,0,
00:05.8,0.001379013,0.003124237,0.018024445,0,
00:05.8,0.001390457,0.003124237,0.018018723,0,
00:05.8,0.001384735,0.003124237,0.018007278,0,
00:05.8,0.001384735,0.003129959,0.017995834,0,
00:05.8,0.001367569,0.003124237,0.018001556,0,
00:05.8,0.001356125,0.003118515,0.018001556,0,
00:05.8,0.001379013,0.003124237,0.018013,0,
00:05.8,0.001396179,0.003129959,0.018007278,0,
00:05.8,0.001390457,0.003129959,0.018007278,0,
00:05.8,0.001379013,0.003129959,0.018001556,0,
00:05.8,0.001379013,0.003135681,0.018013,0,
00:05.8,0.001373291,0.003107071,0.018013,0,
00:05.9,0.001379013,0.003112793,0.018001556,0,
00:05.9,0.001384735,0.003124237,0.018007278,0,
00:05.9,0.001384735,0.003124237,0.018001556,0,
00:05.9,0.001384735,0.003118515,0.018001556,0,
00:05.9,0.001379013,0.003112793,0.018001556,0,
00:05.9,0.001373291,0.003124237,0.018013,0,
00:05.9,0.001373291,0.003124237,0.018001556,0,
00:05.9,0.001379013,0.003124237,0.017995834,0,
00:05.9,0.001384735,0.003124237,0.018001556,0,
00:05.9,0.001373291,0.003118515,0.018007278,0,
00:05.9,0.001373291,0.003112793,0.018007278,0,
00:05.9,0.001384735,0.003124237,0.018007278,0,
00:05.9,0.001390457,0.003124237,0.017995834,0,
00:05.9,0.001379013,0.003118515,0.017995834,0,
00:05.9,0.001384735,0.003118515,0.01798439,0,
00:05.9,0.001373291,0.003118515,0.017995834,0,
00:05.9,0.001373291,0.003124237,0.018001556,0,
00:05.9,0.001379013,0.003112793,0.01798439,0,
00:05.9,0.001373291,0.003112793,0.017978668,0,
00:05.9,0.001379013,0.003118515,0.018001556,0,
00:05.9,0.001379013,0.003118515,0.018007278,0,
00:05.9,0.001379013,0.003124237,0.017995834,0,
00:05.9,0.001373291,0.003118515,0.01798439,0,
00:05.9,0.001390457,0.003112793,0.017990112,0,
00:05.9,0.001379013,0.003112793,0.01798439,0,
00:06.0,0.001367569,0.003112793,0.017995834,0,
00:06.0,0.001361847,0.003112793,0.01798439,0,
00:06.0,0.001367569,0.003112793,0.01798439,0,
00:06.0,0.001379013,0.003118515,0.017990112,0,
00:06.0,0.001384735,0.003112793,0.01798439,0,
00:06.0,0.001379013,0.003112793,0.01798439,0,
00:06.0,0.001367569,0.003112793,0.017972946,0,
00:06.0,0.001373291,0.003112793,0.017972946,0,
00:06.0,0.001367569,0.003107071,0.017978668,0,
00:06.0,0.001373291,0.003112793,0.01798439,0,
00:06.0,0.001390457,0.003118515,0.01798439,0,
00:06.0,0.001390457,0.003112793,0.01798439,0,
00:00:06,0.001373291,0.003112793,0.017990112,0,
00:06.0,0.001367569,0.003112793,0.017995834,0,
00:06.0,0.001367569,0.003112793,0.017990112,0,
00:06.0,0.001373291,0.003118515,0.01798439,0,
00:06.0,0.001390457,0.003107071,0.017967224,0,
00:06.0,0.001379013,0.003107071,0.017972946,0,
00:06.0,0.001373291,0.003107071,0.017990112,0,
00:06.0,0.001384735,0.003107071,0.01798439,0,
00:06.0,0.001379013,0.003112793,0.017990112,0,
00:06.0,0.001373291,0.003112793,0.01798439,0,
00:06.0,0.001373291,0.003107071,0.017978668,0,
00:06.0,0.001361847,0.003107071,0.017978668,0,
00:06.0,0.001367569,0.003112793,0.017978668,0,
00:06.1,0.001396179,0.003107071,0.017978668,0,
00:06.1,0.001390457,0.003112793,0.017978668,0,
00:06.1,0.001379013,0.003107071,0.017978668,0,
00:06.1,0.001373291,0.003101349,0.017978668,0,
00:06.1,0.001379013,0.003107071,0.017972946,0,
00:06.1,0.001384735,0.003112793,0.017967224,0,
00:06.1,0.001384735,0.003112793,0.017972946,0,
00:06.1,0.001384735,0.003112793,0.017967224,0,
00:06.1,0.001367569,0.003101349,0.017967224,0,
00:06.1,0.001367569,0.003112793,0.01795578,0,
00:06.1,0.001367569,0.003124237,0.017944336,0,
00:06.1,0.001384735,0.003107071,0.017972946,0,
00:06.1,0.001384735,0.003095627,0.017978668,0,
00:06.1,0.001384735,0.003101349,0.017972946,0,
00:06.1,0.001384735,0.003107071,0.017972946,0,
00:06.1,0.001373291,0.003112793,0.017967224,0,
00:06.1,0.001367569,0.003112793,0.017961502,0,
00:06.1,0.001379013,0.003107071,0.017961502,0,
00:06.1,0.001384735,0.003107071,0.01795578,0,
00:06.1,0.001373291,0.003101349,0.017967224,0,
00:06.1,0.001367569,0.003101349,0.017967224,0,
00:06.1,0.001373291,0.003107071,0.017961502,0,
00:06.1,0.001367569,0.003101349,0.017961502,0,
00:06.1,0.001361847,0.003089905,0.017961502,0,
00:06.1,0.001384735,0.003101349,0.01795578,0,
00:06.2,0.001390457,0.003112793,0.017961502,0,
00:06.2,0.001384735,0.003107071,0.017967224,0,
00:06.2,0.001384735,0.003101349,0.017967224,0,
00:06.2,0.001373291,0.003101349,0.01795578,0,
00:06.2,0.001367569,0.003101349,0.017967224,0,
00:06.2,0.001373291,0.003112793,0.017972946,0,
00:06.2,0.001373291,0.003101349,0.017967224,0,
00:06.2,0.001373291,0.003095627,0.017961502,0,
00:06.2,0.001373291,0.003101349,0.017967224,0,
00:06.2,0.001384735,0.003107071,0.017961502,0,
00:06.2,0.001379013,0.003107071,0.017944336,0,
00:06.2,0.001367569,0.003107071,0.017961502,0,
00:06.2,0.001361847,0.003101349,0.017961502,0,
00:06.2,0.001361847,0.003095627,0.017961502,0,
00:06.2,0.001379013,0.003095627,0.017967224,0,
00:06.2,0.001384735,0.003101349,0.017961502,0,
00:06.2,0.001373291,0.003107071,0.017944336,0,
00:06.2,0.001384735,0.003107071,0.017950058,0,
00:06.2,0.001384735,0.003095627,0.01795578,0,
00:06.2,0.001379013,0.003095627,0.017950058,0,
00:06.2,0.001379013,0.003101349,0.017950058,0,
00:06.2,0.001379013,0.003101349,0.017961502,0,
00:06.2,0.001379013,0.003107071,0.017961502,0,
00:06.2,0.001384735,0.003107071,0.017944336,0,
00:06.2,0.001379013,0.003095627,0.017950058,0,
00:06.3,0.001367569,0.003095627,0.017950058,0,
00:06.3,0.001367569,0.003101349,0.017950058,0,
00:06.3,0.001384735,0.003101349,0.01795578,0,
00:06.3,0.001367569,0.003089905,0.017944336,0,
00:06.3,0.001361847,0.003095627,0.017932892,0,
00:06.3,0.001379013,0.003101349,0.017961502,0,
00:06.3,0.001361847,0.003101349,0.017961502,0,
00:06.3,0.001361847,0.003095627,0.017944336,0,
00:06.3,0.001390457,0.003101349,0.017932892,0,
00:06.3,0.001379013,0.003101349,0.017938614,0,
00:06.3,0.001373291,0.003101349,0.017944336,0,
00:06.3,0.001373291,0.003101349,0.01792717,0,
00:06.3,0.001361847,0.003095627,0.017932892,0,
00:06.3,0.001379013,0.003089905,0.017950058,0,
00:06.3,0.001384735,0.003089905,0.017950058,0,
00:06.3,0.001384735,0.003101349,0.017938614,0,
00:06.3,0.001379013,0.003101349,0.017932892,0,
00:06.3,0.001373291,0.003101349,0.01792717,0,
00:06.3,0.001356125,0.003089905,0.017932892,0,
00:06.3,0.001367569,0.003084183,0.017938614,0,
00:06.3,0.001367569,0.003089905,0.017938614,0,
00:06.3,0.001373291,0.003101349,0.017950058,0,
00:06.3,0.001379013,0.003095627,0.017944336,0,
00:06.3,0.001367569,0.003095627,0.017938614,0,
00:06.3,0.001367569,0.003089905,0.017932892,0,
00:06.4,0.001373291,0.003095627,0.017938614,0,
00:06.4,0.001373291,0.003101349,0.017944336,0,
00:06.4,0.001379013,0.003089905,0.017932892,0,
00:06.4,0.001379013,0.003089905,0.017944336,0,
00:06.4,0.001379013,0.003089905,0.017938614,0,
00:06.4,0.001373291,0.003095627,0.017921448,0,
00:06.4,0.001356125,0.003095627,0.01792717,0,
00:06.4,0.001367569,0.003095627,0.017938614,0,
00:06.4,0.001361847,0.003089905,0.017938614,0,
00:06.4,0.001361847,0.003095627,0.017938614,0,
00:06.4,0.001367569,0.003101349,0.017938614,0,
00:06.4,0.001384735,0.003089905,0.017932892,0,
00:06.4,0.001384735,0.003089905,0.01792717,0,
00:06.4,0.001379013,0.003089905,0.01792717,0,
00:06.4,0.001373291,0.003095627,0.017921448,0,
00:06.4,0.001361847,0.003089905,0.017915726,0,
00:06.4,0.001373291,0.003089905,0.017932892,0,
00:06.4,0.001373291,0.003089905,0.017932892,0,
00:06.4,0.001373291,0.003095627,0.017921448,0,
00:06.4,0.001373291,0.003089905,0.017904282,0,
00:06.4,0.001356125,0.003095627,0.017910004,0,
00:06.4,0.001361847,0.003089905,0.017915726,0,
00:06.4,0.001373291,0.003084183,0.017944336,0,
00:06.4,0.001367569,0.003084183,0.017938614,0,
00:06.4,0.001361847,0.003089905,0.01792717,0,
00:06.5,0.001373291,0.003095627,0.017915726,0,
00:06.5,0.001384735,0.003089905,0.017921448,0,
00:06.5,0.001367569,0.003089905,0.01792717,0,
00:06.5,0.001361847,0.003089905,0.017938614,0,
00:06.5,0.001367569,0.003089905,0.01792717,0,
00:06.5,0.001373291,0.003095627,0.017910004,0,
00:06.5,0.001373291,0.003089905,0.017910004,0,
00:06.5,0.001367569,0.003089905,0.017915726,0,
00:06.5,0.001367569,0.003084183,0.017921448,0,
00:06.5,0.001373291,0.003084183,0.017915726,0,
00:06.5,0.001367569,0.003089905,0.017921448,0,
00:06.5,0.001356125,0.003089905,0.017915726,0,
00:06.5,0.001361847,0.003084183,0.017910004,0,
00:06.5,0.001379013,0.003078461,0.017904282,0,
00:06.5,0.001379013,0.003078461,0.01792717,0,
00:06.5,0.001384735,0.003089905,0.017915726,0,
00:06.5,0.001367569,0.003089905,0.017904282,0,
00:06.5,0.001373291,0.003084183,0.01792717,0,
00:06.5,0.001373291,0.003078461,0.017921448,0,
00:06.5,0.001367569,0.003078461,0.017915726,0,
00:06.5,0.001373291,0.003084183,0.017915726,0,
00:06.5,0.001373291,0.003089905,0.017915726,0,
00:06.5,0.001361847,0.003084183,0.017915726,0,
00:06.5,0.001367569,0.003084183,0.017904282,0,
00:06.5,0.001373291,0.003084183,0.017915726,0,
00:06.6,0.001350403,0.003089905,0.017915726,0,
00:06.6,0.001356125,0.003089905,0.017904282,0,
00:06.6,0.001373291,0.003072739,0.017915726,0,
00:06.6,0.001373291,0.003078461,0.017915726,0,
00:06.6,0.001379013,0.003078461,0.017915726,0,
00:06.6,0.001384735,0.003089905,0.017910004,0,
00:06.6,0.001373291,0.003084183,0.017921448,0,
00:06.6,0.001356125,0.003078461,0.017915726,0,
00:06.6,0.001361847,0.003078461,0.017915726,0,
00:06.6,0.001373291,0.003089905,0.017904282,0,
00:06.6,0.001367569,0.003089905,0.017904282,0,
00:06.6,0.001361847,0.003078461,0.017910004,0,
00:06.6,0.001350403,0.003078461,0.017921448,0,
00:06.6,0.001373291,0.003078461,0.017915726,0,
00:06.6,0.001379013,0.003084183,0.017904282,0,
00:06.6,0.001373291,0.003084183,0.017932892,0,
00:06.6,0.001367569,0.003084183,0.017921448,0,
00:06.6,0.001361847,0.003078461,0.01792717,0,
00:06.6,0.001361847,0.003078461,0.017921448,0,
00:06.6,0.001373291,0.003089905,0.017921448,0,
00:06.6,0.001379013,0.003089905,0.017910004,0,
00:06.6,0.001361847,0.003072739,0.017910004,0,
00:06.6,0.001361847,0.003072739,0.017915726,0,
00:06.6,0.001356125,0.003072739,0.017915726,0,
00:06.6,0.001373291,0.003072739,0.017915726,0,
00:06.7,0.001379013,0.003078461,0.017921448,0,
00:06.7,0.001373291,0.003084183,0.017915726,0,
00:06.7,0.001379013,0.003084183,0.017904282,0,
00:06.7,0.001379013,0.003084183,0.017915726,0,
00:06.7,0.001379013,0.003078461,0.017921448,0,
00:06.7,0.001373291,0.003089905,0.01792717,0,
00:06.7,0.001367569,0.003078461,0.017938614,0,
00:06.7,0.001367569,0.003072739,0.017921448,0,
00:06.7,0.001367569,0.003072739,0.017932892,0,
00:06.7,0.001367569,0.003072739,0.017932892,0,
00:06.7,0.001361847,0.003078461,0.017932892,0,
00:06.7,0.001367569,0.003084183,0.017932892,0,
00:06.7,0.001373291,0.003078461,0.01792717,0,
00:06.7,0.001379013,0.003078461,0.017915726,0,
00:06.7,0.001373291,0.003072739,0.017921448,0,
00:06.7,0.001367569,0.003072739,0.01792717,0,
00:06.7,0.001373291,0.003084183,0.017921448,0,
00:06.7,0.001361847,0.003078461,0.01792717,0,
00:06.7,0.001361847,0.003072739,0.017921448,0,
00:06.7,0.001373291,0.003072739,0.017932892,0,
00:06.7,0.001356125,0.003072739,0.017938614,0,
00:06.7,0.001367569,0.003078461,0.017938614,0,
00:06.7,0.001373291,0.003072739,0.01792717,0,
00:06.7,0.001373291,0.003072739,0.017932892,0,
00:06.7,0.001367569,0.003084183,0.017938614,0,
00:06.8,0.001379013,0.003078461,0.017932892,0,
00:06.8,0.001367569,0.003078461,0.017938614,0,
00:06.8,0.001356125,0.003078461,0.017938614,0,
00:06.8,0.001367569,0.003072739,0.017938614,0,
00:06.8,0.001379013,0.003072739,0.017938614,0,
00:06.8,0.001373291,0.003072739,0.017938614,0,
00:06.8,0.001361847,0.003072739,0.017944336,0,
00:06.8,0.001361847,0.003084183,0.017950058,0,
00:06.8,0.001367569,0.003078461,0.017944336,0,
00:06.8,0.001373291,0.003067017,0.017950058,0,
00:06.8,0.001367569,0.003078461,0.017944336,0,
00:06.8,0.001367569,0.003067017,0.01795578,0,
00:06.8,0.001373291,0.003067017,0.017950058,0,
00:06.8,0.001367569,0.003072739,0.017961502,0,
00:06.8,0.001367569,0.003067017,0.01795578,0,
00:06.8,0.001367569,0.003084183,0.017944336,0,
00:06.8,0.001367569,0.003078461,0.017950058,0,
00:06.8,0.001367569,0.003067017,0.017967224,0,
00:06.8,0.001373291,0.003067017,0.017944336,0,
00:06.8,0.001367569,0.003084183,0.01795578,0,
00:06.8,0.001367569,0.003078461,0.017967224,0,
00:06.8,0.001356125,0.003072739,0.017967224,0,
00:06.8,0.001356125,0.003072739,0.017972946,0,
00:06.8,0.001356125,0.003061295,0.017967224,0,
00:06.8,0.001350403,0.003067017,0.017967224,0,
00:06.9,0.001373291,0.003072739,0.017967224,0,
00:06.9,0.001379013,0.003067017,0.017978668,0,
00:06.9,0.001367569,0.003072739,0.017972946,0,
00:06.9,0.001361847,0.003072739,0.017972946,0,
00:06.9,0.001361847,0.003072739,0.017961502,0,
00:06.9,0.001361847,0.003078461,0.017972946,0,
00:06.9,0.001356125,0.003072739,0.017978668,0,
00:06.9,0.001361847,0.003072739,0.017990112,0,
00:06.9,0.001361847,0.003067017,0.017990112,0,
00:06.9,0.001367569,0.003072739,0.017978668,0,
00:06.9,0.001367569,0.003078461,0.017972946,0,
00:06.9,0.001350403,0.003067017,0.017995834,0,
00:06.9,0.001356125,0.003067017,0.017978668,0,
00:06.9,0.001361847,0.003067017,0.01798439,0,
00:06.9,0.001356125,0.003067017,0.017995834,0,
00:06.9,0.001367569,0.003072739,0.017990112,0,
00:06.9,0.001344681,0.003067017,0.017995834,0,
00:06.9,0.001361847,0.003067017,0.017995834,0,
00:06.9,0.001373291,0.003072739,0.01798439,0,
00:06.9,0.001373291,0.003078461,0.017990112,0,
00:06.9,0.001379013,0.003078461,0.018001556,0,
00:06.9,0.001361847,0.003067017,0.018001556,0,
00:06.9,0.001356125,0.003067017,0.017995834,0,
00:06.9,0.001361847,0.003061295,0.018001556,0,
00:06.9,0.001361847,0.003061295,0.018018723,0,
00:07.0,0.001367569,0.003067017,0.018013,0,
00:07.0,0.001356125,0.003067017,0.018007278,0,
00:07.0,0.001350403,0.003067017,0.018024445,0,
00:07.0,0.001356125,0.003055573,0.018018723,0,
00:07.0,0.001367569,0.003067017,0.018013,0,
00:07.0,0.001361847,0.003072739,0.018018723,0,
00:07.0,0.001361847,0.003072739,0.018018723,0,
00:07.0,0.001356125,0.003067017,0.018018723,0,
00:07.0,0.001338959,0.003061295,0.018035889,0,
00:07.0,0.001367569,0.003067017,0.018035889,0,
00:07.0,0.001373291,0.003067017,0.018035889,0,
00:07.0,0.001367569,0.003072739,0.018030167,0,
00:00:07,0.001356125,0.003067017,0.018030167,0,
00:07.0,0.001361847,0.003067017,0.018035889,0,
00:07.0,0.001361847,0.003067017,0.018035889,0,
00:07.0,0.001361847,0.003067017,0.018041611,0,
00:07.0,0.001361847,0.003072739,0.018053055,0,
00:07.0,0.001361847,0.003061295,0.018053055,0,
00:07.0,0.001373291,0.003061295,0.018053055,0,
00:07.0,0.001367569,0.003067017,0.018053055,0,
00:07.0,0.001367569,0.003067017,0.018070221,0,
00:07.0,0.001367569,0.003067017,0.018058777,0,
00:07.0,0.001373291,0.003061295,0.018053055,0,
00:07.0,0.001356125,0.003055573,0.018053055,0,
00:07.0,0.001356125,0.003061295,0.018070221,0,
00:07.1,0.001361847,0.003067017,0.018064499,0,
00:07.1,0.001367569,0.003067017,0.018075943,0,
00:07.1,0.001367569,0.003055573,0.018081665,0,
00:07.1,0.001356125,0.003044128,0.018075943,0,
00:07.1,0.001361847,0.003061295,0.018075943,0,
00:07.1,0.001361847,0.003067017,0.018087387,0,
00:07.1,0.001350403,0.003061295,0.018081665,0,
00:07.1,0.001350403,0.00304985,0.018081665,0,
00:07.1,0.001373291,0.003055573,0.018081665,0,
00:07.1,0.001361847,0.003067017,0.018081665,0,
00:07.1,0.001350403,0.003072739,0.018087387,0,
00:07.1,0.001367569,0.003055573,0.018087387,0,
00:07.1,0.001373291,0.00304985,0.018093109,0,
00:07.1,0.001356125,0.003044128,0.018104553,0,
00:07.1,0.001350403,0.003061295,0.018098831,0,
00:07.1,0.001361847,0.003067017,0.018081665,0,
00:07.1,0.001361847,0.003055573,0.018098831,0,
00:07.1,0.001356125,0.003055573,0.018115997,0,
00:07.1,0.001361847,0.003055573,0.018115997,0,
00:07.1,0.001356125,0.003055573,0.018104553,0,
00:07.1,0.001356125,0.003055573,0.018104553,0,
00:07.1,0.001361847,0.003055573,0.018110275,0,
00:07.1,0.001361847,0.003055573,0.018121719,0,
00:07.1,0.001367569,0.00304985,0.018104553,0,
00:07.1,0.001356125,0.003055573,0.018104553,0,
00:07.2,0.001356125,0.003072739,0.018104553,0,
00:07.2,0.001361847,0.003072739,0.018115997,0,
00:07.2,0.001361847,0.003044128,0.018121719,0,
00:07.2,0.001367569,0.003044128,0.018127441,0,
00:07.2,0.001361847,0.003055573,0.018110275,0,
00:07.2,0.001350403,0.003067017,0.018110275,0,
00:07.2,0.001350403,0.003055573,0.018121719,0,
00:07.2,0.001361847,0.003044128,0.018127441,0,
00:07.2,0.001367569,0.00304985,0.018121719,0,
00:07.2,0.001361847,0.00304985,0.018127441,0,
00:07.2,0.001361847,0.003061295,0.018121719,0,
00:07.2,0.001350403,0.003055573,0.018138885,0,
00:07.2,0.001356125,0.003055573,0.018138885,0,
00:07.2,0.001344681,0.003055573,0.018127441,0,
00:07.2,0.001356125,0.003055573,0.018115997,0,
00:07.2,0.001356125,0.003055573,0.018133163,0,
00:07.2,0.001344681,0.00304985,0.018138885,0,
00:07.2,0.001361847,0.00304985,0.018121719,0,
00:07.2,0.001361847,0.00304985,0.018144608,0,
00:07.2,0.001356125,0.00304985,0.018144608,0,
00:07.2,0.001350403,0.003055573,0.018144608,0,
00:07.2,0.001356125,0.00304985,0.018138885,0,
00:07.2,0.001350403,0.003044128,0.018133163,0,
00:07.2,0.001361847,0.003044128,0.018127441,0,
00:07.2,0.001356125,0.00304985,0.018127441,0,
00:07.3,0.001350403,0.003055573,0.01815033,0,
00:07.3,0.001356125,0.003055573,0.018144608,0,
00:07.3,0.001350403,0.003044128,0.018138885,0,
00:07.3,0.001361847,0.003044128,0.018144608,0,
00:07.3,0.001356125,0.00304985,0.018144608,0,
00:07.3,0.001361847,0.003055573,0.018144608,0,
00:07.3,0.001361847,0.00304985,0.018156052,0,
00:07.3,0.001356125,0.00304985,0.018161774,0,
00:07.3,0.001356125,0.003044128,0.018156052,0,
00:07.3,0.001367569,0.00304985,0.01815033,0,
00:07.3,0.001356125,0.003055573,0.018156052,0,
00:07.3,0.001350403,0.00304985,0.01815033,0,
00:07.3,0.001356125,0.003044128,0.018161774,0,
00:07.3,0.001356125,0.003044128,0.018156052,0,
00:07.3,0.001356125,0.003044128,0.018167496,0,
00:07.3,0.001361847,0.003055573,0.018161774,0,
00:07.3,0.001356125,0.003055573,0.018138885,0,
00:07.3,0.001361847,0.003044128,0.018138885,0,
00:07.3,0.001361847,0.003038406,0.018167496,0,
00:07.3,0.001356125,0.003038406,0.018156052,0,
00:07.3,0.001356125,0.003055573,0.018156052,0,
00:07.3,0.001350403,0.00304985,0.018167496,0,
00:07.3,0.001327515,0.003032684,0.018161774,0,
00:07.3,0.001350403,0.003038406,0.018156052,0,
00:07.3,0.001379013,0.003044128,0.018167496,0,
00:07.4,0.001361847,0.003055573,0.018167496,0,
00:07.4,0.001367569,0.003055573,0.018161774,0,
00:07.4,0.001356125,0.003044128,0.018173218,0,
00:07.4,0.001361847,0.003044128,0.018167496,0,
00:07.4,0.001367569,0.003044128,0.018161774,0,
00:07.4,0.001350403,0.00304985,0.018161774,0,
00:07.4,0.001344681,0.003044128,0.018173218,0,
00:07.4,0.001344681,0.003044128,0.018173218,0,
00:07.4,0.001356125,0.003044128,0.018167496,0,
00:07.4,0.001367569,0.003044128,0.018167496,0,
00:07.4,0.001356125,0.00304985,0.018161774,0,
00:07.4,0.001350403,0.00304985,0.018156052,0,
00:07.4,0.001344681,0.003044128,0.018167496,0,
00:07.4,0.001344681,0.003038406,0.018173218,0,
00:07.4,0.001356125,0.003044128,0.018161774,0,
00:07.4,0.001361847,0.003044128,0.018161774,0,
00:07.4,0.001350403,0.003055573,0.018167496,0,
00:07.4,0.001350403,0.003044128,0.018167496,0,
00:07.4,0.001356125,0.003026962,0.018161774,0,
00:07.4,0.001350403,0.003026962,0.018173218,0,
00:07.4,0.001356125,0.003038406,0.018167496,0,
00:07.4,0.001361847,0.00304985,0.018161774,0,
00:07.4,0.001338959,0.003044128,0.018161774,0,
00:07.4,0.001344681,0.003038406,0.018156052,0,
00:07.4,0.001367569,0.003038406,0.018173218,0,
00:07.5,0.001350403,0.00304985,0.018173218,0,
00:07.5,0.001344681,0.00304985,0.018167496,0,
00:07.5,0.001361847,0.003038406,0.01815033,0,
00:07.5,0.001361847,0.003032684,0.018161774,0,
00:07.5,0.001350403,0.003032684,0.018156052,0,
00:07.5,0.001327515,0.003038406,0.018167496,0,
00:07.5,0.001356125,0.003044128,0.018156052,0,
00:07.5,0.001373291,0.003038406,0.01815033,0,
00:07.5,0.001356125,0.003038406,0.018156052,0,
00:07.5,0.001338959,0.003038406,0.018167496,0,
00:07.5,0.001356125,0.003044128,0.018156052,0,
00:07.5,0.001350403,0.003044128,0.018156052,0,
00:07.5,0.001344681,0.003044128,0.018161774,0,
00:07.5,0.001356125,0.003038406,0.01815033,0,
00:07.5,0.001356125,0.003044128,0.018138885,0,
00:07.5,0.001344681,0.003044128,0.01815033,0,
00:07.5,0.001350403,0.003038406,0.018156052,0,
00:07.5,0.001356125,0.003038406,0.018156052,0,
00:07.5,0.001350403,0.003038406,0.018156052,0,
00:07.5,0.001350403,0.003038406,0.01815033,0,
00:07.5,0.001356125,0.003038406,0.018156052,0,
00:07.5,0.001344681,0.003032684,0.018156052,0,
00:07.5,0.001350403,0.003032684,0.018156052,0,
00:07.5,0.001350403,0.003032684,0.018144608,0,
00:07.5,0.001350403,0.003038406,0.018144608,0,
00:07.6,0.001350403,0.003038406,0.018144608,0,
00:07.6,0.001350403,0.003038406,0.01815033,0,
00:07.6,0.001344681,0.003032684,0.018144608,0,
00:07.6,0.001350403,0.003032684,0.018144608,0,
00:07.6,0.001361847,0.003038406,0.018127441,0,
00:07.6,0.001356125,0.00304985,0.018127441,0,
00:07.6,0.001350403,0.003032684,0.01815033,0,
00:07.6,0.001344681,0.003026962,0.018144608,0,
00:07.6,0.001350403,0.003032684,0.018144608,0,
00:07.6,0.001350403,0.003032684,0.018133163,0,
00:07.6,0.001350403,0.003038406,0.018133163,0,
00:07.6,0.001338959,0.003032684,0.018144608,0,
00:07.6,0.001338959,0.00302124,0.018138885,0,
00:07.6,0.001367569,0.003026962,0.018138885,0,
00:07.6,0.001373291,0.003032684,0.018133163,0,
00:07.6,0.001361847,0.003032684,0.018144608,0,
00:07.6,0.001356125,0.003038406,0.018133163,0,
00:07.6,0.001350403,0.003032684,0.018133163,0,
00:07.6,0.001350403,0.003032684,0.018121719,0,
00:07.6,0.001356125,0.003032684,0.018104553,0,
00:07.6,0.001361847,0.003038406,0.018110275,0,
00:07.6,0.001361847,0.003044128,0.018138885,0,
00:07.6,0.001350403,0.003032684,0.018127441,0,
00:07.6,0.001344681,0.003026962,0.018127441,0,
00:07.6,0.001344681,0.003032684,0.018110275,0,
00:07.7,0.001338959,0.003032684,0.018121719,0,
00:07.7,0.001338959,0.003026962,0.018133163,0,
00:07.7,0.001344681,0.00302124,0.018121719,0,
00:07.7,0.001361847,0.003026962,0.018121719,0,
00:07.7,0.001350403,0.003032684,0.018121719,0,
00:07.7,0.001338959,0.003032684,0.018098831,0,
00:07.7,0.001344681,0.003032684,0.018115997,0,
00:07.7,0.001350403,0.003026962,0.018115997,0,
00:07.7,0.001356125,0.00302124,0.018110275,0,
00:07.7,0.001361847,0.003026962,0.018104553,0,
00:07.7,0.001356125,0.003026962,0.018104553,0,
00:07.7,0.001350403,0.003026962,0.018098831,0,
00:07.7,0.001350403,0.003026962,0.018098831,0,
00:07.7,0.001356125,0.003038406,0.018110275,0,
00:07.7,0.001344681,0.003026962,0.018098831,0,
00:07.7,0.001338959,0.003015518,0.018098831,0,
00:07.7,0.001344681,0.003015518,0.018098831,0,
00:07.7,0.001361847,0.003015518,0.018104553,0,
00:07.7,0.001361847,0.00302124,0.018093109,0,
00:07.7,0.001344681,0.003026962,0.018087387,0,
00:07.7,0.001338959,0.003026962,0.018093109,0,
00:07.7,0.001356125,0.00302124,0.018093109,0,
00:07.7,0.001344681,0.00302124,0.018104553,0,
00:07.7,0.001344681,0.003015518,0.018098831,0,
00:07.7,0.001361847,0.00302124,0.018093109,0,
00:07.8,0.001356125,0.003026962,0.018087387,0,
00:07.8,0.001350403,0.00302124,0.018087387,0,
00:07.8,0.001356125,0.00302124,0.018064499,0,
00:07.8,0.001350403,0.00302124,0.018075943,0,
00:07.8,0.001344681,0.00302124,0.018075943,0,
00:07.8,0.001338959,0.00302124,0.018087387,0,
00:07.8,0.001338959,0.003009796,0.018087387,0,
00:07.8,0.001356125,0.003009796,0.018075943,0,
00:07.8,0.001361847,0.00302124,0.018070221,0,
00:07.8,0.001367569,0.003026962,0.018064499,0,
00:07.8,0.001361847,0.003015518,0.018075943,0,
00:07.8,0.001356125,0.003015518,0.018070221,0,
00:07.8,0.001344681,0.003015518,0.018070221,0,
00:07.8,0.001350403,0.00302124,0.018070221,0,
00:07.8,0.001350403,0.003009796,0.018070221,0,
00:07.8,0.001338959,0.003009796,0.018070221,0,
00:07.8,0.001344681,0.003015518,0.018064499,0,
00:07.8,0.001356125,0.003015518,0.018058777,0,
00:07.8,0.001350403,0.003015518,0.018058777,0,
00:07.8,0.001338959,0.003015518,0.018075943,0,
00:07.8,0.001344681,0.003015518,0.018075943,0,
00:07.8,0.001361847,0.003015518,0.018064499,0,
00:07.8,0.001350403,0.003009796,0.018070221,0,
00:07.8,0.001350403,0.003009796,0.018064499,0,
00:07.8,0.001344681,0.003015518,0.018064499,0,
00:07.9,0.001344681,0.003015518,0.018058777,0,
00:07.9,0.001338959,0.003004074,0.018041611,0,
00:07.9,0.001344681,0.003009796,0.018058777,0,
00:07.9,0.001367569,0.00302124,0.018058777,0,
00:07.9,0.001344681,0.003015518,0.018053055,0,
00:07.9,0.001333237,0.003015518,0.018053055,0,
00:07.9,0.001327515,0.003009796,0.018053055,0,
00:07.9,0.001344681,0.003009796,0.018064499,0,
00:07.9,0.001356125,0.003004074,0.018053055,0,
00:07.9,0.001356125,0.003009796,0.018041611,0,
00:07.9,0.001350403,0.003009796,0.018035889,0,
00:07.9,0.001344681,0.003009796,0.018053055,0,
00:07.9,0.001344681,0.003004074,0.018058777,0,
00:07.9,0.001338959,0.003004074,0.018053055,0,
00:07.9,0.001333237,0.003015518,0.018041611,0,
00:07.9,0.001350403,0.003009796,0.018047333,0,
00:07.9,0.001350403,0.003009796,0.018053055,0,
00:07.9,0.001344681,0.00299263,0.018058777,0,
00:07.9,0.001356125,0.002998352,0.018053055,0,
00:07.9,0.001356125,0.003004074,0.018041611,0,
00:07.9,0.001350403,0.003009796,0.018047333,0,
00:07.9,0.001344681,0.003009796,0.018047333,0,
00:07.9,0.001344681,0.002998352,0.018041611,0,
00:07.9,0.001350403,0.002998352,0.018041611,0,
00:07.9,0.001333237,0.002998352,0.018053055,0,
00:08.0,0.001316071,0.003004074,0.018047333,0,
00:08.0,0.001344681,0.003004074,0.018013,0,
00:08.0,0.001338959,0.002998352,0.018041611,0,
00:08.0,0.001350403,0.00299263,0.018070221,0,
00:08.0,0.001361847,0.003004074,0.018047333,0,
00:08.0,0.001338959,0.002998352,0.018053055,0,
00:08.0,0.001344681,0.00299263,0.018053055,0,
00:08.0,0.001350403,0.002998352,0.018047333,0,
00:08.0,0.001344681,0.002998352,0.018035889,0,
00:08.0,0.001338959,0.002998352,0.018035889,0,
00:08.0,0.001350403,0.002998352,0.018041611,0,
00:08.0,0.001350403,0.00299263,0.018041611,0,
00:00:08,0.001338959,0.00299263,0.018035889,0,
00:08.0,0.001344681,0.002998352,0.018041611,0,
00:08.0,0.001344681,0.002998352,0.018035889,0,
00:08.0,0.001321793,0.002998352,0.018030167,0,
00:08.0,0.001327515,0.00299263,0.018030167,0,
00:08.0,0.001344681,0.002986908,0.018030167,0,
00:08.0,0.001344681,0.002986908,0.018047333,0,
00:08.0,0.001344681,0.002998352,0.018035889,0,
00:08.0,0.001344681,0.00299263,0.018047333,0,
00:08.0,0.001344681,0.00299263,0.018041611,0,
00:08.0,0.001333237,0.002986908,0.018035889,0,
00:08.0,0.001338959,0.002986908,0.018030167,0,
00:08.0,0.001338959,0.002986908,0.018024445,0,
00:08.1,0.001327515,0.002998352,0.018030167,0,
00:08.1,0.001321793,0.00299263,0.018024445,0,
00:08.1,0.001338959,0.00299263,0.018035889,0,
00:08.1,0.001350403,0.002986908,0.018024445,0,
00:08.1,0.001338959,0.002986908,0.018024445,0,
00:08.1,0.001344681,0.00299263,0.018030167,0,
00:08.1,0.001333237,0.00299263,0.018013,0,
00:08.1,0.001333237,0.002986908,0.018035889,0,
00:08.1,0.001350403,0.002975464,0.018035889,0,
00:08.1,0.001356125,0.002986908,0.018018723,0,
00:08.1,0.001344681,0.00299263,0.018018723,0,
00:08.1,0.001338959,0.00299263,0.018024445,0,
00:08.1,0.001333237,0.002981186,0.018024445,0,
00:08.1,0.001338959,0.002986908,0.018024445,0,
00:08.1,0.001344681,0.00299263,0.018018723,0,
00:08.1,0.001327515,0.00299263,0.018007278,0,
00:08.1,0.001321793,0.002986908,0.018007278,0,
00:08.1,0.001338959,0.002981186,0.018030167,0,
00:08.1,0.001350403,0.002986908,0.018007278,0,
00:08.1,0.001338959,0.002986908,0.018007278,0,
00:08.1,0.001327515,0.00299263,0.018018723,0,
00:08.1,0.001350403,0.00299263,0.018013,0,
00:08.1,0.001338959,0.002981186,0.018001556,0,
00:08.1,0.001327515,0.00299263,0.018018723,0,
00:08.1,0.001327515,0.002986908,0.018024445,0,
00:08.2,0.001333237,0.002981186,0.018013,0,
00:08.2,0.001321793,0.002981186,0.018007278,0,
00:08.2,0.001338959,0.002981186,0.018001556,0,
00:08.2,0.001350403,0.00299263,0.017995834,0,
00:08.2,0.001344681,0.002986908,0.018013,0,
00:08.2,0.001333237,0.002986908,0.018013,0,
00:08.2,0.001327515,0.002986908,0.018001556,0,
00:08.2,0.001327515,0.002981186,0.017995834,0,
00:08.2,0.001344681,0.002981186,0.01798439,0,
00:08.2,0.001350403,0.002981186,0.018001556,0,
00:08.2,0.001338959,0.002986908,0.018007278,0,
00:08.2,0.001327515,0.002986908,0.017995834,0,
00:08.2,0.001344681,0.002981186,0.018001556,0,
00:08.2,0.001350403,0.002986908,0.018007278,0,
00:08.2,0.001333237,0.002986908,0.018007278,0,
00:08.2,0.001316071,0.002986908,0.018001556,0,
00:08.2,0.001333237,0.002981186,0.018001556,0,
00:08.2,0.001333237,0.002975464,0.018001556,0,
00:08.2,0.001338959,0.002986908,0.017990112,0,
00:08.2,0.001338959,0.002986908,0.017990112,0,
00:08.2,0.001333237,0.002986908,0.01798439,0,
00:08.2,0.001333237,0.002986908,0.01798439,0,
00:08.2,0.001333237,0.002981186,0.017978668,0,
00:08.2,0.001327515,0.002981186,0.01798439,0,
00:08.2,0.001321793,0.002981186,0.017978668,0,
00:08.3,0.001321793,0.002981186,0.017972946,0,
00:08.3,0.001327515,0.002969742,0.017972946,0,
00:08.3,0.001344681,0.002969742,0.01798439,0,
00:08.3,0.001344681,0.002981186,0.017990112,0,
00:08.3,0.001344681,0.002986908,0.017978668,0,
00:08.3,0.001344681,0.002986908,0.017972946,0,
00:08.3,0.001338959,0.002981186,0.01798439,0,
00:08.3,0.001327515,0.002981186,0.01798439,0,
00:08.3,0.001327515,0.00299263,0.01798439,0,
00:08.3,0.001327515,0.002986908,0.017990112,0,
00:08.3,0.001327515,0.002981186,0.017978668,0,
00:08.3,0.001333237,0.002975464,0.017967224,0,
00:08.3,0.001333237,0.002969742,0.017978668,0,
00:08.3,0.001338959,0.002981186,0.017972946,0,
00:08.3,0.001338959,0.002986908,0.017967224,0,
00:08.3,0.001333237,0.002986908,0.017972946,0,
00:08.3,0.001321793,0.002981186,0.017967224,0,
00:08.3,0.001327515,0.002975464,0.017967224,0,
00:08.3,0.001344681,0.002975464,0.017961502,0,
00:08.3,0.001327515,0.002981186,0.017967224,0,
00:08.3,0.001321793,0.002981186,0.017967224,0,
00:08.3,0.001327515,0.002981186,0.01795578,0,
00:08.3,0.001333237,0.002981186,0.01795578,0,
00:08.3,0.001338959,0.002981186,0.017961502,0,
00:08.3,0.001333237,0.002981186,0.01795578,0,
00:08.4,0.001321793,0.002975464,0.017944336,0,
00:08.4,0.001298904,0.002981186,0.01795578,0,
00:08.4,0.001316071,0.002981186,0.017961502,0,
00:08.4,0.001344681,0.002975464,0.01795578,0,
00:08.4,0.001338959,0.002986908,0.017950058,0,
00:08.4,0.001333237,0.002986908,0.017944336,0,
00:08.4,0.001333237,0.002981186,0.017950058,0,
00:08.4,0.001327515,0.002975464,0.017950058,0,
00:08.4,0.001327515,0.002981186,0.017938614,0,
00:08.4,0.001333237,0.002986908,0.017932892,0,
00:08.4,0.001327515,0.00299263,0.01795578,0,
00:08.4,0.001327515,0.002981186,0.01795578,0,
00:08.4,0.001327515,0.002969742,0.01795578,0,
00:08.4,0.001321793,0.002975464,0.017950058,0,
00:08.4,0.001338959,0.00299263,0.01795578,0,
00:08.4,0.001327515,0.00299263,0.01795578,0,
00:08.4,0.001327515,0.002981186,0.017944336,0,
00:08.4,0.001327515,0.002969742,0.017944336,0,
00:08.4,0.001321793,0.002981186,0.017944336,0,
00:08.4,0.001321793,0.002981186,0.017944336,0,
00:08.4,0.001327515,0.002975464,0.017932892,0,
00:08.4,0.001327515,0.002981186,0.017932892,0,
00:08.4,0.001316071,0.002981186,0.017938614,0,
00:08.4,0.001327515,0.002975464,0.017932892,0,
00:08.4,0.001327515,0.002981186,0.017915726,0,
00:08.5,0.001321793,0.002981186,0.017915726,0,
00:08.5,0.001316071,0.002975464,0.017932892,0,
00:08.5,0.001321793,0.002981186,0.017932892,0,
00:08.5,0.001321793,0.002975464,0.01792717,0,
00:08.5,0.001333237,0.002981186,0.017932892,0,
00:08.5,0.001316071,0.002981186,0.017938614,0,
00:08.5,0.001327515,0.002975464,0.017921448,0,
00:08.5,0.001333237,0.002975464,0.017921448,0,
00:08.5,0.001321793,0.002981186,0.01792717,0,
00:08.5,0.001316071,0.002986908,0.017915726,0,
00:08.5,0.001304626,0.002986908,0.017915726,0,
00:08.5,0.001327515,0.002986908,0.017915726,0,
00:08.5,0.001344681,0.002981186,0.017921448,0,
00:08.5,0.001333237,0.002975464,0.017915726,0,
00:08.5,0.001327515,0.002981186,0.01792717,0,
00:08.5,0.001321793,0.002986908,0.017915726,0,
00:08.5,0.001316071,0.002981186,0.017915726,0,
00:08.5,0.001321793,0.002981186,0.017915726,0,
00:08.5,0.001327515,0.002981186,0.017915726,0,
00:08.5,0.001327515,0.00299263,0.017921448,0,
00:08.5,0.001333237,0.002986908,0.017904282,0,
00:08.5,0.001327515,0.002975464,0.017904282,0,
00:08.5,0.001316071,0.002975464,0.017910004,0,
00:08.5,0.001316071,0.002981186,0.017910004,0,
00:08.5,0.001321793,0.002981186,0.017910004,0,
00:08.6,0.001316071,0.002981186,0.017910004,0,
00:08.6,0.001310349,0.002986908,0.01789856,0,
00:08.6,0.001310349,0.002975464,0.01789856,0,
00:08.6,0.001338959,0.002975464,0.017910004,0,
00:08.6,0.001327515,0.002986908,0.01789856,0,
00:08.6,0.001304626,0.002981186,0.01789856,0,
00:08.6,0.001321793,0.002981186,0.01789856,0,
00:08.6,0.001338959,0.002981186,0.01789856,0,
00:08.6,0.001333237,0.002986908,0.017892838,0,
00:08.6,0.001321793,0.002986908,0.01789856,0,
00:08.6,0.001316071,0.002986908,0.017887115,0,
00:08.6,0.001327515,0.002986908,0.017887115,0,
00:08.6,0.001321793,0.002981186,0.017892838,0,
00:08.6,0.001316071,0.002986908,0.017875671,0,
00:08.6,0.001316071,0.00299263,0.017875671,0,
00:08.6,0.001310349,0.00299263,0.01789856,0,
00:08.6,0.001304626,0.002981186,0.017881393,0,
00:08.6,0.001316071,0.002975464,0.017892838,0,
00:08.6,0.001333237,0.002986908,0.01789856,0,
00:08.6,0.001321793,0.00299263,0.017892838,0,
00:08.6,0.001321793,0.002986908,0.017881393,0,
00:08.6,0.001316071,0.002981186,0.017875671,0,
00:08.6,0.001333237,0.002981186,0.017881393,0,
00:08.6,0.001327515,0.002986908,0.017881393,0,
00:08.6,0.001310349,0.002986908,0.017881393,0,
00:08.7,0.001316071,0.002986908,0.017864227,0,
00:08.7,0.001327515,0.002986908,0.017864227,0,
00:08.7,0.001321793,0.002986908,0.017869949,0,
00:08.7,0.001321793,0.002981186,0.017875671,0,
00:08.7,0.001316071,0.002986908,0.017875671,0,
00:08.7,0.001316071,0.00299263,0.017869949,0,
00:08.7,0.001316071,0.002981186,0.017858505,0,
00:08.7,0.001316071,0.002981186,0.017852783,0,
00:08.7,0.001321793,0.002986908,0.017858505,0,
00:08.7,0.001321793,0.00299263,0.017852783,0,
00:08.7,0.001310349,0.002986908,0.017852783,0,
00:08.7,0.001327515,0.002986908,0.017869949,0,
00:08.7,0.001327515,0.002986908,0.017858505,0,
00:08.7,0.001316071,0.002986908,0.017858505,0,
00:08.7,0.001321793,0.00299263,0.017858505,0,
00:08.7,0.001316071,0.002986908,0.017852783,0,
00:08.7,0.001316071,0.00299263,0.017847061,0,
00:08.7,0.001304626,0.002981186,0.017847061,0,
00:08.7,0.001321793,0.002981186,0.017841339,0,
00:08.7,0.001333237,0.00299263,0.017841339,0,
00:08.7,0.001327515,0.002986908,0.017841339,0,
00:08.7,0.001321793,0.002986908,0.017818451,0,
00:08.7,0.001327515,0.002986908,0.017818451,0,
00:08.7,0.001327515,0.00299263,0.017847061,0,
00:08.7,0.001316071,0.002998352,0.017835617,0,
00:08.8,0.001310349,0.00299263,0.017824173,0,
00:08.8,0.001321793,0.002986908,0.017818451,0,
00:08.8,0.001333237,0.003004074,0.017818451,0,
00:08.8,0.001321793,0.002986908,0.017835617,0,
00:08.8,0.001321793,0.00299263,0.017835617,0,
00:08.8,0.001304626,0.00299263,0.017829895,0,
00:08.8,0.001304626,0.002986908,0.017818451,0,
00:08.8,0.001316071,0.002986908,0.017812729,0,
00:08.8,0.001327515,0.00299263,0.017812729,0,
00:08.8,0.001333237,0.00299263,0.017824173,0,
00:08.8,0.001316071,0.00299263,0.017829895,0,
00:08.8,0.001310349,0.002986908,0.017824173,0,
00:08.8,0.001316071,0.002981186,0.017818451,0,
00:08.8,0.001327515,0.00299263,0.017795563,0,
00:08.8,0.001327515,0.002998352,0.017807007,0,
00:08.8,0.001316071,0.00299263,0.017818451,0,
00:08.8,0.001321793,0.002986908,0.017829895,0,
00:08.8,0.001321793,0.00299263,0.017818451,0,
00:08.8,0.001321793,0.002986908,0.017807007,0,
00:08.8,0.001321793,0.002998352,0.017812729,0,
00:08.8,0.001327515,0.002998352,0.017807007,0,
00:08.8,0.001321793,0.00299263,0.017801285,0,
00:08.8,0.001310349,0.00299263,0.017801285,0,
00:08.8,0.001304626,0.00299263,0.017801285,0,
00:08.8,0.001316071,0.00299263,0.017801285,0,
00:08.9,0.001316071,0.00299263,0.017795563,0,
00:08.9,0.001327515,0.00299263,0.017795563,0,
00:08.9,0.001321793,0.00299263,0.017789841,0,
00:08.9,0.001316071,0.003004074,0.017784119,0,
00:08.9,0.001316071,0.00299263,0.017812729,0,
00:08.9,0.001304626,0.00299263,0.017801285,0,
00:08.9,0.001304626,0.00299263,0.017795563,0,
00:08.9,0.001327515,0.00299263,0.017795563,0,
00:08.9,0.001321793,0.002998352,0.017784119,0,
00:08.9,0.001316071,0.00299263,0.017784119,0,
00:08.9,0.001304626,0.002986908,0.017801285,0,
00:08.9,0.001304626,0.002986908,0.017801285,0,
00:08.9,0.001321793,0.002998352,0.017795563,0,
00:08.9,0.001316071,0.003004074,0.017784119,0,
00:08.9,0.001316071,0.003004074,0.017789841,0,
00:08.9,0.001316071,0.00299263,0.017784119,0,
00:08.9,0.001316071,0.00299263,0.017772675,0,
00:08.9,0.001321793,0.00299263,0.017772675,0,
00:08.9,0.001310349,0.002998352,0.017784119,0,
00:08.9,0.001310349,0.002998352,0.017778397,0,
00:08.9,0.001321793,0.002986908,0.017766953,0,
00:08.9,0.001327515,0.002986908,0.017766953,0,
00:08.9,0.001321793,0.00299263,0.017778397,0,
00:08.9,0.001316071,0.002998352,0.017778397,0,
00:08.9,0.001304626,0.003004074,0.017766953,0,
00:09.0,0.001304626,0.003004074,0.01776123,0,
00:09.0,0.001304626,0.002998352,0.01776123,0,
00:09.0,0.001316071,0.002986908,0.017766953,0,
00:09.0,0.001327515,0.00299263,0.017778397,0,
00:09.0,0.001333237,0.002998352,0.01776123,0,
00:09.0,0.001321793,0.003004074,0.017784119,0,
00:09.0,0.001316071,0.003004074,0.017772675,0,
00:09.0,0.001304626,0.00299263,0.017766953,0,
00:09.0,0.001316071,0.00299263,0.017772675,0,
00:09.0,0.001321793,0.002998352,0.017755508,0,
00:09.0,0.001321793,0.003004074,0.01776123,0,
00:09.0,0.001310349,0.002998352,0.017778397,0,
00:00:09,0.001310349,0.00299263,0.017766953,0,
00:09.0,0.001310349,0.00299263,0.017766953,0,
00:09.0,0.001310349,0.00299263,0.017755508,0,
00:09.0,0.001321793,0.002998352,0.017744064,0,
00:09.0,0.001321793,0.002998352,0.01776123,0,
00:09.0,0.001304626,0.002998352,0.017766953,0,
00:09.0,0.001333237,0.002998352,0.01776123,0,
00:09.0,0.001333237,0.003004074,0.01776123,0,
00:09.0,0.001316071,0.002998352,0.017749786,0,
00:09.0,0.001316071,0.002998352,0.017738342,0,
00:09.0,0.001316071,0.002998352,0.017749786,0,
00:09.0,0.001316071,0.003004074,0.017744064,0,
00:09.0,0.001316071,0.002998352,0.017755508,0,
00:09.1,0.001316071,0.002998352,0.017755508,0,
00:09.1,0.001310349,0.00299263,0.017749786,0,
00:09.1,0.001316071,0.002998352,0.01773262,0,
00:09.1,0.001316071,0.003004074,0.017738342,0,
00:09.1,0.001321793,0.003004074,0.017744064,0,
00:09.1,0.001316071,0.003004074,0.017744064,0,
00:09.1,0.001321793,0.002998352,0.017744064,0,
00:09.1,0.001316071,0.003004074,0.017749786,0,
00:09.1,0.001304626,0.002998352,0.01773262,0,
00:09.1,0.001304626,0.00299263,0.017744064,0,
00:09.1,0.001316071,0.002998352,0.017744064,0,
00:09.1,0.001321793,0.002998352,0.01773262,0,
00:09.1,0.001310349,0.002998352,0.017726898,0,
00:09.1,0.001327515,0.003004074,0.017726898,0,
00:09.1,0.001327515,0.003015518,0.017721176,0,
00:09.1,0.001321793,0.003004074,0.017715454,0,
00:09.1,0.001327515,0.002998352,0.01773262,0,
00:09.1,0.001327515,0.002998352,0.01773262,0,
00:09.1,0.001321793,0.002998352,0.017726898,0,
00:09.1,0.001310349,0.003004074,0.01773262,0,
00:09.1,0.001310349,0.003009796,0.017715454,0,
00:09.1,0.001316071,0.003004074,0.017726898,0,
00:09.1,0.001321793,0.002998352,0.017709732,0,
00:09.1,0.001316071,0.002998352,0.017709732,0,
00:09.1,0.001316071,0.003004074,0.017721176,0,
00:09.2,0.001316071,0.003004074,0.017721176,0,
00:09.2,0.001316071,0.002998352,0.01773262,0,
00:09.2,0.001321793,0.002998352,0.017709732,0,
00:09.2,0.001321793,0.003004074,0.017709732,0,
00:09.2,0.001316071,0.003004074,0.017726898,0,
00:09.2,0.001327515,0.003004074,0.017726898,0,
00:09.2,0.001316071,0.003004074,0.017715454,0,
00:09.2,0.001316071,0.003004074,0.017698288,0,
00:09.2,0.001327515,0.003004074,0.017709732,0,
00:09.2,0.001321793,0.003004074,0.017726898,0,
00:09.2,0.001310349,0.003004074,0.017721176,0,
00:09.2,0.001310349,0.002998352,0.017709732,0,
00:09.2,0.001321793,0.002998352,0.01770401,0,
00:09.2,0.001333237,0.003009796,0.017721176,0,
00:09.2,0.001333237,0.003015518,0.017715454,0,
00:09.2,0.001310349,0.003009796,0.017715454,0,
00:09.2,0.001310349,0.002998352,0.017709732,0,
00:09.2,0.001333237,0.003009796,0.017709732,0,
00:09.2,0.001327515,0.003004074,0.017715454,0,
00:09.2,0.001321793,0.002998352,0.017709732,0,
00:09.2,0.001310349,0.003015518,0.01770401,0,
00:09.2,0.001321793,0.003004074,0.01770401,0,
00:09.2,0.001333237,0.002998352,0.017709732,0,
00:09.2,0.001333237,0.003004074,0.01770401,0,
00:09.2,0.001316071,0.003004074,0.017698288,0,
00:09.3,0.001327515,0.003004074,0.017698288,0,
00:09.3,0.001321793,0.002998352,0.017692566,0,
00:09.3,0.001321793,0.003004074,0.01770401,0,
00:09.3,0.001316071,0.003009796,0.017698288,0,
00:09.3,0.001316071,0.003009796,0.01770401,0,
00:09.3,0.001316071,0.003004074,0.017692566,0,
00:09.3,0.001327515,0.003004074,0.017715454,0,
00:09.3,0.001333237,0.003004074,0.017698288,0,
00:09.3,0.001327515,0.003009796,0.017681122,0,
00:09.3,0.001327515,0.003015518,0.017698288,0,
00:09.3,0.001316071,0.003009796,0.017692566,0,
00:09.3,0.001316071,0.003004074,0.017692566,0,
00:09.3,0.001321793,0.003009796,0.01770401,0,
00:09.3,0.001304626,0.003004074,0.01770401,0,
00:09.3,0.001304626,0.003015518,0.017698288,0,
00:09.3,0.001327515,0.003004074,0.017692566,0,
00:09.3,0.001338959,0.003004074,0.017692566,0,
00:09.3,0.001327515,0.003004074,0.017698288,0,
00:09.3,0.001327515,0.003009796,0.017698288,0,
00:09.3,0.001327515,0.003015518,0.017698288,0,
00:09.3,0.001321793,0.003015518,0.017686844,0,
00:09.3,0.001316071,0.003009796,0.0176754,0,
00:09.3,0.001321793,0.003004074,0.017698288,0,
00:09.3,0.001338959,0.003009796,0.01770401,0,
00:09.3,0.001327515,0.003015518,0.017692566,0,
00:09.4,0.001316071,0.003009796,0.017698288,0,
00:09.4,0.001321793,0.003004074,0.017709732,0,
00:09.4,0.001321793,0.003009796,0.017692566,0,
00:09.4,0.001321793,0.00302124,0.017681122,0,
00:09.4,0.001316071,0.003009796,0.017692566,0,
00:09.4,0.001321793,0.003004074,0.017686844,0,
00:09.4,0.001321793,0.003004074,0.017692566,0,
00:09.4,0.001327515,0.003009796,0.017681122,0,
00:09.4,0.001333237,0.003009796,0.017681122,0,
00:09.4,0.001327515,0.003009796,0.017681122,0,
00:09.4,0.001327515,0.003009796,0.017692566,0,
00:09.4,0.001321793,0.003004074,0.01770401,0,
00:09.4,0.001327515,0.003009796,0.017698288,0,
00:09.4,0.001333237,0.00302124,0.017686844,0,
00:09.4,0.001316071,0.003009796,0.017692566,0,
00:09.4,0.001316071,0.003009796,0.017698288,0,
00:09.4,0.001321793,0.003009796,0.017692566,0,
00:09.4,0.001310349,0.003015518,0.017669678,0,
00:09.4,0.001327515,0.003015518,0.0176754,0,
00:09.4,0.001344681,0.00302124,0.017692566,0,
00:09.4,0.001327515,0.003009796,0.017698288,0,
00:09.4,0.001310349,0.003004074,0.017698288,0,
00:09.4,0.001304626,0.003004074,0.017692566,0,
00:09.4,0.001316071,0.003004074,0.017698288,0,
00:09.4,0.001327515,0.003009796,0.017698288,0,
00:09.5,0.001327515,0.003015518,0.017681122,0,
00:09.5,0.001338959,0.003015518,0.017681122,0,
00:09.5,0.001333237,0.003004074,0.017692566,0,
00:09.5,0.001333237,0.003009796,0.017692566,0,
00:09.5,0.001321793,0.003015518,0.01770401,0,
00:09.5,0.001316071,0.003009796,0.017686844,0,
00:09.5,0.001321793,0.003004074,0.017692566,0,
00:09.5,0.001327515,0.003009796,0.01770401,0,
00:09.5,0.001338959,0.003015518,0.017692566,0,
00:09.5,0.001321793,0.003004074,0.017686844,0,
00:09.5,0.001327515,0.003009796,0.017698288,0,
00:09.5,0.001327515,0.003009796,0.017681122,0,
00:09.5,0.001350403,0.003009796,0.017692566,0,
00:09.5,0.001338959,0.003009796,0.017698288,0,
00:09.5,0.001327515,0.003009796,0.017692566,0,
00:09.5,0.001327515,0.003015518,0.017698288,0,
00:09.5,0.001344681,0.003009796,0.017698288,0,
00:09.5,0.001350403,0.003009796,0.017692566,0,
00:09.5,0.001344681,0.003009796,0.017692566,0,
00:09.5,0.001327515,0.003009796,0.017692566,0,
00:09.5,0.001333237,0.003009796,0.017698288,0,
00:09.5,0.001327515,0.003009796,0.01770401,0,
00:09.5,0.001321793,0.003015518,0.017692566,0,
00:09.5,0.001344681,0.00302124,0.017686844,0,
00:09.5,0.001344681,0.00302124,0.017692566,0,
00:09.6,0.001338959,0.003015518,0.017698288,0,
00:09.6,0.001344681,0.003009796,0.017686844,0,
00:09.6,0.001338959,0.003015518,0.01770401,0,
00:09.6,0.001333237,0.003015518,0.017709732,0,
00:09.6,0.001333237,0.003009796,0.017692566,0,
00:09.6,0.001338959,0.003015518,0.017692566,0,
00:09.6,0.001344681,0.003015518,0.017692566,0,
00:09.6,0.001344681,0.003015518,0.017692566,0,
00:09.6,0.001333237,0.003015518,0.017698288,0,
00:09.6,0.001333237,0.00302124,0.01770401,0,
00:09.6,0.001344681,0.003015518,0.017686844,0,
00:09.6,0.001350403,0.003009796,0.0176754,0,
00:09.6,0.001333237,0.003009796,0.017686844,0,
00:09.6,0.001338959,0.003015518,0.017709732,0,
00:09.6,0.001338959,0.003015518,0.017709732,0,
00:09.6,0.001344681,0.00302124,0.017698288,0,
00:09.6,0.001344681,0.003015518,0.017686844,0,
00:09.6,0.001344681,0.003009796,0.0176754,0,
00:09.6,0.001344681,0.003015518,0.017692566,0,
00:09.6,0.001344681,0.003015518,0.0176754,0,
00:09.6,0.001344681,0.003009796,0.017681122,0,
00:09.6,0.001327515,0.003009796,0.017692566,0,
00:09.6,0.001338959,0.00302124,0.017692566,0,
00:09.6,0.001356125,0.00302124,0.017686844,0,
00:09.6,0.001350403,0.003015518,0.017681122,0,
00:09.7,0.001338959,0.003015518,0.017698288,0,
00:09.7,0.001344681,0.00302124,0.017681122,0,
00:09.7,0.001344681,0.003009796,0.017686844,0,
00:09.7,0.001338959,0.003009796,0.017686844,0,
00:09.7,0.001338959,0.003015518,0.017681122,0,
00:09.7,0.001344681,0.003015518,0.017692566,0,
00:09.7,0.001338959,0.003009796,0.017686844,0,
00:09.7,0.001338959,0.003015518,0.017681122,0,
00:09.7,0.001344681,0.00302124,0.0176754,0,
00:09.7,0.001327515,0.00302124,0.017686844,0,
00:09.7,0.001333237,0.003015518,0.017681122,0,
00:09.7,0.001344681,0.003015518,0.017669678,0,
00:09.7,0.001350403,0.003015518,0.017681122,0,
00:09.7,0.001356125,0.00302124,0.017681122,0,
00:09.7,0.001344681,0.00302124,0.0176754,0,
00:09.7,0.001338959,0.003015518,0.0176754,0,
00:09.7,0.001344681,0.003009796,0.017669678,0,
00:09.7,0.001344681,0.003015518,0.017698288,0,
00:09.7,0.001350403,0.00302124,0.017681122,0,
00:09.7,0.001350403,0.00302124,0.017681122,0,
00:09.7,0.001338959,0.00302124,0.017686844,0,
00:09.7,0.001338959,0.003009796,0.017681122,0,
00:09.7,0.001338959,0.003015518,0.017681122,0,
00:09.7,0.001338959,0.003015518,0.017686844,0,
00:09.7,0.001338959,0.003009796,0.017681122,0,
00:09.8,0.001356125,0.003009796,0.0176754,0,
00:09.8,0.001344681,0.003015518,0.017681122,0,
00:09.8,0.001344681,0.003009796,0.0176754,0,
00:09.8,0.001356125,0.00302124,0.017669678,0,
00:09.8,0.001338959,0.003015518,0.017663956,0,
00:09.8,0.001338959,0.003004074,0.017681122,0,
00:09.8,0.001344681,0.003009796,0.017681122,0,
00:09.8,0.001333237,0.003015518,0.017692566,0,
00:09.8,0.001350403,0.00302124,0.017686844,0,
00:09.8,0.001356125,0.003015518,0.017681122,0,
00:09.8,0.001338959,0.003009796,0.017686844,0,
00:09.8,0.001333237,0.003015518,0.017669678,0,
00:09.8,0.001350403,0.003015518,0.0176754,0,
00:09.8,0.001350403,0.003015518,0.017692566,0,
00:09.8,0.001344681,0.00302124,0.017686844,0,
00:09.8,0.001350403,0.003015518,0.017686844,0,
00:09.8,0.001338959,0.003015518,0.017692566,0,
00:09.8,0.001333237,0.003015518,0.017686844,0,
00:09.8,0.001356125,0.003009796,0.017681122,0,
00:09.8,0.001356125,0.003009796,0.017686844,0,
00:09.8,0.001338959,0.003015518,0.017698288,0,
00:09.8,0.001338959,0.003004074,0.017686844,0,
00:09.8,0.001344681,0.003009796,0.017692566,0,
00:09.8,0.001350403,0.00302124,0.017698288,0,
00:09.8,0.001338959,0.00302124,0.017692566,0,
00:09.9,0.001344681,0.003015518,0.017698288,0,
00:09.9,0.001344681,0.003015518,0.017698288,0,
00:09.9,0.001350403,0.003015518,0.017692566,0,
00:09.9,0.001350403,0.003015518,0.017686844,0,
00:09.9,0.001356125,0.00302124,0.017692566,0,
00:09.9,0.001344681,0.003015518,0.017686844,0,
00:09.9,0.001338959,0.003009796,0.01770401,0,
00:09.9,0.001338959,0.003009796,0.017692566,0,
00:09.9,0.001344681,0.003015518,0.017681122,0,
00:09.9,0.001344681,0.00302124,0.017669678,0,
00:09.9,0.001344681,0.00302124,0.017698288,0,
00:09.9,0.001344681,0.003015518,0.01770401,0,
00:09.9,0.001350403,0.003009796,0.017721176,0,
00:09.9,0.001356125,0.003015518,0.01770401,0,
00:09.9,0.001344681,0.003015518,0.01770401,0,
00:09.9,0.001338959,0.003015518,0.01770401,0,
00:09.9,0.001338959,0.003015518,0.017692566,0,
00:09.9,0.001350403,0.003004074,0.017698288,0,
00:09.9,0.001356125,0.00302124,0.017698288,0,
00:09.9,0.001350403,0.003015518,0.017692566,0,
00:09.9,0.001344681,0.003004074,0.017709732,0,
00:09.9,0.001338959,0.003004074,0.01770401,0,
00:09.9,0.001344681,0.003009796,0.017698288,0,
00:09.9,0.001338959,0.003015518,0.017692566,0,
00:09.9,0.001344681,0.003009796,0.017692566,0,
00:10.0,0.001338959,0.003009796,0.017698288,0,
00:10.0,0.001344681,0.003009796,0.017692566,0,
00:10.0,0.001350403,0.003009796,0.017692566,0,
00:10.0,0.001344681,0.00302124,0.01770401,0,
00:10.0,0.001338959,0.00302124,0.01770401,0,
00:10.0,0.001344681,0.003015518,0.017692566,0,
00:10.0,0.001338959,0.003009796,0.01770401,0,
00:10.0,0.001344681,0.003009796,0.017709732,0,
00:10.0,0.001344681,0.003015518,0.01770401,0,
00:10.0,0.001344681,0.00302124,0.01770401,0,
00:10.0,0.001344681,0.003015518,0.017692566,0,
00:10.0,0.001338959,0.003004074,0.017698288,0,
00:00:10,0.001333237,0.003004074,0.017709732,0,
00:10.0,0.001338959,0.003009796,0.017698288,0,
00:10.0,0.001356125,0.003015518,0.017686844,0,
00:10.0,0.001350403,0.003009796,0.01770401,0,
00:10.0,0.001344681,0.003009796,0.017698288,0,
00:10.0,0.001344681,0.003009796,0.01770401,0,
00:10.0,0.001344681,0.003015518,0.017692566,0,
00:10.0,0.001327515,0.003015518,0.017692566,0,
00:10.0,0.001344681,0.003009796,0.017692566,0,
00:10.0,0.001344681,0.003009796,0.017698288,0,
00:10.0,0.001350403,0.003015518,0.017698288,0,
00:10.0,0.001344681,0.003015518,0.017698288,0,
00:10.0,0.001344681,0.003009796,0.01770401,0,
00:10.1,0.001350403,0.003015518,0.017698288,0,
00:10.1,0.001344681,0.003009796,0.01770401,0,
00:10.1,0.001344681,0.003009796,0.017698288,0,
00:10.1,0.001333237,0.003015518,0.017698288,0,
00:10.1,0.001350403,0.003026962,0.017709732,0,
00:10.1,0.001344681,0.00302124,0.01770401,0,
00:10.1,0.001344681,0.003004074,0.017709732,0,
00:10.1,0.001350403,0.003004074,0.017709732,0,
00:10.1,0.001338959,0.003015518,0.017692566,0,
00:10.1,0.001321793,0.003009796,0.017698288,0,
00:10.1,0.001333237,0.003009796,0.017698288,0,
00:10.1,0.001344681,0.003009796,0.01770401,0,
00:10.1,0.001350403,0.003009796,0.01770401,0,
00:10.1,0.001344681,0.00302124,0.01770401,0,
00:10.1,0.001338959,0.00302124,0.017709732,0,
00:10.1,0.001333237,0.003009796,0.01770401,0,
00:10.1,0.001350403,0.003009796,0.017698288,0,
00:10.1,0.001333237,0.003015518,0.017698288,0,
00:10.1,0.001333237,0.003009796,0.01770401,0,
00:10.1,0.001344681,0.003015518,0.017698288,0,
00:10.1,0.001338959,0.003015518,0.017698288,0,
00:10.1,0.001350403,0.003009796,0.01770401,0,
00:10.1,0.001344681,0.003009796,0.017698288,0,
00:10.1,0.001338959,0.003015518,0.017709732,0,
00:10.1,0.001344681,0.003015518,0.017709732,0,
00:10.2,0.001333237,0.003015518,0.017709732,0,
00:10.2,0.001350403,0.003009796,0.017698288,0,
00:10.2,0.001344681,0.003015518,0.017698288,0,
00:10.2,0.001338959,0.003015518,0.01770401,0,
00:10.2,0.001338959,0.003015518,0.01770401,0,
00:10.2,0.001327515,0.003015518,0.017698288,0,
00:10.2,0.001327515,0.003004074,0.017692566,0,
00:10.2,0.001344681,0.003009796,0.01770401,0,
00:10.2,0.001356125,0.00302124,0.017715454,0,
00:10.2,0.001350403,0.003015518,0.017709732,0,
00:10.2,0.001344681,0.003009796,0.01770401,0,
00:10.2,0.001338959,0.003009796,0.01770401,0,
00:10.2,0.001338959,0.003009796,0.017698288,0,
00:10.2,0.001344681,0.003009796,0.01770401,0,
00:10.2,0.001338959,0.003015518,0.017709732,0,
00:10.2,0.001338959,0.003009796,0.017698288,0,
00:10.2,0.001338959,0.003009796,0.017721176,0,
00:10.2,0.001338959,0.003009796,0.017709732,0,
00:10.2,0.001333237,0.003009796,0.017709732,0,
00:10.2,0.001350403,0.00302124,0.017692566,0,
00:10.2,0.001356125,0.003015518,0.017698288,0,
00:10.2,0.001350403,0.003009796,0.01770401,0,
00:10.2,0.001344681,0.003004074,0.017698288,0,
00:10.2,0.001350403,0.003015518,0.01770401,0,
00:10.2,0.001356125,0.003015518,0.017698288,0,
00:10.3,0.001344681,0.003004074,0.017715454,0,
00:10.3,0.001338959,0.003004074,0.017726898,0,
00:10.3,0.001338959,0.003004074,0.017715454,0,
00:10.3,0.001338959,0.003015518,0.017715454,0,
00:10.3,0.001344681,0.003015518,0.017715454,0,
00:10.3,0.001344681,0.003004074,0.01770401,0,
00:10.3,0.001338959,0.003015518,0.01770401,0,
00:10.3,0.001333237,0.003004074,0.017698288,0,
