Elapsed_Time,EMG1,EMG2,EMG3,BioRadio Event,Unnamed: 5
00:00:00,0.003009796,0.001361847,0.006958008,0,
00:00.0,0.003004074,0.001361847,0.006952286,0,
00:00.0,0.002998352,0.001367569,0.006969452,0,
00:00.0,0.00299263,0.001384735,0.006975174,0,
00:00.0,0.002998352,0.001361847,0.006980896,0,
00:00.0,0.00299263,0.001373291,0.006998062,0,
00:00.0,0.002998352,0.001379013,0.006986618,0,
00:00.0,0.003004074,0.001379013,0.00699234,0,
00:00.0,0.003009796,0.001396179,0.00699234,0,
00:00.0,0.003009796,0.001384735,0.006986618,0,
00:00.0,0.003004074,0.001373291,0.006998062,0,
00:00.0,0.003004074,0.001390457,0.007009506,0,
00:00.0,0.003009796,0.001396179,0.007015228,0,
00:00.1,0.003004074,0.001401901,0.007009506,0,
00:00.1,0.003004074,0.001407623,0.007009506,0,
00:00.1,0.003009796,0.001401901,0.00702095,0,
00:00.1,0.003009796,0.001384735,0.007032394,0,
00:00.1,0.003015518,0.001396179,0.007032394,0,
00:00.1,0.003015518,0.001396179,0.007032394,0,
00:00.1,0.003015518,0.001407623,0.00702095,0,
00:00.1,0.003009796,0.001407623,0.007043839,0,
00:00.1,0.003004074,0.001407623,0.007043839,0,
00:00.1,0.003009796,0.001413345,0.007043839,0,
00:00.1,0.003015518,0.001419067,0.007055283,0,
00:00.1,0.003015518,0.001419067,0.007066727,0,
00:00.1,0.003009796,0.001401901,0.007061005,0,
00:00.1,0.003009796,0.001413345,0.007066727,0,
00:00.1,0.003009796,0.001419067,0.007066727,0,
00:00.1,0.003009796,0.001413345,0.007078171,0,
00:00.1,0.003004074,0.001396179,0.007078171,0,
00:00.1,0.003015518,0.001401901,0.007072449,0,
00:00.1,0.00302124,0.001407623,0.007095337,0,
00:00.1,0.00302124,0.001441956,0.007095337,0,
00:00.1,0.003015518,0.001436234,0.007095337,0,
00:00.1,0.003015518,0.001424789,0.007101059,0,
00:00.1,0.00302124,0.001419067,0.007112503,0,
00:00.1,0.003015518,0.001396179,0.007123947,0,
00:00.1,0.003015518,0.001419067,0.007123947,0,
00:00.2,0.00302124,0.001436234,0.007129669,0,
00:00.2,0.003026962,0.001436234,0.007123947,0,
00:00.2,0.003026962,0.001441956,0.007123947,0,
00:00.2,0.003032684,0.001436234,0.007135391,0,
00:00.2,0.00302124,0.001430511,0.007141113,0,
00:00.2,0.00302124,0.001441956,0.007129669,0,
00:00.2,0.00302124,0.001447678,0.007141113,0,
00:00.2,0.00302124,0.001441956,0.007158279,0,
00:00.2,0.00302124,0.001441956,0.007152557,0,
00:00.2,0.00302124,0.001436234,0.007169724,0,
00:00.2,0.00302124,0.001447678,0.007169724,0,
00:00.2,0.003026962,0.001459122,0.007164001,0,
00:00.2,0.003026962,0.001464844,0.007169724,0,
00:00.2,0.003026962,0.001464844,0.007175446,0,
00:00.2,0.003026962,0.0014534,0.007181168,0,
00:00.2,0.003026962,0.001459122,0.007175446,0,
00:00.2,0.003026962,0.0014534,0.0072155,0,
00:00.2,0.003038406,0.001459122,0.007204056,0,
00:00.2,0.003038406,0.001459122,0.007204056,0,
00:00.2,0.003032684,0.0014534,0.007204056,0,
00:00.2,0.003032684,0.0014534,0.007198334,0,
00:00.2,0.003026962,0.0014534,0.007209778,0,
00:00.2,0.003032684,0.001459122,0.007226944,0,
00:00.2,0.003044128,0.001487732,0.007226944,0,
00:00.2,0.003044128,0.001464844,0.007226944,0,
00:00.3,0.003044128,0.001464844,0.007226944,0,
00:00.3,0.00304985,0.001493454,0.007232666,0,
00:00.3,0.00304985,0.001487732,0.007232666,0,
00:00.3,0.00304985,0.001487732,0.00724411,0,
00:00.3,0.003038406,0.001487732,0.007249832,0,
00:00.3,0.003038406,0.001493454,0.007255554,0,
00:00.3,0.003038406,0.001487732,0.00724411,0,
00:00.3,0.00304985,0.001487732,0.00724411,0,
00:00.3,0.003044128,0.001499176,0.00724411,0,
00:00.3,0.003038406,0.001493454,0.007249832,0,
00:00.3,0.003044128,0.001493454,0.007266998,0,
00:00.3,0.003044128,0.001504898,0.007278442,0,
00:00.3,0.00304985,0.001499176,0.007266998,0,
00:00.3,0.00304985,0.001493454,0.007266998,0,
00:00.3,0.00304985,0.001499176,0.007284164,0,
00:00.3,0.00304985,0.001499176,0.007278442,0,
00:00.3,0.00304985,0.001499176,0.007284164,0,
00:00.3,0.003055573,0.001499176,0.007284164,0,
00:00.3,0.003044128,0.001487732,0.007289886,0,
00:00.3,0.00304985,0.001487732,0.007301331,0,
00:00.3,0.003044128,0.001499176,0.007312775,0,
00:00.3,0.003032684,0.001493454,0.007312775,0,
00:00.3,0.003061295,0.001527786,0.007307053,0,
00:00.3,0.003061295,0.001516342,0.007318497,0,
00:00.3,0.003061295,0.00151062,0.007318497,0,
00:00.4,0.00304985,0.001522064,0.007318497,0,
00:00.4,0.003044128,0.001516342,0.007329941,0,
00:00.4,0.003055573,0.001522064,0.007335663,0,
00:00.4,0.003061295,0.001522064,0.007329941,0,
00:00.4,0.00304985,0.001522064,0.007324219,0,
00:00.4,0.003055573,0.00151062,0.007329941,0,
00:00.4,0.003061295,0.00151062,0.007347107,0,
00:00.4,0.003061295,0.001516342,0.007341385,0,
00:00.4,0.003061295,0.001522064,0.007352829,0,
00:00.4,0.00304985,0.001533508,0.007358551,0,
00:00.4,0.00304985,0.001527786,0.007364273,0,
00:00.4,0.003055573,0.001533508,0.007369995,0,
00:00.4,0.003061295,0.001516342,0.007369995,0,
00:00.4,0.003061295,0.001522064,0.007364273,0,
00:00.4,0.003067017,0.00153923,0.007369995,0,
00:00.4,0.003067017,0.00153923,0.007375717,0,
00:00.4,0.003061295,0.001533508,0.007381439,0,
00:00.4,0.003067017,0.001527786,0.007381439,0,
00:00.4,0.003055573,0.001533508,0.007387161,0,
00:00.4,0.003061295,0.00153923,0.007387161,0,
00:00.4,0.00304985,0.001522064,0.007398605,0,
00:00.4,0.003055573,0.001527786,0.007404327,0,
00:00.4,0.003061295,0.001533508,0.007404327,0,
00:00.4,0.003055573,0.001533508,0.007410049,0,
00:00.4,0.003061295,0.001562119,0.007410049,0,
00:00.5,0.003067017,0.001562119,0.007410049,0,
00:00.5,0.003061295,0.001544952,0.007421494,0,
00:00.5,0.003067017,0.001544952,0.007421494,0,
00:00.5,0.003067017,0.001544952,0.007415771,0,
00:00.5,0.003067017,0.001544952,0.007427216,0,
00:00.5,0.003055573,0.001550674,0.007432938,0,
00:00.5,0.003055573,0.001550674,0.00743866,0,
00:00.5,0.003061295,0.001550674,0.00743866,0,
00:00.5,0.003061295,0.001556396,0.007450104,0,
00:00.5,0.003067017,0.001562119,0.007444382,0,
00:00.5,0.003067017,0.001567841,0.007432938,0,
00:00.5,0.003067017,0.001562119,0.00743866,0,
00:00.5,0.003072739,0.001567841,0.007450104,0,
00:00.5,0.003072739,0.001573563,0.007461548,0,
00:00.5,0.003067017,0.001567841,0.007461548,0,
00:00.5,0.003061295,0.001556396,0.007455826,0,
00:00.5,0.003067017,0.001562119,0.007472992,0,
00:00.5,0.003072739,0.001567841,0.007478714,0,
00:00.5,0.003061295,0.001562119,0.007478714,0,
00:00.5,0.003072739,0.001585007,0.00746727,0,
00:00.5,0.003067017,0.001562119,0.007478714,0,
00:00.5,0.003055573,0.001573563,0.007478714,0,
00:00.5,0.003061295,0.001567841,0.007490158,0,
00:00.5,0.003067017,0.001567841,0.007507324,0,
00:00.5,0.003067017,0.001585007,0.007507324,0,
00:00.6,0.003067017,0.001573563,0.00752449,0,
00:00.6,0.003072739,0.001573563,0.007507324,0,
00:00.6,0.003072739,0.001579285,0.007513046,0,
00:00.6,0.003084183,0.001590729,0.007513046,0,
00:00.6,0.003078461,0.001579285,0.007513046,0,
00:00.6,0.003067017,0.001585007,0.00752449,0,
00:00.6,0.003067017,0.001596451,0.00752449,0,
00:00.6,0.003067017,0.001585007,0.00752449,0,
00:00.6,0.003072739,0.001590729,0.00752449,0,
00:00.6,0.003078461,0.001602173,0.007535934,0,
00:00.6,0.003067017,0.001602173,0.007535934,0,
00:00.6,0.003072739,0.001602173,0.007541656,0,
00:00.6,0.003072739,0.001596451,0.007541656,0,
00:00.6,0.003078461,0.001596451,0.007541656,0,
00:00.6,0.003067017,0.001596451,0.007547379,0,
00:00.6,0.003067017,0.001590729,0.007558823,0,
00:00.6,0.003078461,0.001590729,0.007553101,0,
00:00.6,0.003078461,0.001602173,0.007553101,0,
00:00.6,0.003084183,0.001590729,0.007541656,0,
00:00.6,0.003084183,0.001625061,0.007547379,0,
00:00.6,0.003067017,0.001602173,0.007593155,0,
00:00.6,0.003072739,0.001602173,0.007598877,0,
00:00.6,0.003078461,0.001607895,0.007587433,0,
00:00.6,0.003089905,0.001607895,0.007575989,0,
00:00.6,0.003084183,0.001613617,0.007570267,0,
00:00.7,0.003067017,0.001613617,0.007610321,0,
00:00.7,0.003067017,0.001607895,0.007593155,0,
00:00.7,0.003078461,0.001602173,0.007604599,0,
00:00.7,0.003072739,0.001613617,0.007610321,0,
00:00.7,0.003072739,0.001630783,0.007616043,0,
00:00.7,0.003072739,0.001630783,0.007610321,0,
00:00.7,0.003072739,0.001630783,0.007610321,0,
00:00.7,0.003078461,0.001625061,0.007610321,0,
00:00.7,0.003072739,0.001630783,0.007604599,0,
00:00.7,0.003067017,0.001630783,0.007616043,0,
00:00.7,0.003072739,0.001630783,0.007627487,0,
00:00.7,0.003078461,0.001630783,0.007638931,0,
00:00.7,0.003072739,0.001630783,0.007627487,0,
00:00.7,0.003072739,0.001619339,0.007627487,0,
00:00.7,0.003078461,0.001636505,0.007656097,0,
00:00.7,0.003072739,0.001642227,0.007650375,0,
00:00.7,0.003067017,0.001619339,0.007661819,0,
00:00.7,0.003078461,0.001630783,0.007656097,0,
00:00.7,0.003078461,0.001642227,0.007644653,0,
00:00.7,0.003072739,0.001647949,0.007656097,0,
00:00.7,0.003072739,0.001642227,0.007661819,0,
00:00.7,0.003078461,0.001647949,0.007667542,0,
00:00.7,0.003084183,0.001630783,0.007678986,0,
00:00.7,0.003084183,0.001642227,0.007678986,0,
00:00.7,0.003072739,0.001642227,0.007673264,0,
00:00.8,0.003072739,0.001642227,0.00769043,0,
00:00.8,0.003072739,0.001636505,0.007696152,0,
00:00.8,0.003084183,0.001630783,0.007696152,0,
00:00.8,0.003078461,0.001642227,0.00769043,0,
00:00.8,0.003084183,0.001670837,0.00769043,0,
00:00.8,0.003078461,0.001659393,0.007696152,0,
00:00.8,0.003078461,0.001653671,0.007707596,0,
00:00.8,0.003078461,0.001653671,0.007696152,0,
00:00.8,0.003084183,0.001659393,0.007696152,0,
00:00.8,0.003095627,0.001670837,0.007713318,0,
00:00.8,0.003084183,0.001653671,0.007713318,0,
00:00.8,0.003084183,0.001647949,0.00771904,0,
00:00.8,0.003089905,0.001653671,0.007713318,0,
00:00.8,0.003084183,0.001659393,0.007724762,0,
00:00.8,0.003084183,0.001665115,0.007724762,0,
00:00.8,0.003078461,0.001665115,0.007724762,0,
00:00.8,0.003084183,0.001665115,0.007736206,0,
00:00.8,0.003084183,0.001653671,0.007741928,0,
00:00.8,0.003084183,0.001659393,0.007741928,0,
00:00.8,0.003078461,0.001670837,0.007741928,0,
00:00.8,0.003078461,0.001659393,0.007741928,0,
00:00.8,0.003078461,0.001653671,0.007753372,0,
00:00.8,0.003078461,0.001653671,0.007770538,0,
00:00.8,0.003072739,0.001659393,0.00777626,0,
00:00.8,0.003078461,0.001676559,0.00777626,0,
00:00.9,0.003084183,0.001676559,0.00777626,0,
00:00.9,0.003072739,0.001682281,0.007770538,0,
00:00.9,0.003089905,0.001688004,0.007764816,0,
00:00.9,0.003078461,0.001670837,0.007793427,0,
00:00.9,0.003084183,0.001682281,0.007793427,0,
00:00.9,0.003078461,0.001693726,0.007787704,0,
00:00.9,0.003084183,0.001693726,0.00777626,0,
00:00.9,0.003089905,0.001688004,0.007781982,0,
00:00.9,0.003084183,0.001688004,0.007781982,0,
00:00.9,0.003089905,0.001693726,0.007787704,0,
00:00.9,0.003089905,0.001688004,0.007787704,0,
00:00.9,0.003084183,0.001676559,0.007787704,0,
00:00.9,0.003078461,0.001682281,0.007810593,0,
00:00.9,0.003089905,0.001693726,0.007810593,0,
00:00.9,0.003089905,0.001699448,0.007810593,0,
00:00.9,0.003084183,0.001693726,0.007816315,0,
00:00.9,0.003089905,0.001693726,0.007810593,0,
00:00.9,0.003095627,0.00170517,0.007822037,0,
00:00.9,0.003089905,0.001693726,0.007827759,0,
00:00.9,0.003084183,0.001699448,0.007816315,0,
00:00.9,0.003084183,0.001693726,0.007827759,0,
00:00.9,0.003089905,0.00170517,0.007827759,0,
00:00.9,0.003089905,0.001699448,0.007833481,0,
00:00.9,0.003084183,0.001699448,0.007833481,0,
00:00.9,0.003095627,0.00170517,0.007839203,0,
00:01.0,0.003084183,0.001699448,0.007833481,0,
00:01.0,0.003084183,0.00170517,0.007850647,0,
00:01.0,0.003095627,0.001693726,0.007862091,0,
00:01.0,0.003101349,0.001716614,0.007856369,0,
00:01.0,0.003101349,0.001722336,0.007856369,0,
00:01.0,0.003095627,0.001710892,0.007856369,0,
00:01.0,0.003089905,0.001710892,0.007862091,0,
00:01.0,0.003089905,0.00170517,0.007873535,0,
00:01.0,0.003089905,0.001728058,0.007873535,0,
00:01.0,0.003084183,0.001722336,0.007873535,0,
00:01.0,0.003084183,0.001710892,0.007873535,0,
00:01.0,0.003084183,0.00170517,0.007884979,0,
00:00:01,0.003095627,0.001716614,0.007890701,0,
00:01.0,0.003095627,0.00173378,0.007890701,0,
00:01.0,0.003084183,0.001722336,0.007896423,0,
00:01.0,0.003084183,0.001716614,0.007896423,0,
00:01.0,0.003089905,0.001739502,0.007890701,0,
00:01.0,0.003095627,0.001728058,0.007896423,0,
00:01.0,0.003095627,0.001728058,0.007902145,0,
00:01.0,0.003095627,0.001722336,0.007902145,0,
00:01.0,0.003095627,0.001739502,0.007896423,0,
00:01.0,0.003084183,0.001739502,0.007884979,0,
00:01.0,0.003089905,0.001716614,0.007907867,0,
00:01.0,0.003095627,0.001728058,0.007930756,0,
00:01.0,0.003095627,0.001728058,0.007919312,0,
00:01.1,0.003095627,0.001739502,0.007930756,0,
00:01.1,0.003101349,0.001739502,0.007925034,0,
00:01.1,0.003095627,0.001728058,0.007919312,0,
00:01.1,0.003095627,0.001739502,0.007925034,0,
00:01.1,0.003095627,0.001728058,0.0079422,0,
00:01.1,0.003101349,0.00173378,0.007936478,0,
00:01.1,0.003095627,0.001722336,0.007930756,0,
00:01.1,0.003101349,0.001745224,0.007936478,0,
00:01.1,0.003095627,0.001745224,0.0079422,0,
00:01.1,0.003095627,0.001739502,0.0079422,0,
00:01.1,0.003101349,0.001750946,0.007930756,0,
00:01.1,0.003095627,0.001745224,0.007947922,0,
00:01.1,0.003101349,0.001739502,0.007959366,0,
00:01.1,0.003107071,0.001750946,0.007953644,0,
00:01.1,0.003101349,0.00176239,0.007959366,0,
00:01.1,0.003095627,0.001739502,0.007976532,0,
00:01.1,0.003101349,0.001745224,0.00797081,0,
00:01.1,0.003101349,0.001739502,0.007976532,0,
00:01.1,0.003101349,0.001745224,0.007953644,0,
00:01.1,0.003095627,0.001745224,0.00797081,0,
00:01.1,0.003101349,0.001756668,0.007993698,0,
00:01.1,0.003107071,0.001756668,0.007982254,0,
00:01.1,0.003101349,0.001745224,0.007982254,0,
00:01.1,0.003118515,0.001756668,0.007987976,0,
00:01.1,0.003112793,0.00176239,0.007982254,0,
00:01.2,0.003101349,0.001750946,0.007982254,0,
00:01.2,0.003107071,0.001750946,0.007993698,0,
00:01.2,0.003101349,0.001739502,0.00799942,0,
00:01.2,0.003101349,0.001745224,0.008005142,0,
00:01.2,0.003112793,0.001768112,0.00799942,0,
00:01.2,0.003112793,0.00176239,0.008016586,0,
00:01.2,0.003112793,0.001756668,0.008010864,0,
00:01.2,0.003107071,0.001756668,0.008005142,0,
00:01.2,0.003107071,0.00176239,0.008010864,0,
00:01.2,0.003107071,0.001768112,0.008016586,0,
00:01.2,0.003101349,0.001779556,0.008016586,0,
00:01.2,0.003101349,0.001768112,0.008016586,0,
00:01.2,0.003112793,0.00176239,0.008010864,0,
00:01.2,0.003112793,0.001768112,0.008016586,0,
00:01.2,0.003107071,0.00176239,0.008039474,0,
00:01.2,0.003101349,0.00176239,0.008039474,0,
00:01.2,0.003118515,0.001768112,0.008033752,0,
00:01.2,0.003112793,0.00176239,0.008022308,0,
00:01.2,0.003107071,0.001756668,0.008033752,0,
00:01.2,0.003101349,0.001779556,0.008039474,0,
00:01.2,0.003112793,0.001779556,0.008050919,0,
00:01.2,0.003118515,0.001785278,0.008050919,0,
00:01.2,0.003112793,0.001773834,0.008056641,0,
00:01.2,0.003107071,0.001768112,0.008062363,0,
00:01.2,0.003112793,0.001779556,0.008062363,0,
00:01.3,0.003112793,0.001785278,0.008050919,0,
00:01.3,0.003107071,0.001773834,0.008068085,0,
00:01.3,0.003107071,0.001768112,0.008079529,0,
00:01.3,0.003107071,0.001773834,0.008079529,0,
00:01.3,0.003112793,0.001785278,0.008079529,0,
00:01.3,0.003118515,0.001779556,0.008073807,0,
00:01.3,0.003118515,0.001785278,0.008073807,0,
00:01.3,0.003107071,0.001785278,0.008079529,0,
00:01.3,0.003112793,0.001773834,0.008108139,0,
00:01.3,0.003112793,0.001773834,0.008096695,0,
00:01.3,0.003107071,0.001773834,0.008096695,0,
00:01.3,0.003112793,0.001785278,0.008090973,0,
00:01.3,0.003112793,0.001779556,0.008090973,0,
00:01.3,0.003112793,0.001779556,0.008096695,0,
00:01.3,0.003112793,0.001791,0.008096695,0,
00:01.3,0.003112793,0.001791,0.008096695,0,
00:01.3,0.003112793,0.001785278,0.008102417,0,
00:01.3,0.003112793,0.001785278,0.008113861,0,
00:01.3,0.003112793,0.001785278,0.008108139,0,
00:01.3,0.003118515,0.001785278,0.008102417,0,
00:01.3,0.003118515,0.001785278,0.008108139,0,
00:01.3,0.003112793,0.001785278,0.008119583,0,
00:01.3,0.003118515,0.001785278,0.008113861,0,
00:01.3,0.003118515,0.001796722,0.008119583,0,
00:01.3,0.003112793,0.001791,0.008113861,0,
00:01.4,0.003107071,0.001791,0.008136749,0,
00:01.4,0.003112793,0.001796722,0.008153915,0,
00:01.4,0.003112793,0.001779556,0.008148193,0,
00:01.4,0.003101349,0.00176239,0.008142471,0,
00:01.4,0.003101349,0.001785278,0.008136749,0,
00:01.4,0.003118515,0.001819611,0.008148193,0,
00:01.4,0.003112793,0.001813889,0.008142471,0,
00:01.4,0.003124237,0.001808167,0.008142471,0,
00:01.4,0.003124237,0.001808167,0.008142471,0,
00:01.4,0.003118515,0.001808167,0.008142471,0,
00:01.4,0.003118515,0.001802444,0.008148193,0,
00:01.4,0.003107071,0.001796722,0.008159637,0,
00:01.4,0.003124237,0.001808167,0.008159637,0,
00:01.4,0.003112793,0.001808167,0.008153915,0,
00:01.4,0.003112793,0.001802444,0.008159637,0,
00:01.4,0.003124237,0.001813889,0.008171082,0,
00:01.4,0.003118515,0.001796722,0.008171082,0,
00:01.4,0.003112793,0.001802444,0.008176804,0,
00:01.4,0.003112793,0.001796722,0.008171082,0,
00:01.4,0.003118515,0.001813889,0.008165359,0,
00:01.4,0.003112793,0.001831055,0.008176804,0,
00:01.4,0.003124237,0.001808167,0.008176804,0,
00:01.4,0.003124237,0.001808167,0.008182526,0,
00:01.4,0.003112793,0.001796722,0.008182526,0,
00:01.4,0.003124237,0.001808167,0.008171082,0,
00:01.5,0.003129959,0.001808167,0.008171082,0,
00:01.5,0.003118515,0.001808167,0.008205414,0,
00:01.5,0.003112793,0.001808167,0.008211136,0,
00:01.5,0.003112793,0.001808167,0.008199692,0,
00:01.5,0.003118515,0.001831055,0.00819397,0,
00:01.5,0.003129959,0.001831055,0.008211136,0,
00:01.5,0.003124237,0.001825333,0.00822258,0,
00:01.5,0.003124237,0.001819611,0.008216858,0,
00:01.5,0.003124237,0.001825333,0.008211136,0,
00:01.5,0.003118515,0.001825333,0.008205414,0,
00:01.5,0.003118515,0.001813889,0.008205414,0,
00:01.5,0.003112793,0.001813889,0.008211136,0,
00:01.5,0.003124237,0.001825333,0.008216858,0,
00:01.5,0.003118515,0.001825333,0.008216858,0,
00:01.5,0.003124237,0.001825333,0.008216858,0,
00:01.5,0.003112793,0.001825333,0.008211136,0,
00:01.5,0.003118515,0.001831055,0.00822258,0,
00:01.5,0.003124237,0.001825333,0.008234024,0,
00:01.5,0.003124237,0.001825333,0.008234024,0,
00:01.5,0.003118515,0.001825333,0.008234024,0,
00:01.5,0.003118515,0.001836777,0.008234024,0,
00:01.5,0.003124237,0.001819611,0.008234024,0,
00:01.5,0.003118515,0.001813889,0.008228302,0,
00:01.5,0.003124237,0.001836777,0.008239746,0,
00:01.5,0.003118515,0.001831055,0.008245468,0,
00:01.6,0.003107071,0.001813889,0.008245468,0,
00:01.6,0.003112793,0.001819611,0.008245468,0,
00:01.6,0.003124237,0.001842499,0.008228302,0,
00:01.6,0.003124237,0.001831055,0.008239746,0,
00:01.6,0.003124237,0.001825333,0.008262634,0,
00:01.6,0.003124237,0.001831055,0.008262634,0,
00:01.6,0.003129959,0.001825333,0.00825119,0,
00:01.6,0.003118515,0.001813889,0.008262634,0,
00:01.6,0.003118515,0.001819611,0.008262634,0,
00:01.6,0.003124237,0.001831055,0.008268356,0,
00:01.6,0.003118515,0.001825333,0.008268356,0,
00:01.6,0.003124237,0.001831055,0.008256912,0,
00:01.6,0.003124237,0.001825333,0.008268356,0,
00:01.6,0.003124237,0.001825333,0.008268356,0,
00:01.6,0.003124237,0.001831055,0.008262634,0,
00:01.6,0.003124237,0.001831055,0.008262634,0,
00:01.6,0.003118515,0.001819611,0.008262634,0,
00:01.6,0.003124237,0.001831055,0.008268356,0,
00:01.6,0.003118515,0.001842499,0.008274078,0,
00:01.6,0.003118515,0.001831055,0.00825119,0,
00:01.6,0.003112793,0.001831055,0.008268356,0,
00:01.6,0.003118515,0.001831055,0.008291245,0,
00:01.6,0.003118515,0.001825333,0.008308411,0,
00:01.6,0.003124237,0.001831055,0.008302689,0,
00:01.6,0.003124237,0.001848221,0.0082798,0,
00:01.7,0.003112793,0.001836777,0.008296967,0,
00:01.7,0.003112793,0.001813889,0.008308411,0,
00:01.7,0.003112793,0.001825333,0.008302689,0,
00:01.7,0.003118515,0.001836777,0.008302689,0,
00:01.7,0.003124237,0.001836777,0.008296967,0,
00:01.7,0.003118515,0.001836777,0.008296967,0,
00:01.7,0.003118515,0.001836777,0.008308411,0,
00:01.7,0.003129959,0.001836777,0.008308411,0,
00:01.7,0.003124237,0.001836777,0.008302689,0,
00:01.7,0.003118515,0.001842499,0.008296967,0,
00:01.7,0.003124237,0.001842499,0.008302689,0,
00:01.7,0.003124237,0.001836777,0.008308411,0,
00:01.7,0.003129959,0.001831055,0.008308411,0,
00:01.7,0.003124237,0.001836777,0.008325577,0,
00:01.7,0.003124237,0.001842499,0.008331299,0,
00:01.7,0.003118515,0.001836777,0.008325577,0,
00:01.7,0.003124237,0.001831055,0.008337021,0,
00:01.7,0.003124237,0.001842499,0.008331299,0,
00:01.7,0.003118515,0.001831055,0.008319855,0,
00:01.7,0.003124237,0.001825333,0.008331299,0,
00:01.7,0.003118515,0.001825333,0.008342743,0,
00:01.7,0.003124237,0.001836777,0.008337021,0,
00:01.7,0.003118515,0.001842499,0.008331299,0,
00:01.7,0.003135681,0.001853943,0.008331299,0,
00:01.7,0.003129959,0.001842499,0.008342743,0,
00:01.8,0.003124237,0.001836777,0.008354187,0,
00:01.8,0.003118515,0.001831055,0.008348465,0,
00:01.8,0.003107071,0.001819611,0.008342743,0,
00:01.8,0.003124237,0.001836777,0.008348465,0,
00:01.8,0.003118515,0.001859665,0.008342743,0,
00:01.8,0.003129959,0.001859665,0.008354187,0,
00:01.8,0.003135681,0.001848221,0.008365631,0,
00:01.8,0.003129959,0.001842499,0.008365631,0,
00:01.8,0.003124237,0.001848221,0.008359909,0,
00:01.8,0.003124237,0.001853943,0.008365631,0,
00:01.8,0.003118515,0.001859665,0.008371353,0,
00:01.8,0.003129959,0.001848221,0.008359909,0,
00:01.8,0.003135681,0.001848221,0.008371353,0,
00:01.8,0.003129959,0.001853943,0.008365631,0,
00:01.8,0.003118515,0.001848221,0.008377075,0,
00:01.8,0.003118515,0.001842499,0.008388519,0,
00:01.8,0.003124237,0.001842499,0.008388519,0,
00:01.8,0.003124237,0.001842499,0.008377075,0,
00:01.8,0.003124237,0.001853943,0.008377075,0,
00:01.8,0.003118515,0.001842499,0.008388519,0,
00:01.8,0.003107071,0.001842499,0.008399963,0,
00:01.8,0.003112793,0.001853943,0.008394241,0,
00:01.8,0.003118515,0.001836777,0.008394241,0,
00:01.8,0.003107071,0.001836777,0.008388519,0,
00:01.8,0.003118515,0.001848221,0.008394241,0,
00:01.9,0.003135681,0.001871109,0.008399963,0,
00:01.9,0.003135681,0.001871109,0.008399963,0,
00:01.9,0.003124237,0.001865387,0.008399963,0,
00:01.9,0.003129959,0.001853943,0.008399963,0,
00:01.9,0.003124237,0.001842499,0.008399963,0,
00:01.9,0.003118515,0.001853943,0.008399963,0,
00:01.9,0.003124237,0.001859665,0.008411407,0,
00:01.9,0.003129959,0.001865387,0.008422852,0,
00:01.9,0.003129959,0.001865387,0.008422852,0,
00:01.9,0.003129959,0.001871109,0.00841713,0,
00:01.9,0.003124237,0.001865387,0.00841713,0,
00:01.9,0.003124237,0.001859665,0.008434296,0,
00:01.9,0.003124237,0.001853943,0.008440018,0,
00:01.9,0.003118515,0.001859665,0.008440018,0,
00:01.9,0.003124237,0.001865387,0.008422852,0,
00:01.9,0.003124237,0.001853943,0.008434296,0,
00:01.9,0.003124237,0.001853943,0.008440018,0,
00:01.9,0.003124237,0.001853943,0.008434296,0,
00:01.9,0.003124237,0.001859665,0.008434296,0,
00:01.9,0.003118515,0.001859665,0.00844574,0,
00:01.9,0.003124237,0.001882553,0.00844574,0,
00:01.9,0.003129959,0.001865387,0.008440018,0,
00:01.9,0.003135681,0.001865387,0.008440018,0,
00:01.9,0.003129959,0.001871109,0.008457184,0,
00:01.9,0.003112793,0.001865387,0.008462906,0,
00:02.0,0.003118515,0.001853943,0.008462906,0,
00:02.0,0.003135681,0.001882553,0.008457184,0,
00:02.0,0.003129959,0.001865387,0.008451462,0,
00:02.0,0.003118515,0.001865387,0.008457184,0,
00:02.0,0.003124237,0.001859665,0.008457184,0,
00:02.0,0.003124237,0.001871109,0.00847435,0,
00:02.0,0.003141403,0.001882553,0.008462906,0,
00:02.0,0.003129959,0.001859665,0.008468628,0,
00:02.0,0.003124237,0.001865387,0.008468628,0,
00:02.0,0.003124237,0.001876831,0.008480072,0,
00:02.0,0.003124237,0.001871109,0.008480072,0,
00:02.0,0.003129959,0.001853943,0.00847435,0,
00:00:02,0.003129959,0.001871109,0.008491516,0,
00:02.0,0.003118515,0.001871109,0.008491516,0,
00:02.0,0.003124237,0.001865387,0.008480072,0,
00:02.0,0.003118515,0.001859665,0.008491516,0,
00:02.0,0.003124237,0.001871109,0.00850296,0,
00:02.0,0.003124237,0.001871109,0.008497238,0,
00:02.0,0.003118515,0.001865387,0.008497238,0,
00:02.0,0.003124237,0.001882553,0.008508682,0,
00:02.0,0.003118515,0.001871109,0.008508682,0,
00:02.0,0.003118515,0.001859665,0.00850296,0,
00:02.0,0.003124237,0.001876831,0.008497238,0,
00:02.0,0.003129959,0.001882553,0.008520126,0,
00:02.0,0.003129959,0.001871109,0.008514404,0,
00:02.1,0.003129959,0.001876831,0.008514404,0,
00:02.1,0.003129959,0.001876831,0.008520126,0,
00:02.1,0.003135681,0.001876831,0.008525848,0,
00:02.1,0.003135681,0.001876831,0.008520126,0,
00:02.1,0.003124237,0.001876831,0.00853157,0,
00:02.1,0.003118515,0.001871109,0.008525848,0,
00:02.1,0.003118515,0.001871109,0.00853157,0,
00:02.1,0.003129959,0.001871109,0.008537292,0,
00:02.1,0.003129959,0.001871109,0.008525848,0,
00:02.1,0.003124237,0.001871109,0.008525848,0,
00:02.1,0.003129959,0.001882553,0.008537292,0,
00:02.1,0.003124237,0.001876831,0.00853157,0,
00:02.1,0.003118515,0.001871109,0.008543015,0,
00:02.1,0.003124237,0.001882553,0.008543015,0,
00:02.1,0.003129959,0.001882553,0.008537292,0,
00:02.1,0.003112793,0.001859665,0.008537292,0,
00:02.1,0.003124237,0.001871109,0.008543015,0,
00:02.1,0.003124237,0.001876831,0.008548737,0,
00:02.1,0.003118515,0.001888275,0.008554459,0,
00:02.1,0.003124237,0.001893997,0.008554459,0,
00:02.1,0.003135681,0.001882553,0.008548737,0,
00:02.1,0.003135681,0.001888275,0.008554459,0,
00:02.1,0.003129959,0.001888275,0.008554459,0,
00:02.1,0.003129959,0.001876831,0.008548737,0,
00:02.1,0.003124237,0.001876831,0.008548737,0,
00:02.2,0.003124237,0.001876831,0.008554459,0,
00:02.2,0.003129959,0.001876831,0.008554459,0,
00:02.2,0.003129959,0.001871109,0.008560181,0,
00:02.2,0.003129959,0.001882553,0.008583069,0,
00:02.2,0.003118515,0.001882553,0.008560181,0,
00:02.2,0.003118515,0.001871109,0.008571625,0,
00:02.2,0.003135681,0.001865387,0.008588791,0,
00:02.2,0.003124237,0.001871109,0.008583069,0,
00:02.2,0.003118515,0.001882553,0.008588791,0,
00:02.2,0.003118515,0.001888275,0.008577347,0,
00:02.2,0.003124237,0.001876831,0.008571625,0,
00:02.2,0.003124237,0.001871109,0.008577347,0,
00:02.2,0.003135681,0.001882553,0.008577347,0,
00:02.2,0.003129959,0.001882553,0.008577347,0,
00:02.2,0.003118515,0.001871109,0.008577347,0,
00:02.2,0.003124237,0.001876831,0.008577347,0,
00:02.2,0.003124237,0.001882553,0.008583069,0,
00:02.2,0.003124237,0.001888275,0.008583069,0,
00:02.2,0.003118515,0.001888275,0.008588791,0,
00:02.2,0.003124237,0.001905441,0.008594513,0,
00:02.2,0.003129959,0.001888275,0.008571625,0,
00:02.2,0.003124237,0.001882553,0.008571625,0,
00:02.2,0.003124237,0.001888275,0.008583069,0,
00:02.2,0.003124237,0.001876831,0.008600235,0,
00:02.2,0.003118515,0.001876831,0.008617401,0,
00:02.3,0.003129959,0.001888275,0.008600235,0,
00:02.3,0.003124237,0.001888275,0.008588791,0,
00:02.3,0.003135681,0.001893997,0.008605957,0,
00:02.3,0.003124237,0.001893997,0.008600235,0,
00:02.3,0.003118515,0.001888275,0.008605957,0,
00:02.3,0.003118515,0.001882553,0.008605957,0,
00:02.3,0.003129959,0.001882553,0.008600235,0,
00:02.3,0.003129959,0.001893997,0.008611679,0,
00:02.3,0.003129959,0.001905441,0.008623123,0,
00:02.3,0.003124237,0.001893997,0.008611679,0,
00:02.3,0.003118515,0.001882553,0.008611679,0,
00:02.3,0.003124237,0.001882553,0.008611679,0,
00:02.3,0.003129959,0.001905441,0.008611679,0,
00:02.3,0.003124237,0.001905441,0.008605957,0,
00:02.3,0.003124237,0.001893997,0.008617401,0,
00:02.3,0.003118515,0.001893997,0.008623123,0,
00:02.3,0.003124237,0.001899719,0.008628845,0,
00:02.3,0.003118515,0.001888275,0.008628845,0,
00:02.3,0.003124237,0.001905441,0.008617401,0,
00:02.3,0.003124237,0.001899719,0.008628845,0,
00:02.3,0.003118515,0.001888275,0.008634567,0,
00:02.3,0.003112793,0.001888275,0.008640289,0,
00:02.3,0.003135681,0.001899719,0.008640289,0,
00:02.3,0.003129959,0.001905441,0.008634567,0,
00:02.3,0.003124237,0.001899719,0.008628845,0,
00:02.4,0.003118515,0.001893997,0.008651733,0,
00:02.4,0.003124237,0.001893997,0.008657455,0,
00:02.4,0.003124237,0.001899719,0.008657455,0,
00:02.4,0.003129959,0.001911163,0.008657455,0,
00:02.4,0.003129959,0.001905441,0.008651733,0,
00:02.4,0.003129959,0.001893997,0.008646011,0,
00:02.4,0.003124237,0.001905441,0.008651733,0,
00:02.4,0.003124237,0.001905441,0.008657455,0,
00:02.4,0.003135681,0.001899719,0.0086689,0,
00:02.4,0.003124237,0.001905441,0.008663177,0,
00:02.4,0.003124237,0.001899719,0.0086689,0,
00:02.4,0.003124237,0.001899719,0.008663177,0,
00:02.4,0.003129959,0.001899719,0.008657455,0,
00:02.4,0.003124237,0.001905441,0.008651733,0,
00:02.4,0.003124237,0.001905441,0.008657455,0,
00:02.4,0.003112793,0.001893997,0.0086689,0,
00:02.4,0.003124237,0.001899719,0.008680344,0,
00:02.4,0.003118515,0.001899719,0.008674622,0,
00:02.4,0.003124237,0.001905441,0.008686066,0,
00:02.4,0.003118515,0.001905441,0.008691788,0,
00:02.4,0.003112793,0.001905441,0.008680344,0,
00:02.4,0.003129959,0.001905441,0.008674622,0,
00:02.4,0.003124237,0.001905441,0.00869751,0,
00:02.4,0.003118515,0.001905441,0.00869751,0,
00:02.4,0.003124237,0.001916885,0.008703232,0,
00:02.5,0.003129959,0.001928329,0.008691788,0,
00:02.5,0.003124237,0.001905441,0.008686066,0,
00:02.5,0.003118515,0.001905441,0.00869751,0,
00:02.5,0.003118515,0.001905441,0.00869751,0,
00:02.5,0.003124237,0.001911163,0.008691788,0,
00:02.5,0.003129959,0.001911163,0.008686066,0,
00:02.5,0.003124237,0.001911163,0.008674622,0,
00:02.5,0.003124237,0.001916885,0.008703232,0,
00:02.5,0.003112793,0.001905441,0.008714676,0,
00:02.5,0.003118515,0.001916885,0.00869751,0,
00:02.5,0.003118515,0.001905441,0.008714676,0,
00:02.5,0.003135681,0.001911163,0.008708954,0,
00:02.5,0.003135681,0.001916885,0.00869751,0,
00:02.5,0.003124237,0.001911163,0.008731842,0,
00:02.5,0.003118515,0.001911163,0.008731842,0,
00:02.5,0.003118515,0.001911163,0.00872612,0,
00:02.5,0.003129959,0.001911163,0.008720398,0,
00:02.5,0.003118515,0.001911163,0.008720398,0,
00:02.5,0.003118515,0.001928329,0.008714676,0,
00:02.5,0.003124237,0.001922607,0.00872612,0,
00:02.5,0.003129959,0.001922607,0.008720398,0,
00:02.5,0.003124237,0.001905441,0.008731842,0,
00:02.5,0.003124237,0.001899719,0.008731842,0,
00:02.5,0.003129959,0.001916885,0.00872612,0,
00:02.5,0.003118515,0.001928329,0.008731842,0,
00:02.6,0.003118515,0.001905441,0.00872612,0,
00:02.6,0.003112793,0.001888275,0.008737564,0,
00:02.6,0.003135681,0.001916885,0.008737564,0,
00:02.6,0.003118515,0.001922607,0.008731842,0,
00:02.6,0.003118515,0.001934052,0.008749008,0,
00:02.6,0.003129959,0.001916885,0.008760452,0,
00:02.6,0.003129959,0.001905441,0.00875473,0,
00:02.6,0.003129959,0.001916885,0.008737564,0,
00:02.6,0.003124237,0.001922607,0.00875473,0,
00:02.6,0.003124237,0.001916885,0.00875473,0,
00:02.6,0.003124237,0.001916885,0.008749008,0,
00:02.6,0.003124237,0.001916885,0.008760452,0,
00:02.6,0.003135681,0.001922607,0.008749008,0,
00:02.6,0.003124237,0.001928329,0.00875473,0,
00:02.6,0.003118515,0.001922607,0.008760452,0,
00:02.6,0.003124237,0.001911163,0.008760452,0,
00:02.6,0.003129959,0.001916885,0.008749008,0,
00:02.6,0.003124237,0.001905441,0.008766174,0,
00:02.6,0.003118515,0.001916885,0.00878334,0,
00:02.6,0.003118515,0.001922607,0.008777618,0,
00:02.6,0.003124237,0.001916885,0.008771896,0,
00:02.6,0.003129959,0.001934052,0.008766174,0,
00:02.6,0.003124237,0.001899719,0.008766174,0,
00:02.6,0.003107071,0.001882553,0.00878334,0,
00:02.6,0.003112793,0.001916885,0.00878334,0,
00:02.7,0.003141403,0.001934052,0.008771896,0,
00:02.7,0.003141403,0.001922607,0.008771896,0,
00:02.7,0.003135681,0.001928329,0.008766174,0,
00:02.7,0.003124237,0.001922607,0.008771896,0,
00:02.7,0.003124237,0.001922607,0.00878334,0,
00:02.7,0.003135681,0.001928329,0.008777618,0,
00:02.7,0.003124237,0.001916885,0.008794785,0,
00:02.7,0.003124237,0.001922607,0.008800507,0,
00:02.7,0.003118515,0.001916885,0.008794785,0,
00:02.7,0.003124237,0.001911163,0.008800507,0,
00:02.7,0.003118515,0.001905441,0.008800507,0,
00:02.7,0.003129959,0.001916885,0.008800507,0,
00:02.7,0.003129959,0.001922607,0.008800507,0,
00:02.7,0.003118515,0.001922607,0.008800507,0,
00:02.7,0.003118515,0.001911163,0.008806229,0,
00:02.7,0.003124237,0.001922607,0.008806229,0,
00:02.7,0.003124237,0.001916885,0.008794785,0,
00:02.7,0.003118515,0.001905441,0.008800507,0,
00:02.7,0.003124237,0.001905441,0.008800507,0,
00:02.7,0.003129959,0.001922607,0.008823395,0,
00:02.7,0.003129959,0.001945496,0.008811951,0,
00:02.7,0.003124237,0.001905441,0.008823395,0,
00:02.7,0.003129959,0.001922607,0.008817673,0,
00:02.7,0.003118515,0.001916885,0.008811951,0,
00:02.7,0.003124237,0.001922607,0.008817673,0,
00:02.8,0.003124237,0.001934052,0.008811951,0,
00:02.8,0.003124237,0.001934052,0.008823395,0,
00:02.8,0.003129959,0.001928329,0.008829117,0,
00:02.8,0.003124237,0.001928329,0.008829117,0,
00:02.8,0.003124237,0.001916885,0.008829117,0,
00:02.8,0.003135681,0.001922607,0.008823395,0,
00:02.8,0.003135681,0.001928329,0.008823395,0,
00:02.8,0.003129959,0.001928329,0.008834839,0,
00:02.8,0.003124237,0.001922607,0.008829117,0,
00:02.8,0.003118515,0.001928329,0.008829117,0,
00:02.8,0.003129959,0.001928329,0.008834839,0,
00:02.8,0.003124237,0.001922607,0.008840561,0,
00:02.8,0.003124237,0.001922607,0.008840561,0,
00:02.8,0.003135681,0.001934052,0.008840561,0,
00:02.8,0.003135681,0.001934052,0.008840561,0,
00:02.8,0.003124237,0.001928329,0.008834839,0,
00:02.8,0.003129959,0.001922607,0.008840561,0,
00:02.8,0.003124237,0.001916885,0.008829117,0,
00:02.8,0.003107071,0.001916885,0.008834839,0,
00:02.8,0.003112793,0.001905441,0.008846283,0,
00:02.8,0.003135681,0.001951218,0.008846283,0,
00:02.8,0.003141403,0.001939774,0.008834839,0,
00:02.8,0.003141403,0.001945496,0.008857727,0,
00:02.8,0.003129959,0.001951218,0.008846283,0,
00:02.8,0.003124237,0.001934052,0.008846283,0,
00:02.9,0.003129959,0.001934052,0.008852005,0,
00:02.9,0.003129959,0.001934052,0.008857727,0,
00:02.9,0.003124237,0.001928329,0.008857727,0,
00:02.9,0.003135681,0.001939774,0.008857727,0,
00:02.9,0.003129959,0.001939774,0.008857727,0,
00:02.9,0.003129959,0.001934052,0.008852005,0,
00:02.9,0.003129959,0.001939774,0.008869171,0,
00:02.9,0.003124237,0.001934052,0.008874893,0,
00:02.9,0.003129959,0.001939774,0.008869171,0,
00:02.9,0.003135681,0.001945496,0.008857727,0,
00:02.9,0.003129959,0.001934052,0.008869171,0,
00:02.9,0.003118515,0.001934052,0.008874893,0,
00:02.9,0.003124237,0.001922607,0.008869171,0,
00:02.9,0.003124237,0.001934052,0.008874893,0,
00:02.9,0.003129959,0.001945496,0.008869171,0,
00:02.9,0.003129959,0.001928329,0.008863449,0,
00:02.9,0.003118515,0.001911163,0.008863449,0,
00:02.9,0.003129959,0.001939774,0.008852005,0,
00:02.9,0.003135681,0.001962662,0.008874893,0,
00:02.9,0.003129959,0.00195694,0.008886337,0,
00:02.9,0.003129959,0.001945496,0.008874893,0,
00:02.9,0.003129959,0.00195694,0.008869171,0,
00:02.9,0.003124237,0.001951218,0.008886337,0,
00:02.9,0.003124237,0.001945496,0.008892059,0,
00:02.9,0.003129959,0.001951218,0.008886337,0,
00:03.0,0.003129959,0.001945496,0.008886337,0,
00:03.0,0.003124237,0.001939774,0.008874893,0,
00:03.0,0.003129959,0.00195694,0.008880615,0,
00:03.0,0.003124237,0.00195694,0.008903503,0,
00:03.0,0.003124237,0.001945496,0.008897781,0,
00:03.0,0.003124237,0.001951218,0.008897781,0,
00:03.0,0.003124237,0.001951218,0.008892059,0,
00:03.0,0.003124237,0.001951218,0.008892059,0,
00:03.0,0.003124237,0.001951218,0.008892059,0,
00:03.0,0.003135681,0.00195694,0.008886337,0,
00:03.0,0.003118515,0.001951218,0.008892059,0,
00:03.0,0.003118515,0.001951218,0.008903503,0,
00:00:03,0.003135681,0.00195694,0.008897781,0,
00:03.0,0.003141403,0.001962662,0.008897781,0,
00:03.0,0.003124237,0.001928329,0.008892059,0,
00:03.0,0.003135681,0.001951218,0.008886337,0,
00:03.0,0.003124237,0.001928329,0.008909225,0,
00:03.0,0.003129959,0.001962662,0.00892067,0,
00:03.0,0.003129959,0.001962662,0.008909225,0,
00:03.0,0.003129959,0.001951218,0.008886337,0,
00:03.0,0.003135681,0.00195694,0.008909225,0,
00:03.0,0.003135681,0.001945496,0.008914948,0,
00:03.0,0.003129959,0.00195694,0.008914948,0,
00:03.0,0.003129959,0.001962662,0.00892067,0,
00:03.0,0.003129959,0.001951218,0.008926392,0,
00:03.1,0.003129959,0.001951218,0.008914948,0,
00:03.1,0.003129959,0.00195694,0.008914948,0,
00:03.1,0.003124237,0.001962662,0.008926392,0,
00:03.1,0.003129959,0.001962662,0.008926392,0,
00:03.1,0.003129959,0.001951218,0.008926392,0,
00:03.1,0.003124237,0.001951218,0.008926392,0,
00:03.1,0.003129959,0.001951218,0.008926392,0,
00:03.1,0.003135681,0.00195694,0.00892067,0,
00:03.1,0.003135681,0.00195694,0.00892067,0,
00:03.1,0.003124237,0.001945496,0.008914948,0,
00:03.1,0.003124237,0.001939774,0.00892067,0,
00:03.1,0.003112793,0.001928329,0.008932114,0,
00:03.1,0.003118515,0.001939774,0.008932114,0,
00:03.1,0.003129959,0.001968384,0.008943558,0,
00:03.1,0.003141403,0.001968384,0.008943558,0,
00:03.1,0.003141403,0.00195694,0.008937836,0,
00:03.1,0.003135681,0.001951218,0.008937836,0,
00:03.1,0.003129959,0.001962662,0.008943558,0,
00:03.1,0.003118515,0.001951218,0.008937836,0,
00:03.1,0.003124237,0.001939774,0.008937836,0,
00:03.1,0.003141403,0.00195694,0.008937836,0,
00:03.1,0.003124237,0.001939774,0.00894928,0,
00:03.1,0.003129959,0.001962662,0.008943558,0,
00:03.1,0.003141403,0.001974106,0.008943558,0,
00:03.1,0.003118515,0.001945496,0.008955002,0,
00:03.2,0.003147125,0.001974106,0.00894928,0,
00:03.2,0.003141403,0.001951218,0.00894928,0,
00:03.2,0.003141403,0.00195694,0.008937836,0,
00:03.2,0.003118515,0.001962662,0.00894928,0,
00:03.2,0.003118515,0.001962662,0.008972168,0,
00:03.2,0.003112793,0.00195694,0.008966446,0,
00:03.2,0.003129959,0.001962662,0.008972168,0,
00:03.2,0.003129959,0.001968384,0.008966446,0,
00:03.2,0.003124237,0.001962662,0.008966446,0,
00:03.2,0.003124237,0.001945496,0.008972168,0,
00:03.2,0.003118515,0.001951218,0.008960724,0,
00:03.2,0.003112793,0.001951218,0.008966446,0,
00:03.2,0.003124237,0.001962662,0.008966446,0,
00:03.2,0.003129959,0.001962662,0.008955002,0,
00:03.2,0.003124237,0.001945496,0.008972168,0,
00:03.2,0.003129959,0.001968384,0.00897789,0,
00:03.2,0.003129959,0.00195694,0.008960724,0,
00:03.2,0.003135681,0.001974106,0.008955002,0,
00:03.2,0.003124237,0.001979828,0.008966446,0,
00:03.2,0.003112793,0.00195694,0.008983612,0,
00:03.2,0.003124237,0.00195694,0.00897789,0,
00:03.2,0.003135681,0.001968384,0.00897789,0,
00:03.2,0.003135681,0.001968384,0.008983612,0,
00:03.2,0.003118515,0.00195694,0.008995056,0,
00:03.2,0.003118515,0.001974106,0.008989334,0,
00:03.3,0.003124237,0.001968384,0.008989334,0,
00:03.3,0.003129959,0.00195694,0.008995056,0,
00:03.3,0.003129959,0.001979828,0.008989334,0,
00:03.3,0.003118515,0.001962662,0.008995056,0,
00:03.3,0.003107071,0.00195694,0.009000778,0,
00:03.3,0.003129959,0.001968384,0.008983612,0,
00:03.3,0.003118515,0.001962662,0.008989334,0,
00:03.3,0.003129959,0.001968384,0.008995056,0,
00:03.3,0.003129959,0.001979828,0.008995056,0,
00:03.3,0.003124237,0.001974106,0.0090065,0,
00:03.3,0.003129959,0.001974106,0.009000778,0,
00:03.3,0.003124237,0.001979828,0.008995056,0,
00:03.3,0.003129959,0.001968384,0.008995056,0,
00:03.3,0.003124237,0.001968384,0.008995056,0,
00:03.3,0.003124237,0.001968384,0.009000778,0,
00:03.3,0.003129959,0.001962662,0.009012222,0,
00:03.3,0.003118515,0.00195694,0.009000778,0,
00:03.3,0.003124237,0.00198555,0.009023666,0,
00:03.3,0.003124237,0.00198555,0.009017944,0,
00:03.3,0.003129959,0.001974106,0.009012222,0,
00:03.3,0.003124237,0.001974106,0.009012222,0,
00:03.3,0.003129959,0.001962662,0.009000778,0,
00:03.3,0.003124237,0.001974106,0.009000778,0,
00:03.3,0.003118515,0.001974106,0.009000778,0,
00:03.3,0.003124237,0.00198555,0.008995056,0,
00:03.4,0.003112793,0.001968384,0.0090065,0,
00:03.4,0.003124237,0.001968384,0.009000778,0,
00:03.4,0.003118515,0.001974106,0.009000778,0,
00:03.4,0.003129959,0.001979828,0.009017944,0,
00:03.4,0.003135681,0.001974106,0.0090065,0,
00:03.4,0.003124237,0.00198555,0.009012222,0,
00:03.4,0.003124237,0.00198555,0.009023666,0,
00:03.4,0.003118515,0.001974106,0.009029388,0,
00:03.4,0.003124237,0.001979828,0.009023666,0,
00:03.4,0.003124237,0.001991272,0.009012222,0,
00:03.4,0.003129959,0.001968384,0.009012222,0,
00:03.4,0.003124237,0.001962662,0.009029388,0,
00:03.4,0.003124237,0.001979828,0.009029388,0,
00:03.4,0.003124237,0.001979828,0.009017944,0,
00:03.4,0.003124237,0.001974106,0.0090065,0,
00:03.4,0.003124237,0.001974106,0.009017944,0,
00:03.4,0.003129959,0.00198555,0.009040833,0,
00:03.4,0.003124237,0.001974106,0.009040833,0,
00:03.4,0.003118515,0.001974106,0.00903511,0,
00:03.4,0.003118515,0.00198555,0.00903511,0,
00:03.4,0.003129959,0.001991272,0.009040833,0,
00:03.4,0.003124237,0.00198555,0.00903511,0,
00:03.4,0.003124237,0.00198555,0.00903511,0,
00:03.4,0.003124237,0.00198555,0.009029388,0,
00:03.4,0.003124237,0.001979828,0.009046555,0,
00:03.5,0.003129959,0.00198555,0.009046555,0,
00:03.5,0.003118515,0.001974106,0.009040833,0,
00:03.5,0.003124237,0.00198555,0.009046555,0,
00:03.5,0.003124237,0.001991272,0.009040833,0,
00:03.5,0.003129959,0.001979828,0.00903511,0,
00:03.5,0.003135681,0.001996994,0.009029388,0,
00:03.5,0.003129959,0.00198555,0.009046555,0,
00:03.5,0.003129959,0.00198555,0.009057999,0,
00:03.5,0.003112793,0.00198555,0.009057999,0,
00:03.5,0.003118515,0.00198555,0.009057999,0,
00:03.5,0.003129959,0.00198555,0.009040833,0,
00:03.5,0.003129959,0.001974106,0.009040833,0,
00:03.5,0.003124237,0.001991272,0.009063721,0,
00:03.5,0.003118515,0.001974106,0.009057999,0,
00:03.5,0.003118515,0.001968384,0.009057999,0,
00:03.5,0.003129959,0.001979828,0.009057999,0,
00:03.5,0.003118515,0.001974106,0.009063721,0,
00:03.5,0.003135681,0.002008438,0.009063721,0,
00:03.5,0.003124237,0.001991272,0.009057999,0,
00:03.5,0.003124237,0.001991272,0.009057999,0,
00:03.5,0.003124237,0.001991272,0.009069443,0,
00:03.5,0.003129959,0.00198555,0.009063721,0,
00:03.5,0.003124237,0.001991272,0.009063721,0,
00:03.5,0.003124237,0.001996994,0.009075165,0,
00:03.5,0.003141403,0.001991272,0.009063721,0,
00:03.6,0.003124237,0.001979828,0.009080887,0,
00:03.6,0.003124237,0.001974106,0.009098053,0,
00:03.6,0.003124237,0.00198555,0.009092331,0,
00:03.6,0.003129959,0.001991272,0.009092331,0,
00:03.6,0.003124237,0.00198555,0.009098053,0,
00:03.6,0.003118515,0.001979828,0.009092331,0,
00:03.6,0.003124237,0.001979828,0.009103775,0,
00:03.6,0.003129959,0.001979828,0.009098053,0,
00:03.6,0.003124237,0.001979828,0.009086609,0,
00:03.6,0.003112793,0.001979828,0.009109497,0,
00:03.6,0.003124237,0.001979828,0.009120941,0,
00:03.6,0.003129959,0.00198555,0.009115219,0,
00:03.6,0.003118515,0.001979828,0.009109497,0,
00:03.6,0.003124237,0.00198555,0.009115219,0,
00:03.6,0.003124237,0.001974106,0.009103775,0,
00:03.6,0.003112793,0.001934052,0.009115219,0,
00:03.6,0.003129959,0.001996994,0.009126663,0,
00:03.6,0.003135681,0.001991272,0.009138107,0,
00:03.6,0.003124237,0.00198555,0.009132385,0,
00:03.6,0.003129959,0.00198555,0.009138107,0,
00:03.6,0.003135681,0.001991272,0.009143829,0,
00:03.6,0.003118515,0.001974106,0.009143829,0,
00:03.6,0.003107071,0.001962662,0.009149551,0,
00:03.6,0.003124237,0.001991272,0.009149551,0,
00:03.6,0.003129959,0.00198555,0.009160995,0,
00:03.7,0.003124237,0.00198555,0.009166718,0,
00:03.7,0.003124237,0.001974106,0.00917244,0,
00:03.7,0.003124237,0.001979828,0.00917244,0,
00:03.7,0.003112793,0.001979828,0.00917244,0,
00:03.7,0.003118515,0.00198555,0.009178162,0,
00:03.7,0.003118515,0.001974106,0.00917244,0,
00:03.7,0.003118515,0.00198555,0.009189606,0,
00:03.7,0.003118515,0.001974106,0.009195328,0,
00:03.7,0.003118515,0.001962662,0.00920105,0,
00:03.7,0.003118515,0.001974106,0.009212494,0,
00:03.7,0.003124237,0.001962662,0.009218216,0,
00:03.7,0.003124237,0.001974106,0.009218216,0,
00:03.7,0.003118515,0.001974106,0.009212494,0,
00:03.7,0.003112793,0.001968384,0.009235382,0,
00:03.7,0.003107071,0.001962662,0.009241104,0,
00:03.7,0.003107071,0.001945496,0.009246826,0,
00:03.7,0.003118515,0.001974106,0.009252548,0,
00:03.7,0.003129959,0.00198555,0.009269714,0,
00:03.7,0.003118515,0.00198555,0.009263992,0,
00:03.7,0.003118515,0.001968384,0.009275436,0,
00:03.7,0.003124237,0.001962662,0.009281158,0,
00:03.7,0.003112793,0.001974106,0.009292603,0,
00:03.7,0.003107071,0.00195694,0.009315491,0,
00:03.7,0.003112793,0.001962662,0.009326935,0,
00:03.7,0.003095627,0.001945496,0.009321213,0,
00:03.8,0.003112793,0.001951218,0.009321213,0,
00:03.8,0.003112793,0.001968384,0.009332657,0,
00:03.8,0.003118515,0.001968384,0.009338379,0,
00:03.8,0.003112793,0.00195694,0.009349823,0,
00:03.8,0.003112793,0.001962662,0.009361267,0,
00:03.8,0.003107071,0.00195694,0.009361267,0,
00:03.8,0.003112793,0.001968384,0.009366989,0,
00:03.8,0.003112793,0.001962662,0.009389877,0,
00:03.8,0.003112793,0.001962662,0.009384155,0,
00:03.8,0.003118515,0.001962662,0.009384155,0,
00:03.8,0.003118515,0.001974106,0.009395599,0,
00:03.8,0.003112793,0.00195694,0.009441376,0,
00:03.8,0.003101349,0.001951218,0.009441376,0,
00:03.8,0.003101349,0.00195694,0.009441376,0,
00:03.8,0.003107071,0.001945496,0.00945282,0,
00:03.8,0.003101349,0.001934052,0.00948143,0,
00:03.8,0.003101349,0.001951218,0.00948143,0,
00:03.8,0.003101349,0.001951218,0.009487152,0,
00:03.8,0.003101349,0.001945496,0.009492874,0,
00:03.8,0.003095627,0.001928329,0.009504318,0,
00:03.8,0.003089905,0.001928329,0.009504318,0,
00:03.8,0.003089905,0.001934052,0.009515762,0,
00:03.8,0.003101349,0.001939774,0.009527206,0,
00:03.8,0.003112793,0.001945496,0.009538651,0,
00:03.8,0.003101349,0.001928329,0.009555817,0,
00:03.9,0.003095627,0.001939774,0.009567261,0,
00:03.9,0.003101349,0.001934052,0.009567261,0,
00:03.9,0.003101349,0.001934052,0.009567261,0,
00:03.9,0.003084183,0.001916885,0.009590149,0,
00:03.9,0.003089905,0.001934052,0.009601593,0,
00:03.9,0.003095627,0.001928329,0.009618759,0,
00:03.9,0.003107071,0.001934052,0.009635925,0,
00:03.9,0.003095627,0.001934052,0.009635925,0,
00:03.9,0.003089905,0.001922607,0.009664536,0,
00:03.9,0.003095627,0.001922607,0.009664536,0,
00:03.9,0.003095627,0.001928329,0.00967598,0,
00:03.9,0.003095627,0.001922607,0.00967598,0,
00:03.9,0.003078461,0.001905441,0.009681702,0,
00:03.9,0.003078461,0.001899719,0.00970459,0,
00:03.9,0.003095627,0.001916885,0.009721756,0,
00:03.9,0.003089905,0.001922607,0.009727478,0,
00:03.9,0.003089905,0.001911163,0.0097332,0,
00:03.9,0.003089905,0.001905441,0.009744644,0,
00:03.9,0.003084183,0.001899719,0.009750366,0,
00:03.9,0.003084183,0.001888275,0.00976181,0,
00:03.9,0.003089905,0.001888275,0.009767532,0,
00:03.9,0.003084183,0.001893997,0.009773254,0,
00:03.9,0.003084183,0.001905441,0.009796143,0,
00:03.9,0.003084183,0.001899719,0.009813309,0,
00:03.9,0.003078461,0.001882553,0.009819031,0,
00:04.0,0.003072739,0.001882553,0.009819031,0,
00:04.0,0.003078461,0.001888275,0.009830475,0,
00:04.0,0.003095627,0.001916885,0.009836197,0,
00:04.0,0.003084183,0.001888275,0.009841919,0,
00:04.0,0.003072739,0.001882553,0.009870529,0,
00:04.0,0.003084183,0.001882553,0.009881973,0,
00:04.0,0.003072739,0.001876831,0.009893417,0,
00:04.0,0.003072739,0.001876831,0.009899139,0,
00:04.0,0.003078461,0.001888275,0.009899139,0,
00:04.0,0.003072739,0.001859665,0.009904861,0,
00:04.0,0.003078461,0.001876831,0.009922028,0,
00:04.0,0.003072739,0.001871109,0.009933472,0,
00:00:04,0.003067017,0.001853943,0.009939194,0,
00:04.0,0.003072739,0.001865387,0.00995636,0,
00:04.0,0.003067017,0.001853943,0.00995636,0,
00:04.0,0.003072739,0.001848221,0.009973526,0,
00:04.0,0.003072739,0.001859665,0.009973526,0,
00:04.0,0.003061295,0.001836777,0.009979248,0,
00:04.0,0.003061295,0.001859665,0.009990692,0,
00:04.0,0.003067017,0.001853943,0.009996414,0,
00:04.0,0.003061295,0.001848221,0.009996414,0,
00:04.0,0.003072739,0.001848221,0.010002136,0,
00:04.0,0.003067017,0.001848221,0.010002136,0,
00:04.0,0.003067017,0.001842499,0.010025024,0,
00:04.0,0.003061295,0.001836777,0.010030746,0,
00:04.1,0.003055573,0.001831055,0.010036469,0,
00:04.1,0.003061295,0.001825333,0.010053635,0,
00:04.1,0.003061295,0.001836777,0.010059357,0,
00:04.1,0.003055573,0.001825333,0.010053635,0,
00:04.1,0.003055573,0.001819611,0.010053635,0,
00:04.1,0.003044128,0.001825333,0.010065079,0,
00:04.1,0.003044128,0.001813889,0.010087967,0,
00:04.1,0.003055573,0.001825333,0.010087967,0,
00:04.1,0.003044128,0.001813889,0.010087967,0,
00:04.1,0.003055573,0.001813889,0.010087967,0,
00:04.1,0.003061295,0.001819611,0.010082245,0,
00:04.1,0.00304985,0.001813889,0.010099411,0,
00:04.1,0.00304985,0.001802444,0.010099411,0,
00:04.1,0.003044128,0.001819611,0.010105133,0,
00:04.1,0.00304985,0.001831055,0.010099411,0,
00:04.1,0.003055573,0.001796722,0.010099411,0,
00:04.1,0.003055573,0.001791,0.010116577,0,
00:04.1,0.003044128,0.001791,0.010116577,0,
00:04.1,0.00304985,0.001791,0.010128021,0,
00:04.1,0.00304985,0.001802444,0.010116577,0,
00:04.1,0.00304985,0.001802444,0.010116577,0,
00:04.1,0.003055573,0.001802444,0.010122299,0,
00:04.1,0.003044128,0.001796722,0.010122299,0,
00:04.1,0.003032684,0.001779556,0.010145187,0,
00:04.1,0.003044128,0.001785278,0.010145187,0,
00:04.2,0.003044128,0.001785278,0.010133743,0,
00:04.2,0.003038406,0.001779556,0.010128021,0,
00:04.2,0.003038406,0.001785278,0.010133743,0,
00:04.2,0.003032684,0.001773834,0.010139465,0,
00:04.2,0.003026962,0.001773834,0.010139465,0,
00:04.2,0.003032684,0.001750946,0.010133743,0,
00:04.2,0.00302124,0.001768112,0.010128021,0,
00:04.2,0.00304985,0.001785278,0.010133743,0,
00:04.2,0.003038406,0.001773834,0.010139465,0,
00:04.2,0.003026962,0.00176239,0.010145187,0,
00:04.2,0.003032684,0.00176239,0.010128021,0,
00:04.2,0.003032684,0.001791,0.010133743,0,
00:04.2,0.003026962,0.001768112,0.010128021,0,
00:04.2,0.00302124,0.001756668,0.010133743,0,
00:04.2,0.003026962,0.001756668,0.010133743,0,
00:04.2,0.003032684,0.001756668,0.010128021,0,
00:04.2,0.003026962,0.001756668,0.010122299,0,
00:04.2,0.003026962,0.001756668,0.010105133,0,
00:04.2,0.00302124,0.001756668,0.010110855,0,
00:04.2,0.00302124,0.001750946,0.010110855,0,
00:04.2,0.003026962,0.001756668,0.010110855,0,
00:04.2,0.003026962,0.001750946,0.010105133,0,
00:04.2,0.00302124,0.001750946,0.010087967,0,
00:04.2,0.003015518,0.001745224,0.010087967,0,
00:04.2,0.003015518,0.001739502,0.010093689,0,
00:04.3,0.00302124,0.001745224,0.010093689,0,
00:04.3,0.003015518,0.001728058,0.010087967,0,
00:04.3,0.003015518,0.00173378,0.010076523,0,
00:04.3,0.00302124,0.001739502,0.010059357,0,
00:04.3,0.003015518,0.00173378,0.010059357,0,
00:04.3,0.003004074,0.00173378,0.010053635,0,
00:04.3,0.003015518,0.001739502,0.010036469,0,
00:04.3,0.003015518,0.00173378,0.010036469,0,
00:04.3,0.003009796,0.001739502,0.010025024,0,
00:04.3,0.003004074,0.00173378,0.010019302,0,
00:04.3,0.003015518,0.001722336,0.010002136,0,
00:04.3,0.003015518,0.001745224,0.010002136,0,
00:04.3,0.003009796,0.001750946,0.00998497,0,
00:04.3,0.003009796,0.001739502,0.009962082,0,
00:04.3,0.003009796,0.001739502,0.00995636,0,
00:04.3,0.003009796,0.001728058,0.009967804,0,
00:04.3,0.003009796,0.00173378,0.009950638,0,
00:04.3,0.003015518,0.00173378,0.009933472,0,
00:04.3,0.003009796,0.001739502,0.009916306,0,
00:04.3,0.003004074,0.001716614,0.009904861,0,
00:04.3,0.003009796,0.001716614,0.009904861,0,
00:04.3,0.003009796,0.001716614,0.009899139,0,
00:04.3,0.003004074,0.001722336,0.009876251,0,
00:04.3,0.003009796,0.001728058,0.009859085,0,
00:04.3,0.003004074,0.001716614,0.009859085,0,
00:04.4,0.003004074,0.001716614,0.009841919,0,
00:04.4,0.003004074,0.001716614,0.009824753,0,
00:04.4,0.002998352,0.001722336,0.009801865,0,
00:04.4,0.002998352,0.001710892,0.009773254,0,
00:04.4,0.00299263,0.00170517,0.009778976,0,
00:04.4,0.002998352,0.001710892,0.009767532,0,
00:04.4,0.002998352,0.001710892,0.009744644,0,
00:04.4,0.003004074,0.001722336,0.009727478,0,
00:04.4,0.002998352,0.001710892,0.009716034,0,
00:04.4,0.002986908,0.001699448,0.009687424,0,
00:04.4,0.002998352,0.001728058,0.00967598,0,
00:04.4,0.003004074,0.00173378,0.009664536,0,
00:04.4,0.002998352,0.001710892,0.009653091,0,
00:04.4,0.003004074,0.001710892,0.009630203,0,
00:04.4,0.002998352,0.001710892,0.009618759,0,
00:04.4,0.002998352,0.001710892,0.009601593,0,
00:04.4,0.002998352,0.001716614,0.009584427,0,
00:04.4,0.00299263,0.001710892,0.009572983,0,
00:04.4,0.00299263,0.00170517,0.009544373,0,
00:04.4,0.002998352,0.00170517,0.009515762,0,
00:04.4,0.003004074,0.00170517,0.009504318,0,
00:04.4,0.00299263,0.001693726,0.009492874,0,
00:04.4,0.00299263,0.001722336,0.009475708,0,
00:04.4,0.002986908,0.001693726,0.009447098,0,
00:04.4,0.002998352,0.00170517,0.009435654,0,
00:04.5,0.002998352,0.001710892,0.009412766,0,
00:04.5,0.002986908,0.001699448,0.009395599,0,
00:04.5,0.00299263,0.00170517,0.009366989,0,
00:04.5,0.002998352,0.001716614,0.009344101,0,
00:04.5,0.00299263,0.001716614,0.009338379,0,
00:04.5,0.00299263,0.001699448,0.009332657,0,
00:04.5,0.00299263,0.001699448,0.009292603,0,
00:04.5,0.002998352,0.001722336,0.009269714,0,
00:04.5,0.002986908,0.001699448,0.009246826,0,
00:04.5,0.00299263,0.001710892,0.009223938,0,
00:04.5,0.002986908,0.001710892,0.009206772,0,
00:04.5,0.002986908,0.001710892,0.009183884,0,
00:04.5,0.003004074,0.001716614,0.00917244,0,
00:04.5,0.002998352,0.001710892,0.009149551,0,
00:04.5,0.002998352,0.00170517,0.009132385,0,
00:04.5,0.00299263,0.00170517,0.009103775,0,
00:04.5,0.002998352,0.001716614,0.009080887,0,
00:04.5,0.00299263,0.001722336,0.009057999,0,
00:04.5,0.002986908,0.00170517,0.009040833,0,
00:04.5,0.00299263,0.001688004,0.009023666,0,
00:04.5,0.002998352,0.001710892,0.008995056,0,
00:04.5,0.00299263,0.001728058,0.00897789,0,
00:04.5,0.002986908,0.001722336,0.008955002,0,
00:04.5,0.003004074,0.001722336,0.008926392,0,
00:04.5,0.00299263,0.001710892,0.008903503,0,
00:04.6,0.002986908,0.001693726,0.008880615,0,
00:04.6,0.002981186,0.001693726,0.008880615,0,
00:04.6,0.002986908,0.001728058,0.008846283,0,
00:04.6,0.002998352,0.00173378,0.008823395,0,
00:04.6,0.00299263,0.001710892,0.008800507,0,
00:04.6,0.002998352,0.001728058,0.008771896,0,
00:04.6,0.00299263,0.001728058,0.008749008,0,
00:04.6,0.002986908,0.001728058,0.00872612,0,
00:04.6,0.00299263,0.001728058,0.00869751,0,
00:04.6,0.002998352,0.001722336,0.0086689,0,
00:04.6,0.00299263,0.001728058,0.008663177,0,
00:04.6,0.002998352,0.001716614,0.008634567,0,
00:04.6,0.00299263,0.001728058,0.008605957,0,
00:04.6,0.002998352,0.001728058,0.008583069,0,
00:04.6,0.002998352,0.001722336,0.008554459,0,
00:04.6,0.002998352,0.001722336,0.008548737,0,
00:04.6,0.002998352,0.001728058,0.008525848,0,
00:04.6,0.002998352,0.001728058,0.00850296,0,
00:04.6,0.00299263,0.001722336,0.008480072,0,
00:04.6,0.002998352,0.001716614,0.008457184,0,
00:04.6,0.00299263,0.001710892,0.008434296,0,
00:04.6,0.003004074,0.001728058,0.008405685,0,
00:04.6,0.003004074,0.00173378,0.008382797,0,
00:04.6,0.002998352,0.001728058,0.008371353,0,
00:04.6,0.003004074,0.001728058,0.008342743,0,
00:04.7,0.002998352,0.001739502,0.008314133,0,
00:04.7,0.003004074,0.001728058,0.008291245,0,
00:04.7,0.002998352,0.00173378,0.008256912,0,
00:04.7,0.00299263,0.00173378,0.008239746,0,
00:04.7,0.003004074,0.001745224,0.008211136,0,
00:04.7,0.002998352,0.00173378,0.008176804,0,
00:04.7,0.002998352,0.00173378,0.008159637,0,
00:04.7,0.003004074,0.00173378,0.008136749,0,
00:04.7,0.00299263,0.00173378,0.008125305,0,
00:04.7,0.002998352,0.001739502,0.008096695,0,
00:04.7,0.00299263,0.001739502,0.008085251,0,
00:04.7,0.00299263,0.00173378,0.008045197,0,
00:04.7,0.00299263,0.001728058,0.008016586,0,
00:04.7,0.00299263,0.001728058,0.00799942,0,
00:04.7,0.003009796,0.001756668,0.007982254,0,
00:04.7,0.003004074,0.001756668,0.007953644,0,
00:04.7,0.003004074,0.001750946,0.007925034,0,
00:04.7,0.002998352,0.001745224,0.007896423,0,
00:04.7,0.003004074,0.001750946,0.007879257,0,
00:04.7,0.003004074,0.001745224,0.007844925,0,
00:04.7,0.002998352,0.001745224,0.007822037,0,
00:04.7,0.00299263,0.001739502,0.007799149,0,
00:04.7,0.00299263,0.001750946,0.007781982,0,
00:04.7,0.002998352,0.001756668,0.007759094,0,
00:04.7,0.003009796,0.001745224,0.007736206,0,
00:04.8,0.003004074,0.001756668,0.007696152,0,
00:04.8,0.002986908,0.001739502,0.00769043,0,
00:04.8,0.002998352,0.001739502,0.007661819,0,
00:04.8,0.003004074,0.001768112,0.007638931,0,
00:04.8,0.003004074,0.001756668,0.007598877,0,
00:04.8,0.003009796,0.00176239,0.007581711,0,
00:04.8,0.003004074,0.001750946,0.007553101,0,
00:04.8,0.002998352,0.001756668,0.007535934,0,
00:04.8,0.002998352,0.00176239,0.007535934,0,
00:04.8,0.002998352,0.001756668,0.007513046,0,
00:04.8,0.003004074,0.001768112,0.007478714,0,
00:04.8,0.003004074,0.00176239,0.007450104,0,
00:04.8,0.003004074,0.00176239,0.007421494,0,
00:04.8,0.003004074,0.00176239,0.007404327,0,
00:04.8,0.003004074,0.001756668,0.007375717,0,
00:04.8,0.003004074,0.001750946,0.007352829,0,
00:04.8,0.003004074,0.00176239,0.007335663,0,
00:04.8,0.003004074,0.00176239,0.007312775,0,
00:04.8,0.002998352,0.001768112,0.007289886,0,
00:04.8,0.002998352,0.001773834,0.007266998,0,
00:04.8,0.003004074,0.00176239,0.007232666,0,
00:04.8,0.002998352,0.001750946,0.007204056,0,
00:04.8,0.003004074,0.001773834,0.00718689,0,
00:04.8,0.003004074,0.001779556,0.007169724,0,
00:04.8,0.002998352,0.001750946,0.007146835,0,
00:04.9,0.003015518,0.001773834,0.007123947,0,
00:04.9,0.00302124,0.001779556,0.007101059,0,
00:04.9,0.003009796,0.001779556,0.007095337,0,
00:04.9,0.003009796,0.001796722,0.007066727,0,
00:04.9,0.003004074,0.00176239,0.00702095,0,
00:04.9,0.003009796,0.001773834,0.007009506,0,
00:04.9,0.003009796,0.001791,0.00702095,0,
00:04.9,0.003015518,0.001785278,0.006986618,0,
00:04.9,0.003004074,0.001768112,0.006958008,0,
00:04.9,0.003009796,0.001773834,0.006923676,0,
00:04.9,0.00302124,0.001785278,0.006900787,0,
00:04.9,0.003009796,0.001791,0.006883621,0,
00:04.9,0.003009796,0.001791,0.006860733,0,
00:04.9,0.003015518,0.001779556,0.006843567,0,
00:04.9,0.00302124,0.001773834,0.006814957,0,
00:04.9,0.003015518,0.001791,0.006797791,0,
00:04.9,0.003015518,0.001791,0.006774902,0,
00:04.9,0.003015518,0.001779556,0.006757736,0,
00:04.9,0.003009796,0.001791,0.00674057,0,
00:04.9,0.002998352,0.00176239,0.006729126,0,
00:04.9,0.003004074,0.001773834,0.006706238,0,
00:04.9,0.003015518,0.001802444,0.006666183,0,
00:04.9,0.00302124,0.001802444,0.006620407,0,
00:04.9,0.003026962,0.001796722,0.006643295,0,
00:04.9,0.00302124,0.001791,0.006626129,0,
00:05.0,0.003015518,0.001785278,0.006597519,0,
00:05.0,0.00302124,0.001791,0.006597519,0,
00:05.0,0.003015518,0.001802444,0.006563187,0,
00:05.0,0.003015518,0.001791,0.006540298,0,
00:05.0,0.003032684,0.001796722,0.006523132,0,
00:05.0,0.003026962,0.001791,0.006500244,0,
00:05.0,0.00302124,0.001802444,0.006483078,0,
00:05.0,0.00302124,0.001813889,0.00646019,0,
00:05.0,0.003032684,0.001802444,0.006437302,0,
00:05.0,0.00302124,0.001773834,0.006425858,0,
00:05.0,0.00302124,0.001802444,0.006408691,0,
00:05.0,0.00302124,0.001808167,0.006391525,0,
00:00:05,0.003015518,0.001808167,0.006374359,0,
00:05.0,0.003015518,0.001802444,0.006345749,0,
00:05.0,0.003026962,0.001808167,0.006328583,0,
00:05.0,0.003032684,0.001819611,0.006311417,0,
00:05.0,0.003026962,0.001802444,0.00629425,0,
00:05.0,0.003026962,0.001808167,0.006282806,0,
00:05.0,0.003026962,0.001813889,0.006259918,0,
00:05.0,0.003026962,0.001808167,0.006242752,0,
00:05.0,0.00302124,0.001808167,0.006242752,0,
00:05.0,0.003015518,0.001802444,0.006219864,0,
00:05.0,0.003032684,0.001836777,0.00617981,0,
00:05.0,0.003026962,0.001819611,0.006174088,0,
00:05.0,0.003032684,0.001808167,0.006174088,0,
00:05.1,0.003032684,0.001813889,0.006151199,0,
00:05.1,0.003038406,0.001825333,0.006122589,0,
00:05.1,0.00302124,0.001813889,0.006093979,0,
00:05.1,0.003032684,0.001819611,0.006076813,0,
00:05.1,0.003038406,0.001819611,0.006076813,0,
00:05.1,0.003032684,0.001813889,0.006053925,0,
00:05.1,0.003026962,0.001819611,0.006031036,0,
00:05.1,0.003026962,0.001831055,0.00601387,0,
00:05.1,0.003032684,0.001819611,0.006008148,0,
00:05.1,0.003032684,0.001825333,0.00598526,0,
00:05.1,0.003026962,0.001825333,0.005962372,0,
00:05.1,0.003032684,0.001819611,0.005950928,0,
00:05.1,0.003044128,0.001836777,0.005945206,0,
00:05.1,0.003032684,0.001825333,0.005950928,0,
00:05.1,0.003032684,0.001825333,0.005922318,0,
00:05.1,0.003038406,0.001836777,0.005899429,0,
00:05.1,0.003026962,0.001836777,0.005887985,0,
00:05.1,0.003026962,0.001836777,0.005859375,0,
00:05.1,0.003032684,0.001842499,0.005842209,0,
00:05.1,0.003026962,0.001842499,0.005853653,0,
00:05.1,0.003032684,0.001831055,0.005836487,0,
00:05.1,0.003032684,0.001842499,0.005819321,0,
00:05.1,0.003032684,0.001848221,0.005796432,0,
00:05.1,0.003044128,0.001848221,0.005779266,0,
00:05.1,0.003038406,0.001842499,0.005767822,0,
00:05.2,0.003044128,0.001848221,0.005750656,0,
00:05.2,0.003038406,0.001842499,0.005744934,0,
00:05.2,0.003038406,0.001848221,0.00573349,0,
00:05.2,0.003038406,0.001848221,0.00570488,0,
00:05.2,0.003032684,0.001848221,0.005681992,0,
00:05.2,0.003044128,0.001853943,0.00567627,0,
00:05.2,0.003038406,0.001853943,0.00567627,0,
00:05.2,0.003032684,0.001853943,0.005670547,0,
00:05.2,0.003038406,0.001859665,0.005653381,0,
00:05.2,0.003044128,0.001853943,0.005641937,0,
00:05.2,0.003038406,0.001848221,0.005624771,0,
00:05.2,0.003044128,0.001865387,0.005607605,0,
00:05.2,0.003038406,0.001859665,0.005590439,0,
00:05.2,0.003038406,0.001876831,0.005584717,0,
00:05.2,0.003038406,0.001853943,0.005573273,0,
00:05.2,0.00304985,0.001859665,0.005556107,0,
00:05.2,0.003044128,0.001865387,0.005527496,0,
00:05.2,0.003038406,0.001853943,0.005533218,0,
00:05.2,0.003032684,0.001836777,0.00553894,0,
00:05.2,0.003038406,0.001859665,0.005533218,0,
00:05.2,0.003038406,0.001859665,0.00551033,0,
00:05.2,0.003038406,0.001865387,0.005487442,0,
00:05.2,0.003044128,0.001859665,0.005487442,0,
00:05.2,0.003055573,0.001876831,0.00548172,0,
00:05.2,0.003044128,0.001865387,0.005464554,0,
00:05.3,0.003055573,0.001865387,0.005435944,0,
00:05.3,0.00304985,0.001859665,0.005418777,0,
00:05.3,0.003038406,0.001871109,0.005418777,0,
00:05.3,0.00304985,0.001882553,0.005418777,0,
00:05.3,0.00304985,0.001871109,0.005413055,0,
00:05.3,0.00304985,0.001871109,0.005395889,0,
00:05.3,0.003044128,0.001871109,0.005384445,0,
00:05.3,0.003038406,0.001865387,0.005373001,0,
00:05.3,0.00304985,0.001882553,0.005355835,0,
00:05.3,0.00304985,0.001876831,0.005373001,0,
00:05.3,0.003055573,0.001871109,0.005373001,0,
00:05.3,0.00304985,0.001871109,0.005355835,0,
00:05.3,0.00304985,0.001871109,0.005350113,0,
00:05.3,0.00304985,0.001865387,0.005332947,0,
00:05.3,0.00304985,0.001888275,0.005321503,0,
00:05.3,0.003055573,0.001882553,0.005315781,0,
00:05.3,0.003055573,0.001882553,0.005298615,0,
00:05.3,0.003044128,0.001893997,0.005292892,0,
00:05.3,0.00304985,0.001888275,0.005298615,0,
00:05.3,0.003061295,0.001876831,0.005281448,0,
00:05.3,0.003055573,0.001882553,0.005270004,0,
00:05.3,0.003055573,0.001888275,0.005252838,0,
00:05.3,0.003055573,0.001893997,0.005241394,0,
00:05.3,0.00304985,0.001876831,0.005235672,0,
00:05.3,0.00304985,0.001865387,0.005224228,0,
00:05.4,0.00304985,0.001882553,0.005218506,0,
00:05.4,0.003061295,0.001905441,0.005207062,0,
00:05.4,0.003055573,0.001899719,0.00520134,0,
00:05.4,0.00304985,0.001911163,0.005218506,0,
00:05.4,0.00304985,0.001876831,0.005207062,0,
00:05.4,0.003055573,0.001882553,0.005178452,0,
00:05.4,0.003061295,0.001916885,0.005189896,0,
00:05.4,0.003061295,0.001905441,0.005184174,0,
00:05.4,0.003061295,0.001911163,0.005167007,0,
00:05.4,0.003055573,0.001893997,0.005161285,0,
00:05.4,0.003055573,0.001893997,0.005155563,0,
00:05.4,0.003044128,0.001899719,0.005155563,0,
00:05.4,0.00304985,0.001899719,0.005149841,0,
00:05.4,0.003055573,0.001911163,0.005138397,0,
00:05.4,0.003055573,0.001905441,0.005149841,0,
00:05.4,0.003067017,0.001916885,0.005132675,0,
00:05.4,0.00304985,0.001905441,0.005109787,0,
00:05.4,0.003055573,0.001905441,0.005104065,0,
00:05.4,0.003055573,0.001905441,0.005121231,0,
00:05.4,0.00304985,0.001899719,0.005121231,0,
00:05.4,0.003055573,0.001911163,0.005115509,0,
00:05.4,0.00304985,0.001905441,0.005115509,0,
00:05.4,0.00304985,0.001899719,0.005109787,0,
00:05.4,0.00304985,0.001911163,0.005104065,0,
00:05.4,0.003055573,0.001905441,0.005092621,0,
00:05.5,0.003061295,0.001916885,0.005098343,0,
00:05.5,0.00304985,0.001911163,0.005081177,0,
00:05.5,0.00304985,0.001899719,0.005086899,0,
00:05.5,0.00304985,0.001911163,0.005075455,0,
00:05.5,0.003055573,0.001922607,0.005064011,0,
00:05.5,0.003055573,0.001922607,0.005069733,0,
00:05.5,0.003055573,0.001922607,0.005064011,0,
00:05.5,0.003044128,0.001911163,0.005058289,0,
00:05.5,0.00304985,0.001928329,0.005041122,0,
00:05.5,0.003061295,0.001911163,0.005046844,0,
00:05.5,0.003061295,0.001916885,0.005069733,0,
00:05.5,0.003061295,0.001928329,0.005052567,0,
00:05.5,0.003061295,0.001928329,0.005046844,0,
00:05.5,0.003055573,0.001922607,0.005046844,0,
00:05.5,0.003044128,0.001905441,0.005052567,0,
00:05.5,0.00304985,0.001922607,0.0050354,0,
00:05.5,0.003055573,0.00195694,0.005018234,0,
00:05.5,0.003055573,0.001928329,0.005029678,0,
00:05.5,0.00304985,0.001922607,0.005018234,0,
00:05.5,0.003044128,0.001899719,0.005023956,0,
00:05.5,0.00304985,0.001916885,0.005046844,0,
00:05.5,0.003055573,0.001939774,0.005023956,0,
00:05.5,0.003055573,0.001934052,0.0050354,0,
00:05.5,0.003055573,0.001928329,0.0050354,0,
00:05.5,0.003061295,0.001928329,0.005023956,0,
00:05.6,0.003044128,0.001899719,0.005023956,0,
00:05.6,0.00304985,0.001916885,0.005018234,0,
00:05.6,0.003067017,0.001951218,0.005012512,0,
00:05.6,0.003061295,0.001934052,0.005001068,0,
00:05.6,0.003055573,0.001928329,0.005012512,0,
00:05.6,0.003055573,0.001922607,0.005018234,0,
00:05.6,0.003055573,0.001922607,0.005029678,0,
00:05.6,0.003061295,0.001922607,0.005012512,0,
00:05.6,0.003061295,0.001928329,0.005018234,0,
00:05.6,0.003061295,0.001922607,0.005012512,0,
00:05.6,0.003061295,0.001934052,0.005012512,0,
00:05.6,0.003055573,0.001928329,0.00500679,0,
00:05.6,0.003061295,0.001934052,0.004989624,0,
00:05.6,0.003067017,0.001945496,0.005001068,0,
00:05.6,0.003061295,0.001928329,0.005018234,0,
00:05.6,0.00304985,0.001928329,0.005012512,0,
00:05.6,0.00304985,0.001922607,0.005018234,0,
00:05.6,0.003061295,0.001939774,0.005023956,0,
00:05.6,0.003061295,0.001945496,0.005012512,0,
00:05.6,0.003061295,0.001934052,0.005012512,0,
00:05.6,0.003061295,0.001939774,0.005018234,0,
00:05.6,0.003061295,0.001945496,0.005012512,0,
00:05.6,0.003055573,0.001939774,0.00500679,0,
00:05.6,0.003055573,0.001939774,0.00500679,0,
00:05.6,0.003055573,0.001934052,0.005018234,0,
00:05.7,0.003067017,0.001951218,0.005012512,0,
00:05.7,0.003067017,0.001962662,0.00500679,0,
00:05.7,0.003067017,0.00195694,0.005023956,0,
00:05.7,0.003072739,0.001951218,0.005012512,0,
00:05.7,0.003061295,0.001945496,0.00500679,0,
00:05.7,0.003055573,0.001951218,0.005023956,0,
00:05.7,0.003061295,0.001951218,0.005041122,0,
00:05.7,0.003061295,0.001939774,0.005029678,0,
00:05.7,0.003067017,0.001951218,0.005029678,0,
00:05.7,0.003061295,0.001939774,0.005023956,0,
00:05.7,0.003067017,0.001968384,0.005023956,0,
00:05.7,0.003067017,0.001951218,0.005029678,0,
00:05.7,0.003067017,0.001945496,0.005029678,0,
00:05.7,0.003072739,0.001951218,0.005029678,0,
00:05.7,0.003072739,0.001951218,0.005029678,0,
00:05.7,0.003072739,0.001945496,0.0050354,0,
00:05.7,0.003067017,0.001939774,0.0050354,0,
00:05.7,0.003061295,0.001945496,0.005041122,0,
00:05.7,0.003072739,0.001951218,0.005041122,0,
00:05.7,0.003078461,0.001951218,0.0050354,0,
00:05.7,0.003072739,0.001951218,0.005041122,0,
00:05.7,0.003055573,0.001945496,0.005058289,0,
00:05.7,0.003072739,0.001951218,0.005052567,0,
00:05.7,0.003078461,0.00195694,0.005041122,0,
00:05.7,0.003072739,0.00195694,0.005041122,0,
00:05.8,0.003084183,0.001962662,0.005058289,0,
00:05.8,0.003072739,0.00195694,0.005058289,0,
00:05.8,0.003067017,0.001951218,0.005052567,0,
00:05.8,0.003072739,0.001962662,0.005046844,0,
00:05.8,0.003067017,0.001951218,0.005064011,0,
00:05.8,0.003072739,0.00195694,0.005069733,0,
00:05.8,0.003078461,0.00195694,0.005081177,0,
00:05.8,0.003084183,0.001962662,0.005081177,0,
00:05.8,0.003078461,0.001962662,0.005086899,0,
00:05.8,0.003084183,0.001974106,0.005081177,0,
00:05.8,0.003084183,0.001962662,0.005086899,0,
00:05.8,0.003072739,0.00195694,0.005104065,0,
00:05.8,0.003084183,0.001962662,0.005104065,0,
00:05.8,0.003089905,0.001951218,0.005086899,0,
00:05.8,0.003078461,0.001951218,0.005098343,0,
00:05.8,0.003084183,0.00195694,0.005121231,0,
00:05.8,0.003072739,0.00195694,0.005132675,0,
00:05.8,0.003078461,0.00195694,0.005126953,0,
00:05.8,0.003084183,0.001951218,0.005121231,0,
00:05.8,0.003078461,0.001934052,0.005132675,0,
00:05.8,0.003089905,0.00195694,0.005126953,0,
00:05.8,0.003084183,0.00195694,0.005121231,0,
00:05.8,0.003084183,0.001951218,0.005132675,0,
00:05.8,0.003078461,0.001939774,0.005149841,0,
00:05.8,0.003089905,0.00195694,0.005149841,0,
00:05.9,0.003078461,0.001951218,0.005155563,0,
00:05.9,0.003084183,0.001945496,0.005155563,0,
00:05.9,0.003078461,0.001945496,0.005155563,0,
00:05.9,0.003095627,0.001968384,0.005149841,0,
00:05.9,0.003089905,0.00195694,0.005161285,0,
00:05.9,0.003089905,0.001962662,0.005161285,0,
00:05.9,0.003095627,0.001968384,0.005161285,0,
00:05.9,0.003084183,0.001962662,0.005172729,0,
00:05.9,0.003089905,0.001951218,0.005195618,0,
00:05.9,0.003084183,0.00195694,0.00520134,0,
00:05.9,0.003089905,0.001951218,0.005207062,0,
00:05.9,0.003084183,0.00195694,0.005212784,0,
00:05.9,0.003084183,0.001968384,0.005212784,0,
00:05.9,0.003089905,0.00195694,0.005212784,0,
00:05.9,0.003089905,0.00195694,0.005224228,0,
00:05.9,0.003089905,0.001968384,0.00522995,0,
00:05.9,0.003084183,0.001951218,0.005241394,0,
00:05.9,0.003101349,0.001962662,0.005241394,0,
00:05.9,0.003089905,0.001962662,0.005235672,0,
00:05.9,0.003089905,0.001951218,0.005235672,0,
00:05.9,0.003095627,0.00195694,0.005241394,0,
00:05.9,0.003095627,0.00195694,0.005235672,0,
00:05.9,0.003095627,0.00195694,0.005252838,0,
00:05.9,0.003089905,0.00195694,0.005264282,0,
00:05.9,0.003101349,0.001968384,0.005264282,0,
00:06.0,0.003095627,0.001968384,0.005281448,0,
00:06.0,0.003089905,0.001968384,0.005292892,0,
00:06.0,0.003101349,0.001968384,0.005292892,0,
00:06.0,0.003089905,0.001951218,0.005298615,0,
00:06.0,0.003101349,0.00195694,0.005292892,0,
00:06.0,0.003095627,0.001951218,0.00528717,0,
00:06.0,0.003101349,0.00195694,0.005292892,0,
00:06.0,0.003089905,0.001951218,0.005332947,0,
00:06.0,0.003101349,0.001968384,0.005338669,0,
00:06.0,0.003095627,0.001962662,0.005332947,0,
00:06.0,0.003095627,0.001951218,0.005338669,0,
00:06.0,0.003084183,0.001945496,0.005350113,0,
00:00:06,0.003084183,0.001934052,0.005350113,0,
00:06.0,0.003095627,0.001968384,0.005344391,0,
00:06.0,0.003095627,0.001974106,0.005350113,0,
00:06.0,0.003112793,0.001979828,0.005361557,0,
00:06.0,0.003095627,0.001951218,0.005367279,0,
00:06.0,0.003118515,0.001974106,0.005384445,0,
00:06.0,0.003118515,0.00195694,0.005401611,0,
00:06.0,0.003107071,0.00195694,0.005395889,0,
00:06.0,0.003107071,0.001974106,0.005407333,0,
00:06.0,0.003107071,0.001979828,0.005413055,0,
00:06.0,0.003107071,0.001979828,0.005418777,0,
00:06.0,0.003095627,0.001979828,0.005418777,0,
00:06.0,0.003101349,0.001962662,0.005430222,0,
00:06.1,0.003101349,0.001968384,0.005435944,0,
00:06.1,0.003107071,0.001974106,0.005447388,0,
00:06.1,0.003107071,0.001968384,0.005430222,0,
00:06.1,0.003107071,0.001962662,0.00545311,0,
00:06.1,0.003107071,0.001962662,0.005470276,0,
00:06.1,0.003101349,0.001962662,0.005470276,0,
00:06.1,0.003095627,0.001939774,0.005470276,0,
00:06.1,0.003107071,0.001962662,0.005470276,0,
00:06.1,0.003118515,0.001968384,0.005475998,0,
00:06.1,0.003107071,0.00195694,0.005470276,0,
00:06.1,0.003107071,0.001962662,0.00548172,0,
00:06.1,0.003107071,0.001979828,0.005498886,0,
00:06.1,0.003107071,0.001974106,0.005504608,0,
00:06.1,0.003112793,0.001968384,0.005516052,0,
00:06.1,0.003118515,0.001979828,0.005521774,0,
00:06.1,0.003112793,0.001974106,0.005521774,0,
00:06.1,0.003112793,0.001974106,0.005527496,0,
00:06.1,0.003112793,0.001962662,0.005527496,0,
00:06.1,0.003112793,0.001962662,0.005544662,0,
00:06.1,0.003118515,0.001968384,0.005556107,0,
00:06.1,0.003107071,0.001968384,0.005567551,0,
00:06.1,0.003107071,0.001962662,0.005573273,0,
00:06.1,0.003107071,0.001968384,0.005561829,0,
00:06.1,0.003107071,0.00195694,0.005596161,0,
00:06.1,0.003112793,0.001974106,0.005596161,0,
00:06.2,0.003107071,0.001974106,0.005601883,0,
00:06.2,0.003107071,0.001962662,0.005607605,0,
00:06.2,0.003101349,0.00195694,0.005613327,0,
00:06.2,0.003107071,0.001951218,0.005624771,0,
00:06.2,0.003112793,0.001968384,0.005630493,0,
00:06.2,0.003107071,0.00198555,0.005624771,0,
00:06.2,0.003107071,0.001974106,0.005636215,0,
00:06.2,0.003112793,0.001974106,0.005653381,0,
00:06.2,0.003112793,0.001979828,0.005670547,0,
00:06.2,0.003112793,0.001968384,0.005670547,0,
00:06.2,0.003112793,0.001979828,0.00567627,0,
00:06.2,0.003124237,0.001991272,0.005687714,0,
00:06.2,0.003118515,0.001979828,0.005687714,0,
00:06.2,0.003112793,0.001974106,0.005687714,0,
00:06.2,0.003118515,0.001968384,0.005699158,0,
00:06.2,0.003118515,0.001979828,0.005710602,0,
00:06.2,0.003112793,0.001974106,0.005716324,0,
00:06.2,0.003107071,0.001968384,0.005739212,0,
00:06.2,0.003118515,0.001968384,0.005750656,0,
00:06.2,0.003112793,0.001974106,0.005756378,0,
00:06.2,0.003107071,0.001974106,0.005756378,0,
00:06.2,0.003107071,0.001962662,0.0057621,0,
00:06.2,0.003112793,0.00195694,0.005767822,0,
00:06.2,0.003118515,0.001968384,0.005779266,0,
00:06.2,0.003112793,0.00198555,0.005784988,0,
00:06.3,0.003112793,0.001968384,0.00579071,0,
00:06.3,0.003107071,0.001974106,0.00579071,0,
00:06.3,0.003118515,0.001974106,0.005807877,0,
00:06.3,0.003118515,0.001962662,0.005819321,0,
00:06.3,0.003135681,0.001974106,0.005830765,0,
00:06.3,0.003124237,0.001974106,0.005842209,0,
00:06.3,0.003118515,0.001974106,0.005847931,0,
00:06.3,0.003112793,0.001968384,0.005847931,0,
00:06.3,0.003118515,0.001968384,0.005842209,0,
00:06.3,0.003118515,0.001968384,0.005853653,0,
00:06.3,0.003118515,0.001974106,0.005859375,0,
00:06.3,0.003118515,0.001979828,0.005853653,0,
00:06.3,0.003129959,0.001968384,0.005876541,0,
00:06.3,0.003124237,0.001962662,0.005882263,0,
00:06.3,0.003124237,0.001962662,0.005910873,0,
00:06.3,0.003118515,0.001974106,0.005922318,0,
00:06.3,0.003124237,0.001979828,0.005910873,0,
00:06.3,0.003124237,0.001968384,0.005910873,0,
00:06.3,0.003129959,0.001991272,0.005922318,0,
00:06.3,0.003129959,0.00198555,0.005933762,0,
00:06.3,0.003112793,0.001974106,0.005939484,0,
00:06.3,0.003124237,0.001979828,0.005945206,0,
00:06.3,0.003124237,0.001974106,0.005950928,0,
00:06.3,0.003118515,0.001968384,0.005968094,0,
00:06.3,0.003118515,0.001968384,0.005973816,0,
00:06.4,0.003112793,0.001974106,0.005996704,0,
00:06.4,0.003107071,0.001974106,0.005996704,0,
00:06.4,0.003124237,0.001974106,0.005990982,0,
00:06.4,0.003129959,0.001979828,0.005996704,0,
00:06.4,0.003129959,0.001979828,0.006008148,0,
00:06.4,0.003124237,0.001974106,0.006019592,0,
00:06.4,0.003129959,0.001974106,0.006019592,0,
00:06.4,0.003129959,0.001979828,0.006019592,0,
00:06.4,0.003124237,0.001962662,0.006036758,0,
00:06.4,0.003135681,0.001991272,0.00604248,0,
00:06.4,0.003141403,0.001991272,0.00604248,0,
00:06.4,0.003129959,0.001979828,0.006048203,0,
00:06.4,0.003124237,0.001968384,0.006059647,0,
00:06.4,0.003124237,0.001962662,0.006082535,0,
00:06.4,0.003112793,0.001962662,0.006099701,0,
00:06.4,0.003129959,0.00198555,0.006105423,0,
00:06.4,0.003129959,0.001974106,0.006111145,0,
00:06.4,0.003135681,0.001979828,0.006105423,0,
00:06.4,0.003129959,0.001968384,0.006116867,0,
00:06.4,0.003135681,0.001968384,0.006134033,0,
00:06.4,0.003124237,0.001968384,0.006134033,0,
00:06.4,0.003129959,0.001962662,0.006134033,0,
00:06.4,0.003124237,0.001968384,0.006145477,0,
00:06.4,0.003129959,0.001974106,0.006156921,0,
00:06.4,0.003129959,0.001968384,0.006156921,0,
00:06.5,0.003118515,0.001974106,0.006168365,0,
00:06.5,0.003124237,0.001979828,0.00617981,0,
00:06.5,0.003135681,0.001974106,0.006191254,0,
00:06.5,0.003135681,0.001979828,0.006196976,0,
00:06.5,0.003129959,0.001979828,0.006196976,0,
00:06.5,0.003118515,0.001974106,0.00620842,0,
00:06.5,0.003118515,0.001968384,0.006231308,0,
00:06.5,0.003118515,0.00195694,0.006242752,0,
00:06.5,0.003129959,0.001974106,0.006259918,0,
00:06.5,0.003129959,0.001974106,0.006248474,0,
00:06.5,0.003124237,0.001962662,0.006248474,0,
00:06.5,0.003124237,0.001974106,0.006271362,0,
00:06.5,0.003129959,0.001968384,0.00626564,0,
00:06.5,0.003135681,0.001979828,0.006259918,0,
00:06.5,0.003129959,0.001979828,0.006271362,0,
00:06.5,0.003124237,0.001974106,0.00629425,0,
00:06.5,0.003124237,0.001974106,0.006299973,0,
00:06.5,0.003124237,0.001974106,0.006317139,0,
00:06.5,0.003135681,0.001979828,0.006317139,0,
00:06.5,0.003135681,0.001974106,0.006317139,0,
00:06.5,0.003124237,0.001974106,0.006322861,0,
00:06.5,0.003129959,0.001979828,0.006322861,0,
00:06.5,0.003124237,0.001979828,0.006351471,0,
00:06.5,0.003124237,0.001974106,0.006357193,0,
00:06.5,0.003129959,0.001996994,0.006351471,0,
00:06.6,0.003124237,0.001996994,0.006368637,0,
00:06.6,0.003129959,0.001974106,0.006391525,0,
00:06.6,0.003124237,0.001968384,0.006391525,0,
00:06.6,0.003135681,0.001979828,0.006408691,0,
00:06.6,0.003135681,0.00198555,0.006397247,0,
00:06.6,0.003118515,0.001974106,0.006408691,0,
00:06.6,0.003124237,0.001962662,0.00643158,0,
00:06.6,0.003135681,0.001991272,0.006437302,0,
00:06.6,0.003129959,0.001962662,0.006443024,0,
00:06.6,0.003135681,0.001974106,0.006437302,0,
00:06.6,0.003135681,0.001979828,0.006443024,0,
00:06.6,0.003141403,0.001979828,0.006448746,0,
00:06.6,0.003135681,0.00198555,0.006448746,0,
00:06.6,0.003129959,0.001979828,0.00646019,0,
00:06.6,0.003124237,0.001974106,0.006477356,0,
00:06.6,0.003124237,0.001979828,0.0064888,0,
00:06.6,0.003129959,0.001974106,0.006483078,0,
00:06.6,0.003124237,0.001968384,0.006483078,0,
00:06.6,0.003129959,0.00195694,0.006505966,0,
00:06.6,0.003135681,0.00198555,0.006528854,0,
00:06.6,0.003135681,0.00198555,0.00651741,0,
00:06.6,0.003124237,0.00198555,0.006505966,0,
00:06.6,0.003129959,0.001968384,0.006546021,0,
00:06.6,0.003124237,0.001962662,0.006557465,0,
00:06.6,0.003118515,0.001979828,0.006557465,0,
00:06.7,0.003118515,0.001974106,0.006557465,0,
00:06.7,0.003135681,0.001968384,0.006568909,0,
00:06.7,0.003135681,0.001974106,0.006563187,0,
00:06.7,0.003129959,0.001979828,0.006574631,0,
00:06.7,0.003141403,0.00198555,0.006580353,0,
00:06.7,0.003135681,0.001979828,0.006586075,0,
00:06.7,0.003129959,0.001974106,0.006597519,0,
00:06.7,0.003129959,0.001974106,0.006597519,0,
00:06.7,0.003124237,0.001974106,0.006608963,0,
00:06.7,0.003129959,0.00198555,0.006626129,0,
00:06.7,0.003124237,0.001996994,0.006626129,0,
00:06.7,0.003129959,0.001974106,0.006631851,0,
00:06.7,0.003135681,0.001974106,0.006637573,0,
00:06.7,0.003135681,0.00198555,0.006637573,0,
00:06.7,0.003141403,0.001979828,0.006631851,0,
00:06.7,0.003129959,0.001979828,0.006649017,0,
00:06.7,0.003118515,0.001979828,0.006671906,0,
00:06.7,0.003129959,0.001974106,0.006689072,0,
00:06.7,0.003129959,0.001974106,0.006700516,0,
00:06.7,0.003124237,0.001968384,0.006694794,0,
00:06.7,0.003135681,0.001979828,0.006694794,0,
00:06.7,0.003129959,0.001968384,0.00671196,0,
00:06.7,0.003135681,0.00195694,0.00671196,0,
00:06.7,0.003135681,0.001968384,0.006717682,0,
00:06.7,0.003129959,0.001991272,0.006717682,0,
00:06.8,0.003129959,0.002002716,0.00674057,0,
00:06.8,0.003141403,0.001979828,0.006746292,0,
00:06.8,0.003135681,0.001974106,0.006746292,0,
00:06.8,0.003129959,0.001962662,0.006746292,0,
00:06.8,0.003147125,0.001996994,0.006757736,0,
00:06.8,0.003135681,0.001991272,0.00676918,0,
00:06.8,0.003129959,0.00198555,0.006774902,0,
00:06.8,0.003129959,0.001979828,0.006786346,0,
00:06.8,0.003129959,0.001962662,0.006786346,0,
00:06.8,0.003129959,0.001962662,0.006797791,0,
00:06.8,0.003147125,0.001996994,0.006792068,0,
00:06.8,0.003129959,0.001991272,0.006792068,0,
00:06.8,0.003135681,0.00198555,0.006820679,0,
00:06.8,0.003129959,0.001979828,0.006820679,0,
00:06.8,0.003129959,0.00198555,0.006826401,0,
00:06.8,0.003129959,0.001979828,0.006843567,0,
00:06.8,0.003135681,0.00198555,0.006855011,0,
00:06.8,0.003141403,0.002002716,0.006860733,0,
00:06.8,0.003141403,0.00198555,0.006855011,0,
00:06.8,0.003124237,0.001979828,0.006872177,0,
00:06.8,0.003124237,0.001979828,0.006866455,0,
00:06.8,0.003135681,0.00198555,0.006883621,0,
00:06.8,0.003135681,0.001991272,0.006900787,0,
00:06.8,0.003135681,0.00198555,0.006900787,0,
00:06.8,0.003129959,0.00198555,0.006906509,0,
00:06.9,0.003129959,0.001979828,0.006912231,0,
00:06.9,0.003129959,0.001979828,0.006917953,0,
00:06.9,0.003129959,0.001996994,0.006923676,0,
00:06.9,0.003124237,0.001974106,0.00693512,0,
00:06.9,0.003129959,0.001979828,0.00693512,0,
00:06.9,0.003129959,0.001991272,0.006929398,0,
00:06.9,0.003135681,0.002002716,0.006929398,0,
00:06.9,0.003129959,0.001996994,0.00693512,0,
00:06.9,0.003135681,0.001991272,0.006958008,0,
00:06.9,0.003129959,0.001991272,0.006975174,0,
00:06.9,0.003135681,0.001991272,0.006969452,0,
00:06.9,0.003135681,0.00198555,0.006975174,0,
00:06.9,0.003135681,0.002002716,0.006975174,0,
00:06.9,0.003135681,0.001991272,0.00699234,0,
00:06.9,0.003129959,0.002002716,0.006998062,0,
00:06.9,0.003129959,0.00198555,0.007009506,0,
00:06.9,0.003135681,0.001991272,0.007015228,0,
00:06.9,0.003141403,0.002008438,0.007015228,0,
00:06.9,0.003135681,0.002002716,0.007015228,0,
00:06.9,0.003135681,0.002002716,0.007032394,0,
00:06.9,0.003135681,0.002002716,0.007043839,0,
00:06.9,0.003135681,0.002002716,0.007043839,0,
00:06.9,0.003141403,0.002002716,0.007043839,0,
00:06.9,0.003135681,0.002002716,0.007049561,0,
00:06.9,0.003135681,0.002002716,0.007055283,0,
00:07.0,0.003124237,0.001996994,0.007066727,0,
00:07.0,0.003129959,0.001991272,0.007078171,0,
00:07.0,0.003129959,0.00198555,0.007072449,0,
00:07.0,0.003141403,0.001996994,0.007066727,0,
00:07.0,0.003135681,0.00198555,0.007089615,0,
00:07.0,0.003129959,0.002002716,0.007106781,0,
00:07.0,0.003135681,0.002002716,0.007112503,0,
00:07.0,0.003147125,0.002002716,0.007118225,0,
00:07.0,0.003135681,0.001996994,0.007129669,0,
00:07.0,0.003129959,0.001996994,0.007123947,0,
00:07.0,0.003135681,0.00201416,0.007123947,0,
00:07.0,0.003141403,0.002002716,0.007141113,0,
00:00:07,0.003135681,0.001991272,0.007146835,0,
00:07.0,0.003141403,0.001991272,0.007146835,0,
00:07.0,0.003141403,0.002002716,0.007152557,0,
00:07.0,0.003141403,0.002008438,0.007158279,0,
00:07.0,0.003135681,0.002002716,0.007164001,0,
00:07.0,0.003135681,0.002002716,0.007164001,0,
00:07.0,0.003141403,0.001996994,0.007175446,0,
00:07.0,0.003129959,0.001996994,0.007192612,0,
00:07.0,0.003141403,0.002002716,0.007192612,0,
00:07.0,0.003141403,0.00198555,0.007192612,0,
00:07.0,0.003141403,0.00198555,0.00718689,0,
00:07.0,0.003141403,0.002008438,0.007204056,0,
00:07.0,0.003124237,0.00198555,0.007232666,0,
00:07.1,0.003124237,0.001968384,0.007226944,0,
00:07.1,0.003135681,0.002002716,0.007232666,0,
00:07.1,0.003129959,0.001996994,0.007249832,0,
00:07.1,0.003147125,0.002002716,0.007255554,0,
00:07.1,0.003147125,0.00201416,0.007249832,0,
00:07.1,0.003147125,0.002002716,0.007261276,0,
00:07.1,0.003141403,0.001991272,0.007261276,0,
00:07.1,0.003147125,0.001991272,0.00727272,0,
00:07.1,0.003135681,0.002002716,0.007278442,0,
00:07.1,0.003141403,0.002002716,0.007278442,0,
00:07.1,0.003141403,0.001996994,0.007295609,0,
00:07.1,0.003141403,0.001991272,0.007295609,0,
00:07.1,0.003147125,0.00198555,0.007301331,0,
00:07.1,0.003135681,0.001991272,0.007312775,0,
00:07.1,0.003135681,0.001996994,0.007312775,0,
00:07.1,0.003135681,0.001996994,0.007318497,0,
00:07.1,0.003135681,0.001991272,0.007318497,0,
00:07.1,0.003135681,0.001996994,0.007324219,0,
00:07.1,0.003135681,0.001996994,0.007341385,0,
00:07.1,0.003135681,0.002002716,0.007347107,0,
00:07.1,0.003135681,0.00198555,0.007341385,0,
00:07.1,0.003135681,0.001962662,0.007341385,0,
00:07.1,0.003135681,0.001979828,0.007358551,0,
00:07.1,0.003147125,0.002008438,0.007358551,0,
00:07.1,0.003141403,0.001996994,0.007375717,0,
00:07.2,0.003129959,0.001996994,0.007381439,0,
00:07.2,0.003129959,0.001996994,0.007375717,0,
00:07.2,0.003129959,0.001979828,0.007387161,0,
00:07.2,0.003135681,0.001996994,0.007387161,0,
00:07.2,0.003141403,0.00201416,0.007410049,0,
00:07.2,0.003135681,0.002002716,0.007415771,0,
00:07.2,0.003135681,0.002002716,0.007410049,0,
00:07.2,0.003135681,0.001996994,0.007415771,0,
00:07.2,0.003135681,0.001996994,0.007415771,0,
00:07.2,0.003141403,0.001991272,0.007415771,0,
00:07.2,0.003135681,0.001991272,0.007432938,0,
00:07.2,0.003135681,0.002002716,0.00743866,0,
00:07.2,0.003141403,0.002002716,0.007444382,0,
00:07.2,0.003141403,0.002008438,0.007444382,0,
00:07.2,0.003141403,0.001996994,0.007455826,0,
00:07.2,0.003141403,0.002002716,0.007450104,0,
00:07.2,0.003135681,0.002002716,0.007450104,0,
00:07.2,0.003135681,0.001996994,0.007461548,0,
00:07.2,0.003141403,0.002002716,0.00746727,0,
00:07.2,0.003141403,0.002002716,0.007478714,0,
00:07.2,0.003129959,0.001996994,0.007490158,0,
00:07.2,0.003129959,0.00198555,0.007513046,0,
00:07.2,0.003135681,0.001979828,0.007513046,0,
00:07.2,0.003141403,0.002002716,0.00749588,0,
00:07.2,0.003135681,0.00201416,0.007507324,0,
00:07.3,0.003118515,0.002002716,0.007530212,0,
00:07.3,0.003129959,0.001991272,0.007530212,0,
00:07.3,0.003141403,0.002008438,0.00752449,0,
00:07.3,0.003147125,0.002025604,0.00752449,0,
00:07.3,0.003141403,0.002019882,0.007535934,0,
00:07.3,0.003141403,0.002008438,0.007547379,0,
00:07.3,0.003129959,0.002008438,0.007541656,0,
00:07.3,0.003141403,0.00201416,0.007535934,0,
00:07.3,0.003141403,0.00201416,0.007558823,0,
00:07.3,0.003135681,0.00201416,0.007558823,0,
00:07.3,0.003135681,0.002019882,0.007553101,0,
00:07.3,0.003135681,0.002019882,0.007564545,0,
00:07.3,0.003141403,0.002019882,0.007581711,0,
00:07.3,0.003141403,0.00201416,0.007587433,0,
00:07.3,0.003141403,0.002008438,0.007587433,0,
00:07.3,0.003135681,0.001951218,0.007570267,0,
00:07.3,0.003135681,0.001934052,0.007581711,0,
00:07.3,0.003141403,0.002077103,0.007610321,0,
00:07.3,0.003129959,0.002059937,0.007621765,0,
00:07.3,0.003129959,0.002002716,0.007598877,0,
00:07.3,0.003152847,0.002025604,0.007598877,0,
00:07.3,0.003141403,0.002025604,0.007610321,0,
00:07.3,0.003135681,0.002025604,0.007621765,0,
00:07.3,0.003124237,0.00201416,0.007644653,0,
00:07.3,0.003124237,0.00201416,0.007633209,0,
00:07.4,0.003135681,0.002008438,0.007621765,0,
00:07.4,0.003129959,0.002025604,0.007627487,0,
00:07.4,0.003141403,0.002031326,0.007627487,0,
00:07.4,0.003141403,0.002025604,0.007638931,0,
00:07.4,0.003135681,0.002019882,0.007656097,0,
00:07.4,0.003135681,0.002019882,0.007650375,0,
00:07.4,0.003135681,0.002048492,0.007656097,0,
00:07.4,0.003129959,0.002025604,0.007650375,0,
00:07.4,0.003135681,0.002025604,0.007650375,0,
00:07.4,0.003147125,0.002025604,0.007650375,0,
00:07.4,0.003141403,0.002025604,0.007667542,0,
00:07.4,0.003135681,0.002025604,0.007667542,0,
00:07.4,0.003135681,0.002019882,0.007678986,0,
00:07.4,0.003141403,0.00201416,0.007701874,0,
00:07.4,0.003129959,0.002031326,0.007696152,0,
00:07.4,0.003129959,0.00204277,0.00769043,0,
00:07.4,0.003135681,0.002019882,0.007696152,0,
00:07.4,0.003135681,0.00201416,0.007701874,0,
00:07.4,0.003129959,0.00201416,0.007707596,0,
00:07.4,0.003135681,0.002037048,0.007707596,0,
00:07.4,0.003135681,0.002008438,0.007707596,0,
00:07.4,0.003141403,0.002031326,0.007707596,0,
00:07.4,0.003141403,0.002031326,0.007707596,0,
00:07.4,0.003147125,0.002025604,0.007707596,0,
00:07.4,0.003129959,0.002031326,0.007724762,0,
00:07.5,0.003124237,0.001996994,0.007724762,0,
00:07.5,0.003141403,0.002031326,0.007736206,0,
00:07.5,0.003152847,0.002048492,0.007713318,0,
00:07.5,0.003135681,0.002037048,0.007713318,0,
00:07.5,0.003135681,0.00204277,0.007730484,0,
00:07.5,0.003135681,0.002031326,0.007741928,0,
00:07.5,0.003135681,0.002025604,0.007741928,0,
00:07.5,0.003135681,0.002037048,0.00774765,0,
00:07.5,0.003147125,0.002031326,0.00774765,0,
00:07.5,0.003141403,0.002037048,0.007736206,0,
00:07.5,0.003129959,0.002037048,0.007741928,0,
00:07.5,0.003147125,0.002031326,0.007770538,0,
00:07.5,0.003141403,0.002019882,0.00777626,0,
00:07.5,0.003141403,0.002031326,0.007770538,0,
00:07.5,0.003135681,0.002048492,0.00777626,0,
00:07.5,0.003147125,0.002054214,0.007793427,0,
00:07.5,0.003135681,0.002025604,0.007781982,0,
00:07.5,0.003141403,0.00204277,0.007787704,0,
00:07.5,0.003147125,0.002037048,0.007799149,0,
00:07.5,0.003141403,0.002048492,0.007793427,0,
00:07.5,0.003135681,0.002048492,0.007793427,0,
00:07.5,0.003141403,0.00204277,0.007787704,0,
00:07.5,0.003141403,0.002037048,0.007810593,0,
00:07.5,0.003147125,0.002037048,0.007810593,0,
00:07.5,0.003135681,0.00204277,0.007816315,0,
00:07.6,0.003129959,0.002031326,0.007816315,0,
00:07.6,0.003147125,0.002037048,0.007810593,0,
00:07.6,0.003141403,0.002025604,0.007822037,0,
00:07.6,0.003141403,0.002048492,0.007816315,0,
00:07.6,0.003141403,0.002054214,0.007816315,0,
00:07.6,0.003147125,0.002037048,0.007833481,0,
00:07.6,0.003141403,0.002025604,0.007844925,0,
00:07.6,0.003147125,0.00204277,0.007839203,0,
00:07.6,0.003147125,0.002037048,0.007850647,0,
00:07.6,0.003141403,0.002037048,0.007856369,0,
00:07.6,0.003152847,0.002048492,0.007839203,0,
00:07.6,0.003147125,0.002048492,0.007850647,0,
00:07.6,0.003141403,0.00204277,0.007867813,0,
00:07.6,0.003141403,0.00204277,0.007862091,0,
00:07.6,0.003141403,0.002048492,0.007856369,0,
00:07.6,0.003135681,0.002037048,0.007873535,0,
00:07.6,0.003135681,0.002037048,0.007890701,0,
00:07.6,0.003141403,0.002037048,0.007890701,0,
00:07.6,0.003141403,0.002037048,0.007896423,0,
00:07.6,0.003141403,0.002031326,0.007896423,0,
00:07.6,0.003135681,0.00204277,0.007884979,0,
00:07.6,0.003141403,0.002048492,0.007896423,0,
00:07.6,0.003147125,0.002048492,0.007913589,0,
00:07.6,0.003135681,0.002037048,0.007919312,0,
00:07.6,0.003129959,0.002031326,0.007919312,0,
00:07.7,0.003141403,0.002025604,0.007930756,0,
00:07.7,0.003152847,0.002054214,0.007925034,0,
00:07.7,0.003141403,0.00204277,0.007925034,0,
00:07.7,0.003152847,0.002059937,0.007919312,0,
00:07.7,0.003147125,0.002048492,0.007919312,0,
00:07.7,0.003152847,0.002059937,0.007925034,0,
00:07.7,0.003152847,0.002048492,0.007930756,0,
00:07.7,0.003141403,0.002048492,0.007947922,0,
00:07.7,0.003141403,0.002048492,0.007953644,0,
00:07.7,0.003147125,0.002048492,0.007965088,0,
00:07.7,0.003141403,0.002048492,0.007965088,0,
00:07.7,0.003135681,0.00204277,0.007965088,0,
00:07.7,0.003141403,0.00204277,0.007965088,0,
00:07.7,0.003147125,0.002048492,0.007953644,0,
00:07.7,0.003141403,0.002048492,0.007965088,0,
00:07.7,0.003141403,0.002054214,0.007982254,0,
00:07.7,0.003135681,0.002059937,0.007987976,0,
00:07.7,0.003147125,0.002048492,0.00799942,0,
00:07.7,0.003152847,0.002048492,0.007993698,0,
00:07.7,0.003141403,0.00204277,0.007993698,0,
00:07.7,0.003141403,0.00204277,0.008005142,0,
00:07.7,0.003152847,0.002054214,0.00799942,0,
00:07.7,0.003147125,0.00204277,0.008010864,0,
00:07.7,0.003141403,0.002054214,0.008005142,0,
00:07.7,0.003135681,0.00204277,0.008016586,0,
00:07.8,0.003152847,0.002059937,0.008005142,0,
00:07.8,0.003158569,0.002059937,0.008010864,0,
00:07.8,0.003141403,0.002037048,0.008045197,0,
00:07.8,0.003135681,0.002048492,0.008045197,0,
00:07.8,0.003147125,0.002059937,0.008045197,0,
00:07.8,0.003147125,0.002059937,0.008045197,0,
00:07.8,0.003152847,0.002059937,0.008039474,0,
00:07.8,0.003152847,0.002059937,0.008045197,0,
00:07.8,0.003147125,0.002054214,0.008039474,0,
00:07.8,0.003141403,0.002059937,0.008045197,0,
00:07.8,0.003147125,0.002065659,0.008050919,0,
00:07.8,0.003141403,0.002054214,0.008068085,0,
00:07.8,0.003147125,0.002048492,0.008079529,0,
00:07.8,0.003147125,0.002048492,0.008068085,0,
00:07.8,0.003141403,0.002054214,0.008068085,0,
00:07.8,0.003141403,0.002054214,0.008068085,0,
00:07.8,0.003147125,0.002054214,0.008073807,0,
00:07.8,0.003141403,0.002048492,0.008079529,0,
00:07.8,0.003141403,0.002059937,0.008085251,0,
00:07.8,0.003141403,0.002054214,0.008085251,0,
00:07.8,0.003141403,0.002048492,0.008085251,0,
00:07.8,0.003141403,0.002048492,0.008090973,0,
00:07.8,0.003141403,0.002054214,0.008108139,0,
00:07.8,0.003147125,0.002059937,0.008108139,0,
00:07.8,0.003141403,0.002065659,0.008108139,0,
00:07.9,0.003147125,0.002054214,0.008108139,0,
00:07.9,0.003152847,0.00204277,0.008113861,0,
00:07.9,0.003147125,0.002048492,0.008125305,0,
00:07.9,0.003141403,0.002054214,0.008125305,0,
00:07.9,0.003147125,0.002054214,0.008125305,0,
00:07.9,0.003152847,0.002054214,0.008131027,0,
00:07.9,0.003147125,0.002048492,0.008131027,0,
00:07.9,0.003147125,0.002054214,0.008148193,0,
00:07.9,0.003147125,0.00204277,0.008153915,0,
00:07.9,0.003147125,0.002048492,0.008153915,0,
00:07.9,0.003141403,0.00204277,0.008142471,0,
00:07.9,0.003135681,0.002037048,0.008148193,0,
00:07.9,0.003158569,0.002065659,0.008159637,0,
00:07.9,0.003147125,0.002059937,0.008165359,0,
00:07.9,0.003141403,0.002054214,0.008165359,0,
00:07.9,0.003135681,0.002054214,0.008159637,0,
00:07.9,0.003147125,0.002054214,0.008165359,0,
00:07.9,0.003158569,0.002048492,0.008188248,0,
00:07.9,0.003147125,0.002048492,0.008188248,0,
00:07.9,0.003141403,0.002048492,0.008182526,0,
00:07.9,0.003147125,0.002054214,0.00819397,0,
00:07.9,0.003152847,0.00204277,0.00819397,0,
00:07.9,0.003158569,0.002054214,0.008176804,0,
00:07.9,0.003152847,0.002048492,0.008199692,0,
00:07.9,0.003152847,0.002054214,0.008199692,0,
00:08.0,0.003135681,0.002037048,0.008211136,0,
00:08.0,0.003147125,0.002048492,0.008211136,0,
00:08.0,0.003152847,0.00204277,0.00822258,0,
00:08.0,0.003147125,0.002054214,0.008216858,0,
00:08.0,0.003152847,0.002071381,0.008216858,0,
00:08.0,0.003158569,0.002048492,0.008228302,0,
00:08.0,0.003147125,0.00204277,0.008234024,0,
00:08.0,0.003152847,0.002048492,0.008228302,0,
00:08.0,0.003147125,0.002048492,0.008228302,0,
00:08.0,0.003135681,0.00204277,0.008239746,0,
00:08.0,0.003147125,0.002054214,0.008228302,0,
00:08.0,0.003152847,0.002054214,0.008234024,0,
00:00:08,0.003152847,0.002048492,0.008245468,0,
00:08.0,0.003147125,0.002054214,0.008245468,0,
00:08.0,0.003147125,0.002054214,0.00825119,0,
00:08.0,0.003141403,0.002054214,0.00825119,0,
00:08.0,0.003158569,0.002054214,0.00825119,0,
00:08.0,0.003152847,0.00204277,0.008274078,0,
00:08.0,0.003152847,0.00204277,0.008262634,0,
00:08.0,0.003135681,0.002054214,0.008262634,0,
00:08.0,0.003141403,0.002054214,0.008256912,0,
00:08.0,0.003164291,0.002059937,0.008262634,0,
00:08.0,0.003158569,0.002059937,0.008274078,0,
00:08.0,0.003152847,0.002059937,0.008274078,0,
00:08.0,0.003152847,0.002065659,0.008274078,0,
00:08.1,0.003152847,0.002059937,0.008268356,0,
00:08.1,0.003147125,0.002054214,0.008274078,0,
00:08.1,0.003152847,0.002054214,0.0082798,0,
00:08.1,0.003158569,0.002071381,0.008302689,0,
00:08.1,0.003147125,0.002054214,0.008308411,0,
00:08.1,0.003152847,0.002054214,0.008308411,0,
00:08.1,0.003158569,0.002059937,0.008296967,0,
00:08.1,0.003158569,0.002059937,0.008296967,0,
00:08.1,0.003147125,0.002054214,0.008314133,0,
00:08.1,0.003147125,0.002065659,0.008308411,0,
00:08.1,0.003152847,0.002059937,0.008302689,0,
00:08.1,0.003152847,0.002048492,0.008302689,0,
00:08.1,0.003147125,0.002054214,0.008319855,0,
00:08.1,0.003147125,0.002065659,0.008325577,0,
00:08.1,0.003147125,0.002054214,0.008319855,0,
00:08.1,0.003141403,0.00204277,0.008314133,0,
00:08.1,0.003152847,0.002054214,0.008314133,0,
00:08.1,0.003152847,0.002077103,0.008319855,0,
00:08.1,0.003147125,0.002054214,0.008337021,0,
00:08.1,0.003152847,0.002077103,0.008325577,0,
00:08.1,0.003158569,0.002065659,0.008319855,0,
00:08.1,0.003158569,0.002054214,0.008337021,0,
00:08.1,0.003152847,0.002054214,0.008348465,0,
00:08.1,0.003152847,0.002065659,0.008348465,0,
00:08.1,0.003147125,0.002059937,0.008348465,0,
00:08.2,0.003147125,0.002059937,0.008348465,0,
00:08.2,0.003152847,0.002054214,0.008348465,0,
00:08.2,0.003152847,0.002059937,0.008354187,0,
00:08.2,0.003152847,0.002077103,0.008348465,0,
00:08.2,0.003147125,0.002065659,0.008348465,0,
00:08.2,0.003152847,0.002065659,0.008359909,0,
00:08.2,0.003152847,0.002054214,0.008359909,0,
00:08.2,0.003152847,0.002059937,0.008365631,0,
00:08.2,0.003147125,0.002065659,0.008382797,0,
00:08.2,0.003152847,0.002071381,0.008365631,0,
00:08.2,0.003164291,0.002059937,0.008371353,0,
00:08.2,0.003141403,0.002048492,0.008382797,0,
00:08.2,0.003147125,0.002059937,0.008382797,0,
00:08.2,0.003152847,0.002065659,0.008382797,0,
00:08.2,0.003147125,0.002054214,0.008388519,0,
00:08.2,0.003158569,0.002065659,0.008371353,0,
00:08.2,0.003152847,0.002048492,0.008371353,0,
00:08.2,0.003152847,0.002077103,0.008399963,0,
00:08.2,0.003152847,0.002077103,0.008394241,0,
00:08.2,0.003152847,0.002065659,0.008405685,0,
00:08.2,0.003147125,0.002048492,0.008405685,0,
00:08.2,0.003147125,0.002059937,0.00841713,0,
00:08.2,0.003164291,0.002082825,0.008405685,0,
00:08.2,0.003152847,0.002071381,0.008399963,0,
00:08.2,0.003147125,0.002065659,0.00841713,0,
00:08.3,0.003147125,0.002065659,0.008422852,0,
00:08.3,0.003152847,0.002059937,0.008422852,0,
00:08.3,0.003158569,0.002071381,0.008422852,0,
00:08.3,0.003152847,0.002071381,0.008428574,0,
00:08.3,0.003141403,0.002071381,0.008434296,0,
00:08.3,0.003147125,0.002059937,0.008440018,0,
00:08.3,0.003147125,0.002048492,0.00844574,0,
00:08.3,0.003152847,0.002059937,0.008440018,0,
00:08.3,0.003152847,0.002065659,0.008422852,0,
00:08.3,0.003152847,0.002065659,0.008440018,0,
00:08.3,0.003164291,0.002071381,0.00844574,0,
00:08.3,0.003152847,0.00204277,0.008440018,0,
00:08.3,0.003147125,0.002048492,0.008451462,0,
00:08.3,0.003141403,0.002059937,0.008457184,0,
00:08.3,0.003158569,0.002088547,0.008468628,0,
00:08.3,0.003158569,0.002071381,0.008462906,0,
00:08.3,0.003152847,0.002065659,0.00847435,0,
00:08.3,0.003152847,0.002071381,0.008468628,0,
00:08.3,0.003152847,0.002077103,0.008462906,0,
00:08.3,0.003141403,0.002065659,0.00847435,0,
00:08.3,0.003147125,0.002065659,0.00847435,0,
00:08.3,0.003152847,0.002065659,0.00847435,0,
00:08.3,0.003147125,0.002065659,0.00847435,0,
00:08.3,0.003147125,0.002071381,0.008480072,0,
00:08.3,0.003147125,0.002071381,0.008480072,0,
00:08.4,0.003147125,0.002059937,0.00847435,0,
00:08.4,0.003147125,0.002054214,0.008491516,0,
00:08.4,0.003158569,0.002071381,0.008485794,0,
00:08.4,0.003152847,0.002077103,0.008485794,0,
00:08.4,0.003147125,0.002065659,0.008491516,0,
00:08.4,0.003158569,0.002065659,0.008491516,0,
00:08.4,0.003158569,0.002065659,0.008485794,0,
00:08.4,0.003135681,0.002059937,0.008491516,0,
00:08.4,0.003141403,0.002054214,0.008497238,0,
00:08.4,0.003147125,0.002059937,0.00850296,0,
00:08.4,0.003152847,0.002054214,0.00850296,0,
00:08.4,0.003152847,0.002071381,0.00850296,0,
00:08.4,0.003147125,0.002071381,0.00850296,0,
00:08.4,0.003152847,0.002071381,0.008508682,0,
00:08.4,0.003152847,0.002071381,0.008520126,0,
00:08.4,0.003152847,0.002071381,0.008520126,0,
00:08.4,0.003152847,0.002071381,0.008520126,0,
00:08.4,0.003147125,0.002077103,0.008514404,0,
00:08.4,0.003141403,0.002059937,0.008525848,0,
00:08.4,0.003141403,0.002059937,0.008514404,0,
00:08.4,0.003152847,0.002071381,0.008525848,0,
00:08.4,0.003164291,0.002077103,0.00853157,0,
00:08.4,0.003158569,0.002071381,0.00853157,0,
00:08.4,0.003152847,0.002077103,0.008537292,0,
00:08.4,0.003147125,0.002071381,0.00853157,0,
00:08.5,0.003147125,0.002071381,0.008537292,0,
00:08.5,0.003152847,0.002065659,0.008537292,0,
00:08.5,0.003152847,0.002071381,0.00853157,0,
00:08.5,0.003141403,0.002071381,0.008537292,0,
00:08.5,0.003141403,0.002071381,0.008554459,0,
00:08.5,0.003152847,0.002071381,0.008548737,0,
00:08.5,0.003158569,0.002077103,0.008537292,0,
00:08.5,0.003152847,0.002071381,0.00853157,0,
00:08.5,0.003152847,0.002071381,0.008560181,0,
00:08.5,0.003147125,0.002054214,0.008560181,0,
00:08.5,0.003141403,0.002059937,0.008548737,0,
00:08.5,0.003164291,0.002077103,0.00853157,0,
00:08.5,0.003158569,0.002071381,0.008577347,0,
00:08.5,0.003147125,0.002077103,0.008588791,0,
00:08.5,0.003147125,0.002082825,0.008571625,0,
00:08.5,0.003152847,0.002077103,0.008554459,0,
00:08.5,0.003147125,0.002071381,0.008577347,0,
00:08.5,0.003147125,0.002077103,0.008594513,0,
00:08.5,0.003141403,0.002071381,0.008588791,0,
00:08.5,0.003141403,0.002071381,0.008588791,0,
00:08.5,0.003147125,0.002071381,0.008577347,0,
00:08.5,0.003158569,0.002077103,0.008583069,0,
00:08.5,0.003147125,0.002071381,0.008594513,0,
00:08.5,0.003147125,0.002065659,0.008594513,0,
00:08.5,0.003147125,0.002071381,0.008594513,0,
00:08.6,0.003147125,0.002077103,0.008594513,0,
00:08.6,0.003158569,0.002082825,0.008583069,0,
00:08.6,0.003152847,0.002088547,0.008583069,0,
00:08.6,0.003152847,0.002088547,0.008577347,0,
00:08.6,0.003147125,0.002071381,0.008594513,0,
00:08.6,0.003152847,0.002071381,0.008605957,0,
00:08.6,0.003147125,0.002065659,0.008605957,0,
00:08.6,0.003158569,0.002088547,0.008600235,0,
00:08.6,0.003147125,0.002082825,0.008600235,0,
00:08.6,0.003147125,0.002071381,0.008600235,0,
00:08.6,0.003152847,0.002082825,0.008617401,0,
00:08.6,0.003152847,0.002082825,0.008628845,0,
00:08.6,0.003158569,0.002094269,0.008623123,0,
00:08.6,0.003152847,0.002094269,0.008628845,0,
00:08.6,0.003147125,0.002082825,0.008623123,0,
00:08.6,0.003147125,0.002077103,0.008623123,0,
00:08.6,0.003152847,0.002088547,0.008628845,0,
00:08.6,0.003147125,0.002094269,0.008628845,0,
00:08.6,0.003147125,0.002105713,0.008634567,0,
00:08.6,0.003135681,0.002099991,0.008634567,0,
00:08.6,0.003152847,0.002088547,0.008623123,0,
00:08.6,0.003152847,0.002088547,0.008628845,0,
00:08.6,0.003158569,0.002094269,0.008634567,0,
00:08.6,0.003152847,0.002094269,0.008634567,0,
00:08.6,0.003152847,0.002088547,0.008646011,0,
00:08.7,0.003152847,0.002094269,0.008646011,0,
00:08.7,0.003152847,0.002094269,0.008651733,0,
00:08.7,0.003152847,0.002088547,0.008640289,0,
00:08.7,0.003152847,0.002088547,0.008634567,0,
00:08.7,0.003152847,0.002094269,0.008646011,0,
00:08.7,0.003141403,0.002088547,0.0086689,0,
00:08.7,0.003147125,0.002094269,0.008663177,0,
00:08.7,0.003152847,0.002099991,0.008657455,0,
00:08.7,0.003152847,0.002094269,0.008657455,0,
00:08.7,0.003152847,0.002082825,0.008663177,0,
00:08.7,0.003152847,0.002105713,0.008651733,0,
00:08.7,0.003158569,0.002105713,0.008651733,0,
00:08.7,0.003152847,0.002099991,0.008657455,0,
00:08.7,0.003147125,0.002094269,0.0086689,0,
00:08.7,0.003147125,0.002088547,0.008663177,0,
00:08.7,0.003147125,0.002094269,0.0086689,0,
00:08.7,0.003141403,0.002099991,0.008680344,0,
00:08.7,0.003152847,0.002111435,0.008674622,0,
00:08.7,0.003152847,0.002094269,0.008657455,0,
00:08.7,0.003147125,0.002099991,0.008657455,0,
00:08.7,0.003152847,0.002105713,0.008674622,0,
00:08.7,0.003152847,0.002094269,0.008680344,0,
00:08.7,0.003141403,0.002094269,0.008686066,0,
00:08.7,0.003141403,0.002094269,0.008691788,0,
00:08.7,0.003152847,0.002099991,0.008686066,0,
00:08.8,0.003147125,0.002088547,0.008691788,0,
00:08.8,0.003147125,0.002099991,0.008691788,0,
00:08.8,0.003147125,0.002105713,0.008686066,0,
00:08.8,0.003152847,0.002111435,0.008686066,0,
00:08.8,0.003147125,0.002099991,0.008703232,0,
00:08.8,0.003152847,0.002105713,0.00869751,0,
00:08.8,0.003147125,0.002122879,0.00869751,0,
00:08.8,0.003141403,0.002111435,0.008703232,0,
00:08.8,0.003141403,0.002099991,0.008703232,0,
00:08.8,0.003147125,0.002094269,0.00869751,0,
00:08.8,0.003158569,0.002105713,0.008703232,0,
00:08.8,0.003147125,0.002105713,0.00869751,0,
00:08.8,0.003147125,0.002099991,0.008691788,0,
00:08.8,0.003147125,0.002105713,0.008703232,0,
00:08.8,0.003141403,0.002117157,0.008708954,0,
00:08.8,0.003141403,0.002105713,0.008731842,0,
00:08.8,0.003141403,0.002105713,0.00872612,0,
00:08.8,0.003147125,0.002117157,0.008731842,0,
00:08.8,0.003141403,0.002111435,0.008720398,0,
00:08.8,0.003141403,0.002105713,0.008708954,0,
00:08.8,0.003147125,0.002105713,0.00872612,0,
00:08.8,0.003141403,0.002099991,0.008749008,0,
00:08.8,0.003152847,0.002117157,0.008731842,0,
00:08.8,0.003147125,0.002117157,0.008731842,0,
00:08.8,0.003141403,0.002099991,0.008737564,0,
00:08.9,0.003147125,0.002099991,0.00872612,0,
00:08.9,0.003147125,0.002111435,0.008731842,0,
00:08.9,0.003147125,0.002117157,0.008743286,0,
00:08.9,0.003141403,0.002111435,0.008743286,0,
00:08.9,0.003141403,0.002105713,0.008743286,0,
00:08.9,0.003147125,0.002099991,0.008731842,0,
00:08.9,0.003147125,0.002111435,0.008743286,0,
00:08.9,0.003135681,0.002105713,0.008749008,0,
00:08.9,0.003141403,0.002111435,0.008743286,0,
00:08.9,0.003141403,0.002105713,0.008743286,0,
00:08.9,0.003141403,0.002105713,0.008737564,0,
00:08.9,0.003141403,0.002105713,0.008777618,0,
00:08.9,0.003135681,0.002099991,0.008771896,0,
00:08.9,0.003124237,0.002088547,0.008766174,0,
00:08.9,0.003141403,0.002111435,0.008771896,0,
00:08.9,0.003147125,0.002128601,0.008771896,0,
00:08.9,0.003141403,0.002099991,0.008766174,0,
00:08.9,0.003147125,0.002099991,0.008766174,0,
00:08.9,0.003152847,0.002111435,0.008771896,0,
00:08.9,0.003141403,0.002105713,0.008760452,0,
00:08.9,0.003141403,0.002105713,0.008766174,0,
00:08.9,0.003141403,0.002094269,0.008777618,0,
00:08.9,0.003135681,0.002099991,0.008777618,0,
00:08.9,0.003129959,0.002105713,0.008789063,0,
00:08.9,0.003141403,0.002088547,0.008794785,0,
00:09.0,0.003141403,0.002094269,0.008789063,0,
00:09.0,0.003141403,0.002099991,0.00878334,0,
00:09.0,0.003135681,0.002099991,0.008789063,0,
00:09.0,0.003141403,0.002105713,0.008789063,0,
00:09.0,0.003141403,0.002099991,0.00878334,0,
00:09.0,0.003141403,0.002094269,0.008789063,0,
00:09.0,0.003141403,0.002105713,0.008777618,0,
00:09.0,0.003135681,0.002105713,0.008806229,0,
00:09.0,0.003129959,0.002099991,0.008794785,0,
00:09.0,0.003135681,0.002088547,0.008789063,0,
00:09.0,0.003141403,0.002099991,0.008789063,0,
00:09.0,0.003135681,0.002099991,0.008800507,0,
00:00:09,0.003129959,0.002088547,0.008811951,0,
00:09.0,0.003135681,0.002088547,0.008817673,0,
00:09.0,0.003135681,0.002094269,0.008811951,0,
00:09.0,0.003129959,0.002077103,0.008811951,0,
00:09.0,0.003141403,0.002088547,0.008823395,0,
00:09.0,0.003141403,0.002105713,0.008817673,0,
00:09.0,0.003135681,0.002094269,0.008811951,0,
00:09.0,0.003135681,0.002088547,0.008829117,0,
00:09.0,0.003141403,0.002088547,0.008829117,0,
00:09.0,0.003141403,0.002088547,0.008823395,0,
00:09.0,0.003124237,0.002082825,0.008834839,0,
00:09.0,0.003129959,0.002082825,0.008829117,0,
00:09.0,0.003135681,0.002082825,0.008829117,0,
00:09.1,0.003141403,0.002088547,0.008834839,0,
00:09.1,0.003135681,0.002088547,0.008834839,0,
00:09.1,0.003129959,0.002082825,0.008834839,0,
00:09.1,0.003118515,0.002088547,0.008834839,0,
00:09.1,0.003135681,0.002082825,0.008834839,0,
00:09.1,0.003141403,0.002082825,0.008840561,0,
00:09.1,0.003135681,0.002077103,0.008834839,0,
00:09.1,0.003135681,0.002082825,0.008857727,0,
00:09.1,0.003141403,0.002082825,0.008852005,0,
00:09.1,0.003129959,0.002077103,0.008863449,0,
00:09.1,0.003141403,0.002077103,0.008869171,0,
00:09.1,0.003147125,0.002088547,0.008863449,0,
00:09.1,0.003135681,0.002088547,0.008863449,0,
00:09.1,0.003129959,0.002082825,0.008869171,0,
00:09.1,0.003129959,0.002077103,0.008863449,0,
00:09.1,0.003129959,0.002077103,0.008857727,0,
00:09.1,0.003141403,0.002077103,0.008869171,0,
00:09.1,0.003129959,0.002071381,0.008880615,0,
00:09.1,0.003124237,0.002065659,0.008869171,0,
00:09.1,0.003124237,0.002071381,0.008880615,0,
00:09.1,0.003129959,0.002088547,0.008880615,0,
00:09.1,0.003129959,0.002094269,0.008874893,0,
00:09.1,0.003135681,0.002088547,0.008880615,0,
00:09.1,0.003135681,0.002071381,0.008886337,0,
00:09.1,0.003135681,0.002082825,0.008897781,0,
00:09.2,0.003135681,0.002082825,0.008892059,0,
00:09.2,0.003135681,0.002082825,0.008886337,0,
00:09.2,0.003124237,0.002077103,0.008880615,0,
00:09.2,0.003118515,0.002065659,0.008903503,0,
00:09.2,0.003135681,0.002077103,0.008903503,0,
00:09.2,0.003135681,0.002077103,0.008903503,0,
00:09.2,0.003135681,0.002077103,0.008903503,0,
00:09.2,0.003129959,0.002082825,0.008909225,0,
00:09.2,0.003124237,0.002077103,0.00892067,0,
00:09.2,0.003124237,0.002077103,0.008909225,0,
00:09.2,0.003124237,0.002082825,0.008914948,0,
00:09.2,0.003129959,0.002077103,0.008926392,0,
00:09.2,0.003135681,0.002082825,0.008926392,0,
00:09.2,0.003124237,0.002082825,0.008932114,0,
00:09.2,0.003129959,0.002071381,0.008932114,0,
00:09.2,0.003135681,0.002071381,0.008932114,0,
00:09.2,0.003129959,0.002071381,0.008926392,0,
00:09.2,0.003124237,0.002077103,0.008926392,0,
00:09.2,0.003112793,0.002071381,0.008932114,0,
00:09.2,0.003124237,0.002065659,0.00894928,0,
00:09.2,0.003129959,0.002065659,0.00894928,0,
00:09.2,0.003118515,0.002071381,0.008943558,0,
00:09.2,0.003118515,0.002082825,0.008943558,0,
00:09.2,0.003124237,0.002077103,0.008926392,0,
00:09.2,0.003129959,0.002071381,0.008932114,0,
00:09.3,0.003129959,0.002077103,0.008955002,0,
00:09.3,0.003129959,0.002077103,0.008960724,0,
00:09.3,0.003118515,0.002071381,0.00894928,0,
00:09.3,0.003118515,0.002048492,0.00894928,0,
00:09.3,0.003124237,0.002077103,0.008960724,0,
00:09.3,0.003129959,0.002077103,0.008966446,0,
00:09.3,0.003124237,0.002071381,0.008960724,0,
00:09.3,0.003124237,0.002071381,0.008966446,0,
00:09.3,0.003124237,0.002071381,0.008983612,0,
00:09.3,0.003124237,0.002065659,0.00897789,0,
00:09.3,0.003124237,0.002065659,0.008972168,0,
00:09.3,0.003124237,0.002065659,0.008972168,0,
00:09.3,0.003124237,0.002065659,0.008960724,0,
00:09.3,0.003112793,0.002054214,0.008972168,0,
00:09.3,0.003112793,0.002065659,0.008989334,0,
00:09.3,0.003118515,0.002065659,0.008983612,0,
00:09.3,0.003124237,0.002059937,0.00897789,0,
00:09.3,0.003124237,0.002065659,0.00897789,0,
00:09.3,0.003118515,0.002065659,0.00897789,0,
00:09.3,0.003112793,0.002054214,0.008983612,0,
00:09.3,0.003124237,0.002054214,0.008995056,0,
00:09.3,0.003112793,0.002054214,0.009000778,0,
00:09.3,0.003112793,0.002048492,0.009000778,0,
00:09.3,0.003112793,0.002054214,0.009000778,0,
00:09.3,0.003118515,0.00204277,0.009000778,0,
00:09.4,0.003118515,0.002048492,0.0090065,0,
00:09.4,0.003112793,0.002054214,0.008995056,0,
00:09.4,0.003118515,0.002059937,0.0090065,0,
00:09.4,0.003112793,0.002054214,0.009000778,0,
00:09.4,0.003118515,0.00204277,0.008995056,0,
00:09.4,0.003118515,0.002048492,0.009017944,0,
00:09.4,0.003124237,0.002065659,0.009017944,0,
00:09.4,0.003118515,0.002071381,0.009012222,0,
00:09.4,0.003112793,0.002059937,0.0090065,0,
00:09.4,0.003118515,0.002059937,0.009000778,0,
00:09.4,0.003118515,0.002054214,0.009017944,0,
00:09.4,0.003112793,0.00204277,0.009017944,0,
00:09.4,0.003118515,0.002059937,0.0090065,0,
00:09.4,0.003107071,0.002048492,0.009023666,0,
00:09.4,0.003112793,0.002048492,0.009046555,0,
00:09.4,0.003112793,0.002048492,0.009040833,0,
00:09.4,0.003112793,0.002054214,0.00903511,0,
00:09.4,0.003112793,0.002048492,0.009029388,0,
00:09.4,0.003107071,0.002048492,0.009023666,0,
00:09.4,0.003112793,0.00204277,0.009046555,0,
00:09.4,0.003118515,0.002048492,0.009052277,0,
00:09.4,0.003112793,0.002048492,0.009052277,0,
00:09.4,0.003107071,0.002054214,0.009046555,0,
00:09.4,0.003107071,0.002048492,0.009040833,0,
00:09.4,0.003118515,0.002054214,0.009046555,0,
00:09.5,0.003124237,0.002048492,0.009057999,0,
00:09.5,0.003112793,0.002048492,0.009052277,0,
00:09.5,0.003112793,0.002059937,0.009057999,0,
00:09.5,0.003107071,0.002054214,0.009063721,0,
00:09.5,0.003112793,0.002048492,0.009057999,0,
00:09.5,0.003112793,0.002054214,0.009052277,0,
00:09.5,0.003107071,0.002054214,0.009052277,0,
00:09.5,0.003101349,0.002059937,0.009080887,0,
00:09.5,0.003101349,0.002054214,0.009086609,0,
00:09.5,0.003112793,0.002048492,0.009080887,0,
00:09.5,0.003112793,0.00204277,0.009063721,0,
00:09.5,0.003107071,0.002054214,0.009063721,0,
00:09.5,0.003101349,0.002059937,0.009075165,0,
00:09.5,0.003107071,0.002054214,0.009086609,0,
00:09.5,0.003107071,0.002059937,0.009092331,0,
00:09.5,0.003107071,0.002048492,0.009086609,0,
00:09.5,0.003101349,0.002048492,0.009092331,0,
00:09.5,0.003101349,0.002054214,0.009098053,0,
00:09.5,0.003101349,0.002048492,0.009092331,0,
00:09.5,0.003101349,0.002048492,0.009080887,0,
00:09.5,0.003101349,0.002054214,0.009080887,0,
00:09.5,0.003112793,0.002048492,0.009098053,0,
00:09.5,0.003101349,0.002054214,0.009098053,0,
00:09.5,0.003112793,0.002059937,0.009115219,0,
00:09.5,0.003107071,0.002037048,0.009115219,0,
00:09.6,0.003095627,0.002031326,0.009115219,0,
00:09.6,0.003101349,0.002059937,0.009103775,0,
00:09.6,0.003101349,0.002059937,0.009103775,0,
00:09.6,0.003107071,0.002054214,0.009098053,0,
00:09.6,0.003112793,0.002059937,0.009109497,0,
00:09.6,0.003101349,0.002054214,0.009120941,0,
00:09.6,0.003101349,0.002059937,0.009120941,0,
00:09.6,0.003107071,0.002065659,0.009115219,0,
00:09.6,0.003107071,0.002059937,0.009126663,0,
00:09.6,0.003101349,0.002059937,0.009126663,0,
00:09.6,0.003101349,0.002037048,0.009126663,0,
00:09.6,0.003101349,0.00204277,0.009120941,0,
00:09.6,0.003101349,0.002059937,0.009120941,0,
00:09.6,0.003101349,0.002059937,0.009120941,0,
00:09.6,0.003107071,0.002054214,0.009132385,0,
00:09.6,0.003101349,0.002054214,0.009138107,0,
00:09.6,0.003101349,0.002059937,0.009126663,0,
00:09.6,0.003101349,0.002059937,0.009126663,0,
00:09.6,0.003101349,0.002054214,0.009126663,0,
00:09.6,0.003095627,0.002059937,0.009132385,0,
00:09.6,0.003089905,0.002048492,0.009149551,0,
00:09.6,0.003107071,0.002048492,0.009149551,0,
00:09.6,0.003101349,0.002065659,0.009138107,0,
00:09.6,0.003089905,0.002054214,0.009132385,0,
00:09.6,0.003107071,0.002059937,0.009138107,0,
00:09.7,0.003101349,0.002059937,0.009149551,0,
00:09.7,0.003101349,0.002059937,0.009143829,0,
00:09.7,0.003101349,0.002065659,0.009138107,0,
00:09.7,0.003095627,0.002054214,0.009149551,0,
00:09.7,0.003107071,0.002054214,0.009155273,0,
00:09.7,0.003107071,0.002059937,0.009138107,0,
00:09.7,0.003089905,0.002048492,0.009138107,0,
00:09.7,0.003095627,0.002065659,0.009149551,0,
00:09.7,0.003089905,0.002059937,0.009166718,0,
00:09.7,0.003095627,0.002048492,0.009166718,0,
00:09.7,0.003095627,0.002059937,0.009155273,0,
00:09.7,0.003101349,0.002082825,0.009160995,0,
00:09.7,0.003084183,0.002048492,0.009178162,0,
00:09.7,0.003095627,0.002048492,0.009160995,0,
00:09.7,0.003101349,0.002054214,0.009155273,0,
00:09.7,0.003095627,0.002054214,0.009166718,0,
00:09.7,0.003101349,0.002065659,0.009155273,0,
00:09.7,0.003089905,0.002059937,0.009166718,0,
00:09.7,0.003095627,0.002048492,0.009178162,0,
00:09.7,0.003101349,0.002054214,0.00917244,0,
00:09.7,0.003095627,0.002059937,0.009166718,0,
00:09.7,0.003095627,0.002059937,0.009166718,0,
00:09.7,0.003089905,0.002054214,0.009160995,0,
00:09.7,0.003095627,0.002054214,0.009160995,0,
00:09.7,0.003095627,0.002048492,0.00917244,0,
00:09.8,0.003095627,0.002048492,0.009178162,0,
00:09.8,0.003095627,0.002054214,0.009166718,0,
00:09.8,0.003095627,0.002054214,0.00917244,0,
00:09.8,0.003089905,0.00204277,0.009178162,0,
00:09.8,0.003089905,0.00204277,0.00917244,0,
00:09.8,0.003101349,0.002048492,0.009160995,0,
00:09.8,0.003089905,0.002054214,0.009166718,0,
00:09.8,0.003084183,0.002054214,0.009183884,0,
00:09.8,0.003084183,0.00204277,0.009178162,0,
00:09.8,0.003095627,0.002037048,0.009189606,0,
00:09.8,0.003089905,0.00204277,0.009183884,0,
00:09.8,0.003089905,0.002054214,0.009183884,0,
00:09.8,0.003095627,0.002059937,0.009178162,0,
00:09.8,0.003095627,0.002071381,0.009166718,0,
00:09.8,0.003089905,0.002059937,0.009183884,0,
00:09.8,0.003095627,0.002048492,0.009189606,0,
00:09.8,0.003095627,0.002048492,0.009183884,0,
00:09.8,0.003078461,0.00204277,0.00917244,0,
00:09.8,0.003089905,0.002059937,0.009189606,0,
00:09.8,0.003101349,0.002054214,0.009178162,0,
00:09.8,0.003095627,0.002059937,0.009178162,0,
00:09.8,0.003089905,0.002059937,0.009178162,0,
00:09.8,0.003084183,0.002048492,0.009189606,0,
00:09.8,0.003089905,0.002054214,0.009183884,0,
00:09.8,0.003089905,0.002054214,0.009189606,0,
00:09.9,0.003089905,0.002048492,0.009189606,0,
00:09.9,0.003089905,0.002059937,0.009183884,0,
00:09.9,0.003089905,0.002059937,0.009178162,0,
00:09.9,0.003101349,0.002048492,0.00917244,0,
00:09.9,0.003089905,0.002048492,0.009189606,0,
00:09.9,0.003078461,0.00204277,0.009195328,0,
00:09.9,0.003078461,0.002048492,0.009195328,0,
00:09.9,0.003095627,0.002054214,0.009189606,0,
00:09.9,0.003089905,0.002037048,0.009195328,0,
00:09.9,0.003084183,0.002037048,0.00920105,0,
00:09.9,0.003095627,0.002065659,0.009195328,0,
00:09.9,0.003095627,0.002054214,0.00920105,0,
00:09.9,0.003089905,0.002059937,0.009189606,0,
00:09.9,0.003089905,0.002054214,0.009189606,0,
00:09.9,0.003089905,0.002054214,0.009183884,0,
00:09.9,0.003089905,0.002054214,0.009195328,0,
00:09.9,0.003084183,0.002054214,0.009195328,0,
00:09.9,0.003084183,0.002059937,0.009195328,0,
00:09.9,0.003089905,0.002065659,0.00920105,0,
00:09.9,0.003089905,0.002071381,0.009195328,0,
00:09.9,0.003089905,0.002059937,0.009189606,0,
00:09.9,0.003095627,0.002054214,0.009189606,0,
00:09.9,0.003078461,0.002048492,0.00920105,0,
00:09.9,0.003084183,0.002048492,0.009206772,0,
00:09.9,0.003084183,0.00204277,0.009189606,0,
00:10.0,0.003078461,0.002048492,0.00920105,0,
00:10.0,0.003084183,0.002059937,0.009206772,0,
00:10.0,0.003078461,0.002059937,0.009206772,0,
00:10.0,0.003078461,0.002054214,0.00920105,0,
00:10.0,0.003084183,0.002048492,0.009195328,0,
00:10.0,0.003084183,0.002037048,0.009195328,0,
00:10.0,0.003072739,0.00201416,0.009195328,0,
00:10.0,0.003089905,0.002071381,0.009195328,0,
00:10.0,0.003084183,0.002065659,0.00920105,0,
00:10.0,0.003084183,0.002048492,0.00920105,0,
00:10.0,0.003078461,0.00204277,0.00920105,0,
00:10.0,0.003084183,0.002065659,0.00920105,0,
00:00:10,0.003089905,0.002065659,0.00920105,0,
00:10.0,0.003084183,0.002054214,0.00920105,0,
00:10.0,0.003084183,0.002048492,0.009212494,0,
00:10.0,0.003089905,0.002059937,0.009206772,0,
00:10.0,0.003084183,0.002065659,0.00920105,0,
00:10.0,0.003084183,0.002054214,0.009212494,0,
00:10.0,0.003078461,0.002054214,0.009218216,0,
00:10.0,0.003078461,0.002054214,0.009223938,0,
00:10.0,0.003084183,0.002065659,0.009223938,0,
00:10.0,0.003078461,0.002054214,0.009218216,0,
00:10.0,0.003078461,0.00204277,0.009218216,0,
00:10.0,0.003078461,0.002048492,0.009212494,0,
00:10.0,0.003084183,0.002054214,0.009206772,0,
00:10.1,0.003078461,0.002054214,0.00920105,0,
00:10.1,0.003072739,0.002059937,0.009206772,0,
00:10.1,0.003072739,0.002059937,0.009189606,0,
00:10.1,0.003078461,0.00204277,0.009218216,0,
00:10.1,0.003078461,0.002019882,0.00922966,0,
00:10.1,0.003084183,0.002059937,0.009235382,0,
00:10.1,0.003078461,0.002071381,0.009223938,0,
00:10.1,0.003084183,0.002077103,0.009218216,0,
00:10.1,0.003078461,0.002065659,0.009212494,0,
00:10.1,0.003084183,0.002071381,0.009223938,0,
00:10.1,0.003084183,0.002077103,0.00922966,0,
00:10.1,0.003078461,0.002077103,0.009223938,0,
00:10.1,0.003084183,0.002065659,0.009218216,0,
00:10.1,0.003078461,0.002065659,0.009218216,0,
00:10.1,0.003072739,0.002059937,0.009218216,0,
00:10.1,0.003084183,0.002065659,0.009212494,0,
00:10.1,0.003084183,0.002065659,0.009218216,0,
00:10.1,0.003084183,0.002077103,0.009212494,0,
00:10.1,0.003084183,0.002071381,0.009218216,0,
00:10.1,0.003084183,0.002077103,0.009212494,0,
00:10.1,0.003084183,0.002065659,0.009212494,0,
00:10.1,0.003078461,0.002071381,0.009206772,0,
00:10.1,0.003072739,0.002071381,0.009218216,0,
00:10.1,0.003089905,0.002088547,0.00922966,0,
00:10.1,0.003095627,0.002077103,0.009223938,0,
00:10.2,0.003078461,0.002071381,0.009235382,0,
00:10.2,0.003078461,0.002065659,0.009223938,0,
00:10.2,0.003084183,0.002059937,0.009223938,0,
00:10.2,0.003089905,0.002065659,0.009223938,0,
00:10.2,0.003084183,0.002077103,0.00922966,0,
00:10.2,0.003078461,0.002077103,0.009218216,0,
00:10.2,0.003078461,0.002065659,0.009218216,0,
00:10.2,0.003072739,0.002065659,0.009235382,0,
00:10.2,0.003084183,0.002071381,0.00922966,0,
00:10.2,0.003084183,0.002071381,0.009223938,0,
00:10.2,0.003089905,0.002082825,0.009223938,0,
00:10.2,0.003072739,0.002071381,0.00922966,0,
00:10.2,0.003072739,0.002065659,0.009218216,0,
00:10.2,0.003084183,0.002065659,0.009218216,0,
00:10.2,0.003084183,0.002082825,0.009218216,0,
00:10.2,0.003084183,0.002082825,0.009206772,0,
00:10.2,0.003078461,0.002077103,0.009235382,0,
00:10.2,0.003084183,0.002077103,0.009235382,0,
00:10.2,0.003084183,0.002077103,0.009241104,0,
00:10.2,0.003078461,0.002082825,0.009235382,0,
00:10.2,0.003078461,0.002088547,0.00922966,0,
00:10.2,0.003078461,0.002082825,0.009235382,0,
00:10.2,0.003084183,0.002088547,0.009218216,0,
00:10.2,0.003084183,0.002077103,0.00922966,0,
00:10.2,0.003084183,0.002077103,0.009241104,0,
00:10.3,0.003089905,0.002094269,0.009235382,0,
00:10.3,0.003078461,0.002082825,0.009223938,0,
00:10.3,0.003078461,0.002077103,0.009235382,0,
00:10.3,0.003078461,0.002065659,0.009241104,0,
