Elapsed_Time,EMG1,EMG2,EMG3,BioRadio Event,Unnamed: 5
00:00:00,0.001659393,-0.002248764,0.006076813,0,
00:00.0,0.001659393,-0.00223732,0.006071091,0,
00:00.0,0.001665115,-0.002225876,0.006076813,0,
00:00.0,0.001653671,-0.002248764,0.006076813,0,
00:00.0,0.001653671,-0.002254486,0.006065369,0,
00:00.0,0.001653671,-0.002260208,0.006071091,0,
00:00.0,0.001659393,-0.002254486,0.006065369,0,
00:00.0,0.001653671,-0.002254486,0.006065369,0,
00:00.0,0.001659393,-0.002260208,0.006082535,0,
00:00.0,0.001659393,-0.002254486,0.006071091,0,
00:00.0,0.001670837,-0.002248764,0.006071091,0,
00:00.0,0.001670837,-0.002225876,0.006071091,0,
00:00.0,0.001665115,-0.002220154,0.006065369,0,
00:00.1,0.001647949,-0.002248764,0.006053925,0,
00:00.1,0.001647949,-0.00223732,0.006065369,0,
00:00.1,0.001670837,-0.002225876,0.006071091,0,
00:00.1,0.001670837,-0.002231598,0.006065369,0,
00:00.1,0.001670837,-0.002214432,0.006059647,0,
00:00.1,0.001642227,-0.002243042,0.006065369,0,
00:00.1,0.001642227,-0.002254486,0.006065369,0,
00:00.1,0.001647949,-0.00223732,0.00604248,0,
00:00.1,0.001642227,-0.002231598,0.006065369,0,
00:00.1,0.001647949,-0.002225876,0.006111145,0,
00:00.1,0.001653671,-0.002214432,0.006099701,0,
00:00.1,0.001653671,-0.002197266,0.006065369,0,
00:00.1,0.001653671,-0.002231598,0.006076813,0,
00:00.1,0.001647949,-0.002225876,0.006093979,0,
00:00.1,0.001653671,-0.002225876,0.006093979,0,
00:00.1,0.001653671,-0.002220154,0.006088257,0,
00:00.1,0.001665115,-0.002214432,0.006088257,0,
00:00.1,0.001653671,-0.002220154,0.006088257,0,
00:00.1,0.001653671,-0.002202988,0.006082535,0,
00:00.1,0.001653671,-0.002220154,0.006099701,0,
00:00.1,0.001659393,-0.002225876,0.006093979,0,
00:00.1,0.001659393,-0.002231598,0.006093979,0,
00:00.1,0.001647949,-0.002225876,0.006088257,0,
00:00.1,0.001653671,-0.00220871,0.006088257,0,
00:00.1,0.001676559,-0.002180099,0.006093979,0,
00:00.2,0.001642227,-0.00220871,0.006093979,0,
00:00.2,0.001630783,-0.002243042,0.006105423,0,
00:00.2,0.001636505,-0.002231598,0.006105423,0,
00:00.2,0.001647949,-0.002220154,0.006105423,0,
00:00.2,0.001642227,-0.002220154,0.006088257,0,
00:00.2,0.001642227,-0.002220154,0.006105423,0,
00:00.2,0.001653671,-0.002214432,0.006116867,0,
00:00.2,0.001647949,-0.002202988,0.006105423,0,
00:00.2,0.001642227,-0.002214432,0.006122589,0,
00:00.2,0.001647949,-0.002202988,0.006134033,0,
00:00.2,0.001642227,-0.00220871,0.006116867,0,
00:00.2,0.001647949,-0.002202988,0.006111145,0,
00:00.2,0.001653671,-0.002202988,0.006105423,0,
00:00.2,0.001653671,-0.002185822,0.006128311,0,
00:00.2,0.001636505,-0.00220871,0.006116867,0,
00:00.2,0.001636505,-0.002214432,0.006116867,0,
00:00.2,0.001636505,-0.002225876,0.006116867,0,
00:00.2,0.001630783,-0.00223732,0.006122589,0,
00:00.2,0.001642227,-0.002225876,0.006134033,0,
00:00.2,0.001647949,-0.002202988,0.006116867,0,
00:00.2,0.001647949,-0.002197266,0.006116867,0,
00:00.2,0.001636505,-0.002180099,0.006122589,0,
00:00.2,0.001630783,-0.002185822,0.006134033,0,
00:00.2,0.001630783,-0.002202988,0.006134033,0,
00:00.2,0.001630783,-0.002202988,0.006145477,0,
00:00.3,0.001625061,-0.002220154,0.006151199,0,
00:00.3,0.001630783,-0.002214432,0.006139755,0,
00:00.3,0.001636505,-0.00220871,0.006128311,0,
00:00.3,0.001625061,-0.002202988,0.006139755,0,
00:00.3,0.001625061,-0.002191544,0.006128311,0,
00:00.3,0.001642227,-0.002174377,0.006134033,0,
00:00.3,0.001647949,-0.002185822,0.006128311,0,
00:00.3,0.001619339,-0.002197266,0.006145477,0,
00:00.3,0.001607895,-0.002214432,0.006156921,0,
00:00.3,0.001607895,-0.002214432,0.006162643,0,
00:00.3,0.001619339,-0.002202988,0.006162643,0,
00:00.3,0.001619339,-0.002197266,0.006145477,0,
00:00.3,0.001619339,-0.002197266,0.006139755,0,
00:00.3,0.001625061,-0.002202988,0.006162643,0,
00:00.3,0.001630783,-0.00220871,0.006174088,0,
00:00.3,0.001630783,-0.002202988,0.006151199,0,
00:00.3,0.001625061,-0.002174377,0.006139755,0,
00:00.3,0.001630783,-0.002180099,0.006145477,0,
00:00.3,0.001619339,-0.002197266,0.006139755,0,
00:00.3,0.001596451,-0.002220154,0.006151199,0,
00:00.3,0.001613617,-0.00220871,0.006156921,0,
00:00.3,0.001630783,-0.002180099,0.006151199,0,
00:00.3,0.001636505,-0.002162933,0.006145477,0,
00:00.3,0.001636505,-0.002151489,0.006145477,0,
00:00.3,0.001625061,-0.002191544,0.006174088,0,
00:00.4,0.001625061,-0.002197266,0.006162643,0,
00:00.4,0.001619339,-0.00220871,0.006162643,0,
00:00.4,0.001607895,-0.002191544,0.006162643,0,
00:00.4,0.001613617,-0.002185822,0.00617981,0,
00:00.4,0.001613617,-0.002191544,0.006191254,0,
00:00.4,0.001613617,-0.002185822,0.006168365,0,
00:00.4,0.001619339,-0.002180099,0.006162643,0,
00:00.4,0.001619339,-0.002174377,0.006162643,0,
00:00.4,0.001619339,-0.002174377,0.006168365,0,
00:00.4,0.001619339,-0.002180099,0.006174088,0,
00:00.4,0.001625061,-0.002180099,0.006174088,0,
00:00.4,0.001619339,-0.002180099,0.006168365,0,
00:00.4,0.001619339,-0.002168655,0.006168365,0,
00:00.4,0.001625061,-0.002157211,0.00617981,0,
00:00.4,0.001613617,-0.002162933,0.006185532,0,
00:00.4,0.001619339,-0.002151489,0.006174088,0,
00:00.4,0.001619339,-0.002151489,0.006162643,0,
00:00.4,0.001619339,-0.002162933,0.006191254,0,
00:00.4,0.001619339,-0.002174377,0.006191254,0,
00:00.4,0.001630783,-0.002151489,0.006174088,0,
00:00.4,0.001613617,-0.002168655,0.006151199,0,
00:00.4,0.001613617,-0.002180099,0.006174088,0,
00:00.4,0.001607895,-0.002174377,0.006202698,0,
00:00.4,0.001613617,-0.002162933,0.006196976,0,
00:00.4,0.001613617,-0.002162933,0.006191254,0,
00:00.5,0.001613617,-0.002168655,0.00617981,0,
00:00.5,0.001613617,-0.002174377,0.006191254,0,
00:00.5,0.001596451,-0.002197266,0.006202698,0,
00:00.5,0.001596451,-0.002197266,0.006191254,0,
00:00.5,0.001607895,-0.002174377,0.006196976,0,
00:00.5,0.001619339,-0.002151489,0.006191254,0,
00:00.5,0.001630783,-0.002134323,0.006202698,0,
00:00.5,0.001630783,-0.002145767,0.006196976,0,
00:00.5,0.001607895,-0.002157211,0.006191254,0,
00:00.5,0.001602173,-0.002157211,0.006196976,0,
00:00.5,0.001613617,-0.002151489,0.00620842,0,
00:00.5,0.001625061,-0.002157211,0.006191254,0,
00:00.5,0.001630783,-0.002122879,0.006191254,0,
00:00.5,0.001630783,-0.002134323,0.006231308,0,
00:00.5,0.001602173,-0.002174377,0.006214142,0,
00:00.5,0.001607895,-0.002174377,0.006231308,0,
00:00.5,0.001613617,-0.002162933,0.006214142,0,
00:00.5,0.001602173,-0.002162933,0.006214142,0,
00:00.5,0.001607895,-0.002162933,0.006225586,0,
00:00.5,0.001613617,-0.002151489,0.006225586,0,
00:00.5,0.001619339,-0.002134323,0.006219864,0,
00:00.5,0.001607895,-0.002140045,0.006202698,0,
00:00.5,0.001607895,-0.002145767,0.006214142,0,
00:00.5,0.001613617,-0.002140045,0.006225586,0,
00:00.5,0.001613617,-0.002128601,0.006231308,0,
00:00.6,0.001613617,-0.002134323,0.006225586,0,
00:00.6,0.001607895,-0.002140045,0.006214142,0,
00:00.6,0.001602173,-0.002151489,0.006214142,0,
00:00.6,0.001607895,-0.002151489,0.006231308,0,
00:00.6,0.001596451,-0.002151489,0.006225586,0,
00:00.6,0.001602173,-0.002145767,0.006231308,0,
00:00.6,0.001607895,-0.002145767,0.006231308,0,
00:00.6,0.001619339,-0.002140045,0.006214142,0,
00:00.6,0.001625061,-0.002122879,0.006231308,0,
00:00.6,0.001613617,-0.002128601,0.00623703,0,
00:00.6,0.001607895,-0.002122879,0.006248474,0,
00:00.6,0.001602173,-0.002151489,0.006225586,0,
00:00.6,0.001596451,-0.002157211,0.006231308,0,
00:00.6,0.001596451,-0.002151489,0.006254196,0,
00:00.6,0.001596451,-0.002134323,0.006242752,0,
00:00.6,0.001607895,-0.002111435,0.006231308,0,
00:00.6,0.001613617,-0.002111435,0.006231308,0,
00:00.6,0.001613617,-0.002122879,0.006248474,0,
00:00.6,0.001596451,-0.002122879,0.006242752,0,
00:00.6,0.001585007,-0.002134323,0.006231308,0,
00:00.6,0.001585007,-0.002134323,0.006254196,0,
00:00.6,0.001596451,-0.002122879,0.006259918,0,
00:00.6,0.001607895,-0.002117157,0.00626564,0,
00:00.6,0.001602173,-0.002122879,0.006254196,0,
00:00.6,0.001602173,-0.002117157,0.00626564,0,
00:00.7,0.001596451,-0.002117157,0.006259918,0,
00:00.7,0.001590729,-0.002134323,0.006254196,0,
00:00.7,0.001596451,-0.002145767,0.00626564,0,
00:00.7,0.001596451,-0.002128601,0.006254196,0,
00:00.7,0.001596451,-0.002094269,0.006259918,0,
00:00.7,0.001613617,-0.002071381,0.006277084,0,
00:00.7,0.001607895,-0.002088547,0.006271362,0,
00:00.7,0.001602173,-0.002111435,0.006254196,0,
00:00.7,0.001590729,-0.002117157,0.00626564,0,
00:00.7,0.001602173,-0.002094269,0.006282806,0,
00:00.7,0.001596451,-0.002105713,0.006282806,0,
00:00.7,0.001590729,-0.002122879,0.006271362,0,
00:00.7,0.001585007,-0.002128601,0.006277084,0,
00:00.7,0.001596451,-0.002111435,0.006277084,0,
00:00.7,0.001590729,-0.002105713,0.006271362,0,
00:00.7,0.001590729,-0.002111435,0.006277084,0,
00:00.7,0.001596451,-0.002105713,0.006271362,0,
00:00.7,0.001596451,-0.002088547,0.006271362,0,
00:00.7,0.001590729,-0.002077103,0.006277084,0,
00:00.7,0.001590729,-0.002088547,0.006288528,0,
00:00.7,0.001596451,-0.002088547,0.00629425,0,
00:00.7,0.001596451,-0.002099991,0.006282806,0,
00:00.7,0.001585007,-0.002105713,0.006282806,0,
00:00.7,0.001585007,-0.002105713,0.006282806,0,
00:00.7,0.001596451,-0.002088547,0.006277084,0,
00:00.8,0.001596451,-0.002077103,0.006282806,0,
00:00.8,0.001596451,-0.002071381,0.006288528,0,
00:00.8,0.001585007,-0.002082825,0.006305695,0,
00:00.8,0.001602173,-0.002065659,0.006305695,0,
00:00.8,0.001596451,-0.002065659,0.00629425,0,
00:00.8,0.001596451,-0.002071381,0.006277084,0,
00:00.8,0.001590729,-0.002071381,0.006271362,0,
00:00.8,0.001590729,-0.002071381,0.006277084,0,
00:00.8,0.001573563,-0.002099991,0.00629425,0,
00:00.8,0.001573563,-0.002111435,0.006317139,0,
00:00.8,0.001579285,-0.002094269,0.006311417,0,
00:00.8,0.001585007,-0.002071381,0.006299973,0,
00:00.8,0.001579285,-0.002077103,0.00629425,0,
00:00.8,0.001579285,-0.002077103,0.006305695,0,
00:00.8,0.001596451,-0.002059937,0.006305695,0,
00:00.8,0.001585007,-0.002048492,0.006299973,0,
00:00.8,0.001596451,-0.002037048,0.00629425,0,
00:00.8,0.001596451,-0.002065659,0.006288528,0,
00:00.8,0.001573563,-0.002077103,0.00629425,0,
00:00.8,0.001567841,-0.002065659,0.006328583,0,
00:00.8,0.001573563,-0.002059937,0.006317139,0,
00:00.8,0.001562119,-0.002054214,0.006317139,0,
00:00.8,0.001562119,-0.002059937,0.006322861,0,
00:00.8,0.001562119,-0.002059937,0.006317139,0,
00:00.8,0.001585007,-0.002025604,0.006311417,0,
00:00.9,0.001585007,-0.002025604,0.006317139,0,
00:00.9,0.001562119,-0.002059937,0.00629425,0,
00:00.9,0.001544952,-0.002088547,0.006299973,0,
00:00.9,0.001556396,-0.002088547,0.006317139,0,
00:00.9,0.001567841,-0.002059937,0.006334305,0,
00:00.9,0.001562119,-0.002048492,0.006345749,0,
00:00.9,0.001562119,-0.002054214,0.006322861,0,
00:00.9,0.001562119,-0.002059937,0.006328583,0,
00:00.9,0.001567841,-0.002054214,0.006340027,0,
00:00.9,0.001562119,-0.002065659,0.006328583,0,
00:00.9,0.001562119,-0.002059937,0.006334305,0,
00:00.9,0.001573563,-0.002048492,0.006340027,0,
00:00.9,0.001567841,-0.002054214,0.006328583,0,
00:00.9,0.001550674,-0.002054214,0.006334305,0,
00:00.9,0.001567841,-0.002048492,0.006362915,0,
00:00.9,0.001562119,-0.002048492,0.006351471,0,
00:00.9,0.001556396,-0.002065659,0.006334305,0,
00:00.9,0.001567841,-0.002048492,0.006328583,0,
00:00.9,0.001567841,-0.002037048,0.006328583,0,
00:00.9,0.001562119,-0.002019882,0.006345749,0,
00:00.9,0.001556396,-0.002025604,0.006334305,0,
00:00.9,0.001562119,-0.002048492,0.006340027,0,
00:00.9,0.001573563,-0.002048492,0.006340027,0,
00:00.9,0.001562119,-0.00204277,0.006345749,0,
00:00.9,0.001556396,-0.002054214,0.006351471,0,
00:01.0,0.001550674,-0.00204277,0.006345749,0,
00:01.0,0.001556396,-0.002037048,0.006368637,0,
00:01.0,0.001562119,-0.002048492,0.006351471,0,
00:01.0,0.001562119,-0.00204277,0.006357193,0,
00:01.0,0.001567841,-0.002037048,0.006357193,0,
00:01.0,0.001556396,-0.002048492,0.006357193,0,
00:01.0,0.001556396,-0.002048492,0.006374359,0,
00:01.0,0.001556396,-0.002048492,0.006351471,0,
00:01.0,0.001567841,-0.00204277,0.006362915,0,
00:01.0,0.001567841,-0.002031326,0.006357193,0,
00:01.0,0.001556396,-0.002025604,0.006368637,0,
00:01.0,0.001544952,-0.002048492,0.006374359,0,
00:00:01,0.001550674,-0.002054214,0.006374359,0,
00:01.0,0.001556396,-0.002037048,0.006368637,0,
00:01.0,0.001562119,-0.002019882,0.006380081,0,
00:01.0,0.001567841,-0.002008438,0.006362915,0,
00:01.0,0.001573563,-0.00201416,0.006345749,0,
00:01.0,0.001550674,-0.002054214,0.006368637,0,
00:01.0,0.00153923,-0.002048492,0.006380081,0,
00:01.0,0.001550674,-0.002031326,0.006391525,0,
00:01.0,0.001550674,-0.002025604,0.006385803,0,
00:01.0,0.001556396,-0.00201416,0.006380081,0,
00:01.0,0.001550674,-0.002019882,0.006362915,0,
00:01.0,0.001556396,-0.002025604,0.006380081,0,
00:01.0,0.001556396,-0.002037048,0.006385803,0,
00:01.1,0.001567841,-0.002037048,0.006380081,0,
00:01.1,0.001544952,-0.00204277,0.006374359,0,
00:01.1,0.00153923,-0.002031326,0.006385803,0,
00:01.1,0.001544952,-0.002019882,0.006380081,0,
00:01.1,0.00153923,-0.002019882,0.006385803,0,
00:01.1,0.00153923,-0.002031326,0.006380081,0,
00:01.1,0.00153923,-0.002037048,0.006368637,0,
00:01.1,0.00153923,-0.00204277,0.006374359,0,
00:01.1,0.00153923,-0.002031326,0.006374359,0,
00:01.1,0.001556396,-0.002008438,0.006391525,0,
00:01.1,0.001544952,-0.002019882,0.006374359,0,
00:01.1,0.001550674,-0.00201416,0.006380081,0,
00:01.1,0.001556396,-0.00201416,0.006374359,0,
00:01.1,0.001544952,-0.002008438,0.006362915,0,
00:01.1,0.00153923,-0.002025604,0.006385803,0,
00:01.1,0.001533508,-0.00204277,0.006380081,0,
00:01.1,0.00153923,-0.002037048,0.006368637,0,
00:01.1,0.001544952,-0.002037048,0.006380081,0,
00:01.1,0.001533508,-0.002054214,0.006391525,0,
00:01.1,0.001533508,-0.002054214,0.006408691,0,
00:01.1,0.001533508,-0.002054214,0.006402969,0,
00:01.1,0.001527786,-0.002048492,0.006380081,0,
00:01.1,0.001533508,-0.002037048,0.006374359,0,
00:01.1,0.001533508,-0.00204277,0.006391525,0,
00:01.1,0.001544952,-0.00204277,0.006391525,0,
00:01.2,0.001550674,-0.00204277,0.006380081,0,
00:01.2,0.001544952,-0.002031326,0.006397247,0,
00:01.2,0.001522064,-0.002037048,0.006374359,0,
00:01.2,0.001533508,-0.002031326,0.006391525,0,
00:01.2,0.00153923,-0.002037048,0.006397247,0,
00:01.2,0.001527786,-0.002031326,0.006380081,0,
00:01.2,0.001527786,-0.002031326,0.006380081,0,
00:01.2,0.001544952,-0.002019882,0.006380081,0,
00:01.2,0.00153923,-0.002031326,0.006368637,0,
00:01.2,0.001522064,-0.002071381,0.006391525,0,
00:01.2,0.001516342,-0.002059937,0.006408691,0,
00:01.2,0.001533508,-0.002025604,0.006385803,0,
00:01.2,0.00153923,-0.00201416,0.006385803,0,
00:01.2,0.001522064,-0.002031326,0.006391525,0,
00:01.2,0.001527786,-0.00204277,0.006397247,0,
00:01.2,0.001527786,-0.002054214,0.006385803,0,
00:01.2,0.001516342,-0.002077103,0.006385803,0,
00:01.2,0.001516342,-0.002054214,0.006402969,0,
00:01.2,0.001522064,-0.002048492,0.006414413,0,
00:01.2,0.001522064,-0.002048492,0.006408691,0,
00:01.2,0.001527786,-0.00204277,0.006391525,0,
00:01.2,0.001527786,-0.002048492,0.006385803,0,
00:01.2,0.001527786,-0.002048492,0.006385803,0,
00:01.2,0.00153923,-0.00204277,0.006397247,0,
00:01.2,0.001527786,-0.002048492,0.006402969,0,
00:01.3,0.001516342,-0.00204277,0.006385803,0,
00:01.3,0.001516342,-0.002031326,0.006391525,0,
00:01.3,0.001527786,-0.002037048,0.006391525,0,
00:01.3,0.001527786,-0.00204277,0.006385803,0,
00:01.3,0.00151062,-0.002077103,0.006397247,0,
00:01.3,0.00151062,-0.002065659,0.006391525,0,
00:01.3,0.00151062,-0.002054214,0.006380081,0,
00:01.3,0.001516342,-0.00204277,0.006397247,0,
00:01.3,0.001522064,-0.002048492,0.006397247,0,
00:01.3,0.00151062,-0.002065659,0.006391525,0,
00:01.3,0.001504898,-0.002059937,0.006385803,0,
00:01.3,0.001493454,-0.002105713,0.006380081,0,
00:01.3,0.001499176,-0.002099991,0.006380081,0,
00:01.3,0.001504898,-0.002071381,0.006385803,0,
00:01.3,0.00151062,-0.002077103,0.006408691,0,
00:01.3,0.001499176,-0.002099991,0.006391525,0,
00:01.3,0.001499176,-0.002094269,0.006385803,0,
00:01.3,0.001516342,-0.002065659,0.006397247,0,
00:01.3,0.00151062,-0.002065659,0.006408691,0,
00:01.3,0.001504898,-0.002071381,0.006402969,0,
00:01.3,0.001516342,-0.002059937,0.006391525,0,
00:01.3,0.001522064,-0.002054214,0.006391525,0,
00:01.3,0.001516342,-0.002059937,0.006397247,0,
00:01.3,0.001504898,-0.002077103,0.006397247,0,
00:01.3,0.001499176,-0.002088547,0.006391525,0,
00:01.4,0.001504898,-0.002088547,0.006391525,0,
00:01.4,0.00151062,-0.002082825,0.006380081,0,
00:01.4,0.001516342,-0.002059937,0.006397247,0,
00:01.4,0.001493454,-0.002105713,0.006402969,0,
00:01.4,0.001487732,-0.002111435,0.006408691,0,
00:01.4,0.001493454,-0.002105713,0.006397247,0,
00:01.4,0.001499176,-0.002111435,0.006391525,0,
00:01.4,0.001499176,-0.002105713,0.006397247,0,
00:01.4,0.001499176,-0.002088547,0.006408691,0,
00:01.4,0.001499176,-0.002082825,0.006402969,0,
00:01.4,0.001493454,-0.002094269,0.006391525,0,
00:01.4,0.001493454,-0.002117157,0.006402969,0,
00:01.4,0.001499176,-0.002134323,0.006397247,0,
00:01.4,0.00151062,-0.002128601,0.006402969,0,
00:01.4,0.001504898,-0.002099991,0.006402969,0,
00:01.4,0.001493454,-0.002088547,0.006408691,0,
00:01.4,0.001493454,-0.002088547,0.006414413,0,
00:01.4,0.001499176,-0.002099991,0.006408691,0,
00:01.4,0.001493454,-0.002117157,0.006408691,0,
00:01.4,0.001487732,-0.002111435,0.006414413,0,
00:01.4,0.001476288,-0.002122879,0.006402969,0,
00:01.4,0.001493454,-0.002117157,0.006414413,0,
00:01.4,0.001487732,-0.002099991,0.006402969,0,
00:01.4,0.001493454,-0.002094269,0.006408691,0,
00:01.4,0.001487732,-0.002111435,0.006420135,0,
00:01.5,0.001487732,-0.002122879,0.006414413,0,
00:01.5,0.001487732,-0.002122879,0.006397247,0,
00:01.5,0.001476288,-0.002128601,0.006408691,0,
00:01.5,0.001464844,-0.002140045,0.006443024,0,
00:01.5,0.001487732,-0.002117157,0.006420135,0,
00:01.5,0.00148201,-0.002122879,0.006408691,0,
00:01.5,0.001476288,-0.002128601,0.006425858,0,
00:01.5,0.00148201,-0.002140045,0.006437302,0,
00:01.5,0.001487732,-0.002145767,0.006448746,0,
00:01.5,0.001470566,-0.002140045,0.006448746,0,
00:01.5,0.001470566,-0.002128601,0.00643158,0,
00:01.5,0.001470566,-0.002117157,0.006420135,0,
00:01.5,0.001487732,-0.002094269,0.006414413,0,
00:01.5,0.001476288,-0.002117157,0.006414413,0,
00:01.5,0.001459122,-0.002140045,0.006448746,0,
00:01.5,0.001476288,-0.002140045,0.006448746,0,
00:01.5,0.001470566,-0.002145767,0.00643158,0,
00:01.5,0.00148201,-0.002128601,0.006448746,0,
00:01.5,0.001476288,-0.002122879,0.006448746,0,
00:01.5,0.001476288,-0.002128601,0.006454468,0,
00:01.5,0.001464844,-0.002145767,0.00643158,0,
00:01.5,0.001464844,-0.002140045,0.006414413,0,
00:01.5,0.001459122,-0.002134323,0.00643158,0,
00:01.5,0.001464844,-0.002151489,0.00646019,0,
00:01.5,0.00148201,-0.002128601,0.006448746,0,
00:01.6,0.001470566,-0.002122879,0.006443024,0,
00:01.6,0.00148201,-0.002117157,0.006437302,0,
00:01.6,0.001441956,-0.002180099,0.00643158,0,
00:01.6,0.001447678,-0.002174377,0.00646019,0,
00:01.6,0.001459122,-0.002162933,0.006465912,0,
00:01.6,0.001459122,-0.002157211,0.006483078,0,
00:01.6,0.0014534,-0.002168655,0.006454468,0,
00:01.6,0.0014534,-0.002168655,0.006465912,0,
00:01.6,0.0014534,-0.002162933,0.006477356,0,
00:01.6,0.001459122,-0.002151489,0.006471634,0,
00:01.6,0.0014534,-0.002157211,0.006483078,0,
00:01.6,0.0014534,-0.002151489,0.006471634,0,
00:01.6,0.001447678,-0.002162933,0.006477356,0,
00:01.6,0.001447678,-0.002157211,0.006483078,0,
00:01.6,0.001447678,-0.002168655,0.006471634,0,
00:01.6,0.001459122,-0.002162933,0.006471634,0,
00:01.6,0.001470566,-0.002145767,0.006471634,0,
00:01.6,0.001459122,-0.002134323,0.006471634,0,
00:01.6,0.001447678,-0.002151489,0.006471634,0,
00:01.6,0.001441956,-0.002180099,0.006494522,0,
00:01.6,0.001464844,-0.002168655,0.006500244,0,
00:01.6,0.0014534,-0.002174377,0.006494522,0,
00:01.6,0.001459122,-0.002168655,0.006477356,0,
00:01.6,0.001441956,-0.002185822,0.006505966,0,
00:01.6,0.001459122,-0.002168655,0.006523132,0,
00:01.7,0.0014534,-0.002151489,0.006500244,0,
00:01.7,0.0014534,-0.002157211,0.006500244,0,
00:01.7,0.0014534,-0.002168655,0.00651741,0,
00:01.7,0.001441956,-0.002174377,0.006523132,0,
00:01.7,0.001436234,-0.002174377,0.006534576,0,
00:01.7,0.001441956,-0.002174377,0.006540298,0,
00:01.7,0.001436234,-0.002174377,0.006523132,0,
00:01.7,0.001447678,-0.002168655,0.006528854,0,
00:01.7,0.001436234,-0.002180099,0.006540298,0,
00:01.7,0.001436234,-0.002180099,0.006534576,0,
00:01.7,0.001436234,-0.002185822,0.006528854,0,
00:01.7,0.001430511,-0.002197266,0.006528854,0,
00:01.7,0.001430511,-0.002202988,0.006540298,0,
00:01.7,0.001436234,-0.002174377,0.006546021,0,
00:01.7,0.001441956,-0.002174377,0.006551743,0,
00:01.7,0.001447678,-0.002168655,0.006557465,0,
00:01.7,0.0014534,-0.002145767,0.006551743,0,
00:01.7,0.001441956,-0.002128601,0.006551743,0,
00:01.7,0.001424789,-0.002168655,0.006540298,0,
00:01.7,0.001436234,-0.002191544,0.006568909,0,
00:01.7,0.001436234,-0.002180099,0.006580353,0,
00:01.7,0.001436234,-0.002174377,0.006563187,0,
00:01.7,0.001430511,-0.002185822,0.006557465,0,
00:01.7,0.001430511,-0.002197266,0.006580353,0,
00:01.7,0.001413345,-0.002202988,0.006591797,0,
00:01.8,0.001424789,-0.002185822,0.006591797,0,
00:01.8,0.001441956,-0.002180099,0.006597519,0,
00:01.8,0.001436234,-0.002174377,0.006580353,0,
00:01.8,0.001413345,-0.002185822,0.006580353,0,
00:01.8,0.001401901,-0.002191544,0.006603241,0,
00:01.8,0.001407623,-0.002180099,0.006614685,0,
00:01.8,0.001419067,-0.002168655,0.006608963,0,
00:01.8,0.001413345,-0.002174377,0.006608963,0,
00:01.8,0.001419067,-0.002174377,0.006626129,0,
00:01.8,0.001413345,-0.002185822,0.006626129,0,
00:01.8,0.001407623,-0.002197266,0.006620407,0,
00:01.8,0.001419067,-0.002180099,0.006608963,0,
00:01.8,0.001419067,-0.002174377,0.006603241,0,
00:01.8,0.001407623,-0.002202988,0.006637573,0,
00:01.8,0.001413345,-0.002191544,0.006643295,0,
00:01.8,0.001413345,-0.002185822,0.006637573,0,
00:01.8,0.001413345,-0.002180099,0.006631851,0,
00:01.8,0.001413345,-0.002162933,0.006649017,0,
00:01.8,0.001413345,-0.002174377,0.006654739,0,
00:01.8,0.001430511,-0.002180099,0.006671906,0,
00:01.8,0.001413345,-0.002180099,0.006660461,0,
00:01.8,0.001413345,-0.002180099,0.006654739,0,
00:01.8,0.001419067,-0.002185822,0.006649017,0,
00:01.8,0.001401901,-0.002202988,0.006643295,0,
00:01.8,0.001401901,-0.002202988,0.006671906,0,
00:01.9,0.001384735,-0.002202988,0.00668335,0,
00:01.9,0.001396179,-0.002197266,0.006677628,0,
00:01.9,0.001407623,-0.002185822,0.006689072,0,
00:01.9,0.001401901,-0.002197266,0.006694794,0,
00:01.9,0.001390457,-0.002191544,0.006694794,0,
00:01.9,0.001396179,-0.002174377,0.006689072,0,
00:01.9,0.001413345,-0.002162933,0.006694794,0,
00:01.9,0.001413345,-0.002168655,0.006689072,0,
00:01.9,0.001396179,-0.002191544,0.006694794,0,
00:01.9,0.001401901,-0.002185822,0.006723404,0,
00:01.9,0.001407623,-0.002185822,0.006706238,0,
00:01.9,0.001390457,-0.002214432,0.00671196,0,
00:01.9,0.001384735,-0.002214432,0.006723404,0,
00:01.9,0.001390457,-0.002197266,0.006729126,0,
00:01.9,0.001390457,-0.002191544,0.00674057,0,
00:01.9,0.001407623,-0.002168655,0.006734848,0,
00:01.9,0.001401901,-0.002168655,0.006729126,0,
00:01.9,0.001407623,-0.002185822,0.006729126,0,
00:01.9,0.001419067,-0.002174377,0.00674057,0,
00:01.9,0.001407623,-0.002180099,0.006763458,0,
00:01.9,0.001390457,-0.002185822,0.006746292,0,
00:01.9,0.001390457,-0.002191544,0.006734848,0,
00:01.9,0.001396179,-0.002214432,0.006746292,0,
00:01.9,0.001390457,-0.002214432,0.00676918,0,
00:01.9,0.001396179,-0.002202988,0.006786346,0,
00:02.0,0.001390457,-0.002191544,0.006774902,0,
00:02.0,0.001396179,-0.002180099,0.006763458,0,
00:02.0,0.001401901,-0.002168655,0.006752014,0,
00:02.0,0.001407623,-0.002162933,0.006774902,0,
00:02.0,0.001407623,-0.002168655,0.006803513,0,
00:02.0,0.001407623,-0.002168655,0.006797791,0,
00:02.0,0.001396179,-0.002185822,0.006780624,0,
00:02.0,0.001379013,-0.002202988,0.006792068,0,
00:02.0,0.001379013,-0.002202988,0.006797791,0,
00:02.0,0.001384735,-0.002191544,0.006797791,0,
00:02.0,0.001390457,-0.002180099,0.006780624,0,
00:02.0,0.001401901,-0.002162933,0.006803513,0,
00:00:02,0.001396179,-0.002174377,0.006826401,0,
00:02.0,0.001390457,-0.002191544,0.006814957,0,
00:02.0,0.001390457,-0.002197266,0.006814957,0,
00:02.0,0.001379013,-0.00220871,0.006820679,0,
00:02.0,0.001379013,-0.002197266,0.006826401,0,
00:02.0,0.001379013,-0.002185822,0.006814957,0,
00:02.0,0.001390457,-0.002174377,0.006826401,0,
00:02.0,0.001401901,-0.002174377,0.006809235,0,
00:02.0,0.001401901,-0.002185822,0.006803513,0,
00:02.0,0.001373291,-0.002197266,0.006814957,0,
00:02.0,0.001373291,-0.00220871,0.006843567,0,
00:02.0,0.001367569,-0.00220871,0.006860733,0,
00:02.0,0.001367569,-0.00220871,0.006843567,0,
00:02.1,0.001379013,-0.002214432,0.006843567,0,
00:02.1,0.001379013,-0.002197266,0.006843567,0,
00:02.1,0.001379013,-0.002174377,0.006855011,0,
00:02.1,0.001379013,-0.002168655,0.006860733,0,
00:02.1,0.001379013,-0.002168655,0.006860733,0,
00:02.1,0.001367569,-0.002197266,0.006855011,0,
00:02.1,0.001379013,-0.002191544,0.006860733,0,
00:02.1,0.001379013,-0.002185822,0.006860733,0,
00:02.1,0.001379013,-0.002191544,0.006877899,0,
00:02.1,0.001384735,-0.002185822,0.006889343,0,
00:02.1,0.001373291,-0.002197266,0.006883621,0,
00:02.1,0.001367569,-0.002202988,0.006883621,0,
00:02.1,0.001367569,-0.002197266,0.006883621,0,
00:02.1,0.001361847,-0.002180099,0.006872177,0,
00:02.1,0.001367569,-0.002180099,0.006883621,0,
00:02.1,0.001361847,-0.002185822,0.006877899,0,
00:02.1,0.001361847,-0.002191544,0.006877899,0,
00:02.1,0.001373291,-0.002185822,0.006889343,0,
00:02.1,0.001373291,-0.002197266,0.006900787,0,
00:02.1,0.001373291,-0.002185822,0.006895065,0,
00:02.1,0.001373291,-0.002174377,0.006889343,0,
00:02.1,0.001384735,-0.002162933,0.006883621,0,
00:02.1,0.001379013,-0.002168655,0.006895065,0,
00:02.1,0.001367569,-0.002180099,0.006906509,0,
00:02.1,0.001367569,-0.002185822,0.006906509,0,
00:02.2,0.001367569,-0.002185822,0.006912231,0,
00:02.2,0.001367569,-0.002191544,0.006900787,0,
00:02.2,0.001361847,-0.002185822,0.006912231,0,
00:02.2,0.001361847,-0.002174377,0.006917953,0,
00:02.2,0.001373291,-0.002168655,0.006923676,0,
00:02.2,0.001390457,-0.002145767,0.006906509,0,
00:02.2,0.001350403,-0.002185822,0.006906509,0,
00:02.2,0.001344681,-0.002214432,0.006900787,0,
00:02.2,0.001361847,-0.002202988,0.006940842,0,
00:02.2,0.001356125,-0.00220871,0.00693512,0,
00:02.2,0.001356125,-0.002197266,0.006923676,0,
00:02.2,0.001367569,-0.002185822,0.006900787,0,
00:02.2,0.001361847,-0.002180099,0.006900787,0,
00:02.2,0.001361847,-0.002185822,0.006917953,0,
00:02.2,0.001367569,-0.002191544,0.006923676,0,
00:02.2,0.001361847,-0.002185822,0.00693512,0,
00:02.2,0.001367569,-0.002180099,0.006917953,0,
00:02.2,0.001361847,-0.002180099,0.006912231,0,
00:02.2,0.001367569,-0.002185822,0.00693512,0,
00:02.2,0.001367569,-0.002197266,0.00693512,0,
00:02.2,0.001361847,-0.002191544,0.006929398,0,
00:02.2,0.001361847,-0.002180099,0.006906509,0,
00:02.2,0.001373291,-0.002174377,0.006912231,0,
00:02.2,0.001361847,-0.002180099,0.006952286,0,
00:02.2,0.001373291,-0.002180099,0.006952286,0,
00:02.3,0.001384735,-0.002174377,0.006940842,0,
00:02.3,0.001379013,-0.002162933,0.006917953,0,
00:02.3,0.001356125,-0.002162933,0.006906509,0,
00:02.3,0.001338959,-0.002197266,0.006929398,0,
00:02.3,0.001350403,-0.002191544,0.006940842,0,
00:02.3,0.001350403,-0.002185822,0.006923676,0,
00:02.3,0.001350403,-0.002185822,0.006917953,0,
00:02.3,0.001350403,-0.002180099,0.006923676,0,
00:02.3,0.001356125,-0.002180099,0.006929398,0,
00:02.3,0.001350403,-0.002202988,0.00693512,0,
00:02.3,0.001344681,-0.00220871,0.00693512,0,
00:02.3,0.001338959,-0.002214432,0.006900787,0,
00:02.3,0.001333237,-0.002202988,0.00693512,0,
00:02.3,0.001344681,-0.002191544,0.006923676,0,
00:02.3,0.001338959,-0.002168655,0.006923676,0,
00:02.3,0.001344681,-0.002168655,0.006923676,0,
00:02.3,0.001344681,-0.002168655,0.006912231,0,
00:02.3,0.001356125,-0.002151489,0.006900787,0,
00:02.3,0.001350403,-0.002157211,0.006912231,0,
00:02.3,0.001344681,-0.002185822,0.006917953,0,
00:02.3,0.001327515,-0.002191544,0.006923676,0,
00:02.3,0.001327515,-0.002191544,0.006912231,0,
00:02.3,0.001333237,-0.002157211,0.006912231,0,
00:02.3,0.001338959,-0.002151489,0.006929398,0,
00:02.3,0.001350403,-0.002157211,0.006923676,0,
00:02.4,0.001333237,-0.002174377,0.006889343,0,
00:02.4,0.001316071,-0.002191544,0.006900787,0,
00:02.4,0.001327515,-0.002185822,0.006912231,0,
00:02.4,0.001310349,-0.00220871,0.006906509,0,
00:02.4,0.001321793,-0.002185822,0.006900787,0,
00:02.4,0.001321793,-0.002185822,0.006900787,0,
00:02.4,0.001327515,-0.002191544,0.006906509,0,
00:02.4,0.001321793,-0.002180099,0.006923676,0,
00:02.4,0.001316071,-0.002168655,0.006929398,0,
00:02.4,0.001321793,-0.002180099,0.006917953,0,
00:02.4,0.001310349,-0.002220154,0.006900787,0,
00:02.4,0.001304626,-0.00220871,0.006900787,0,
00:02.4,0.001316071,-0.002191544,0.006895065,0,
00:02.4,0.001327515,-0.002168655,0.006895065,0,
00:02.4,0.001333237,-0.002162933,0.006900787,0,
00:02.4,0.001316071,-0.002162933,0.006900787,0,
00:02.4,0.001316071,-0.002168655,0.006872177,0,
00:02.4,0.001333237,-0.002162933,0.006900787,0,
00:02.4,0.001321793,-0.002168655,0.006889343,0,
00:02.4,0.001304626,-0.002197266,0.006872177,0,
00:02.4,0.001304626,-0.002197266,0.006883621,0,
00:02.4,0.001304626,-0.00220871,0.006895065,0,
00:02.4,0.001298904,-0.00220871,0.006895065,0,
00:02.4,0.001298904,-0.002214432,0.006912231,0,
00:02.4,0.001293182,-0.002202988,0.006917953,0,
00:02.5,0.001298904,-0.002185822,0.006906509,0,
00:02.5,0.001298904,-0.002174377,0.006889343,0,
00:02.5,0.001298904,-0.002191544,0.006889343,0,
00:02.5,0.001293182,-0.002197266,0.006900787,0,
00:02.5,0.001293182,-0.002197266,0.006912231,0,
00:02.5,0.001293182,-0.002197266,0.006906509,0,
00:02.5,0.001293182,-0.002202988,0.006889343,0,
00:02.5,0.001298904,-0.002197266,0.006900787,0,
00:02.5,0.001304626,-0.00220871,0.006900787,0,
00:02.5,0.001304626,-0.00220871,0.006900787,0,
00:02.5,0.00128746,-0.002202988,0.006889343,0,
00:02.5,0.001293182,-0.002191544,0.006900787,0,
00:02.5,0.00128746,-0.002180099,0.006895065,0,
00:02.5,0.00128746,-0.002191544,0.006906509,0,
00:02.5,0.001276016,-0.002214432,0.006906509,0,
00:02.5,0.001276016,-0.002202988,0.006900787,0,
00:02.5,0.001264572,-0.002225876,0.006895065,0,
00:02.5,0.001276016,-0.002220154,0.006900787,0,
00:02.5,0.001281738,-0.00220871,0.006895065,0,
00:02.5,0.001270294,-0.00220871,0.006906509,0,
00:02.5,0.001281738,-0.002197266,0.006906509,0,
00:02.5,0.001264572,-0.002214432,0.006912231,0,
00:02.5,0.001253128,-0.002231598,0.006895065,0,
00:02.5,0.00125885,-0.002225876,0.006900787,0,
00:02.5,0.00125885,-0.002220154,0.006906509,0,
00:02.6,0.001253128,-0.002214432,0.006906509,0,
00:02.6,0.001247406,-0.002214432,0.006895065,0,
00:02.6,0.001264572,-0.002197266,0.006883621,0,
00:02.6,0.00125885,-0.002202988,0.006895065,0,
00:02.6,0.001253128,-0.002220154,0.006906509,0,
00:02.6,0.001241684,-0.002225876,0.006895065,0,
00:02.6,0.00123024,-0.002220154,0.006889343,0,
00:02.6,0.001235962,-0.00220871,0.006883621,0,
00:02.6,0.001264572,-0.002185822,0.006900787,0,
00:02.6,0.001253128,-0.002191544,0.006889343,0,
00:02.6,0.00123024,-0.00220871,0.006877899,0,
00:02.6,0.001218796,-0.002225876,0.006883621,0,
00:02.6,0.00123024,-0.002202988,0.006883621,0,
00:02.6,0.001235962,-0.002191544,0.006872177,0,
00:02.6,0.001224518,-0.002220154,0.006877899,0,
00:02.6,0.00123024,-0.002220154,0.006889343,0,
00:02.6,0.00123024,-0.002214432,0.006872177,0,
00:02.6,0.001224518,-0.00220871,0.006855011,0,
00:02.6,0.001224518,-0.002214432,0.006877899,0,
00:02.6,0.00123024,-0.002220154,0.006877899,0,
00:02.6,0.001213074,-0.002231598,0.006866455,0,
00:02.6,0.001218796,-0.002225876,0.006872177,0,
00:02.6,0.001224518,-0.002197266,0.006877899,0,
00:02.6,0.001224518,-0.002202988,0.006872177,0,
00:02.6,0.001218796,-0.002220154,0.006860733,0,
00:02.7,0.001218796,-0.002214432,0.006872177,0,
00:02.7,0.00120163,-0.002243042,0.006866455,0,
00:02.7,0.001207352,-0.002225876,0.006866455,0,
00:02.7,0.001207352,-0.002214432,0.006872177,0,
00:02.7,0.001207352,-0.002220154,0.006872177,0,
00:02.7,0.001218796,-0.002220154,0.006849289,0,
00:02.7,0.001235962,-0.002185822,0.006849289,0,
00:02.7,0.00123024,-0.002180099,0.006849289,0,
00:02.7,0.001195908,-0.00223732,0.006849289,0,
00:02.7,0.001207352,-0.002225876,0.006855011,0,
00:02.7,0.001195908,-0.002225876,0.006855011,0,
00:02.7,0.00120163,-0.002214432,0.006860733,0,
00:02.7,0.001218796,-0.00220871,0.006860733,0,
00:02.7,0.001213074,-0.00220871,0.006866455,0,
00:02.7,0.00120163,-0.002220154,0.006860733,0,
00:02.7,0.00120163,-0.002225876,0.006843567,0,
00:02.7,0.001218796,-0.002202988,0.006832123,0,
00:02.7,0.001207352,-0.002202988,0.006855011,0,
00:02.7,0.001207352,-0.002214432,0.006860733,0,
00:02.7,0.001218796,-0.002220154,0.006837845,0,
00:02.7,0.001224518,-0.002214432,0.006837845,0,
00:02.7,0.001207352,-0.00220871,0.006820679,0,
00:02.7,0.001213074,-0.002202988,0.006866455,0,
00:02.7,0.00120163,-0.002220154,0.006866455,0,
00:02.7,0.001195908,-0.002254486,0.006866455,0,
00:02.8,0.00120163,-0.002231598,0.006866455,0,
00:02.8,0.001207352,-0.002225876,0.006843567,0,
00:02.8,0.001207352,-0.002231598,0.006832123,0,
00:02.8,0.001184464,-0.002271652,0.006855011,0,
00:02.8,0.001190186,-0.002277374,0.006866455,0,
00:02.8,0.00120163,-0.002243042,0.006860733,0,
00:02.8,0.001213074,-0.002220154,0.006860733,0,
00:02.8,0.001213074,-0.002197266,0.006872177,0,
00:02.8,0.00120163,-0.002214432,0.006872177,0,
00:02.8,0.001213074,-0.002220154,0.006883621,0,
00:02.8,0.00120163,-0.002231598,0.006872177,0,
00:02.8,0.00120163,-0.002220154,0.006866455,0,
00:02.8,0.00120163,-0.002220154,0.006866455,0,
00:02.8,0.001195908,-0.002248764,0.006877899,0,
00:02.8,0.001195908,-0.00223732,0.006883621,0,
00:02.8,0.001195908,-0.002231598,0.006866455,0,
00:02.8,0.001195908,-0.002254486,0.006860733,0,
00:02.8,0.001167297,-0.002288818,0.006877899,0,
00:02.8,0.001195908,-0.002254486,0.006889343,0,
00:02.8,0.001190186,-0.002243042,0.006877899,0,
00:02.8,0.001190186,-0.002225876,0.006883621,0,
00:02.8,0.00120163,-0.002220154,0.006877899,0,
00:02.8,0.001190186,-0.002254486,0.006895065,0,
00:02.8,0.001184464,-0.002260208,0.006906509,0,
00:02.8,0.001195908,-0.002248764,0.006900787,0,
00:02.9,0.001190186,-0.002243042,0.006883621,0,
00:02.9,0.001167297,-0.002288818,0.006877899,0,
00:02.9,0.001178741,-0.002283096,0.006895065,0,
00:02.9,0.001184464,-0.002260208,0.006923676,0,
00:02.9,0.001195908,-0.002248764,0.006917953,0,
00:02.9,0.001190186,-0.002243042,0.006895065,0,
00:02.9,0.001184464,-0.002248764,0.006912231,0,
00:02.9,0.00120163,-0.00223732,0.006912231,0,
00:02.9,0.00120163,-0.002220154,0.006895065,0,
00:02.9,0.001195908,-0.002231598,0.006912231,0,
00:02.9,0.001184464,-0.002260208,0.00693512,0,
00:02.9,0.001173019,-0.002260208,0.006912231,0,
00:02.9,0.001190186,-0.002254486,0.006912231,0,
00:02.9,0.001178741,-0.002248764,0.00693512,0,
00:02.9,0.001173019,-0.00223732,0.00693512,0,
00:02.9,0.001184464,-0.002243042,0.006923676,0,
00:02.9,0.001190186,-0.002243042,0.006929398,0,
00:02.9,0.001195908,-0.002243042,0.006929398,0,
00:02.9,0.001195908,-0.002231598,0.006917953,0,
00:02.9,0.001161575,-0.002271652,0.006940842,0,
00:02.9,0.001150131,-0.002277374,0.006940842,0,
00:02.9,0.001167297,-0.002260208,0.00693512,0,
00:02.9,0.001167297,-0.00226593,0.00693512,0,
00:02.9,0.001150131,-0.002271652,0.006946564,0,
00:02.9,0.001150131,-0.002260208,0.006946564,0,
00:03.0,0.001155853,-0.002260208,0.006940842,0,
00:03.0,0.001161575,-0.002243042,0.006952286,0,
00:03.0,0.001173019,-0.002248764,0.00693512,0,
00:03.0,0.001167297,-0.00226593,0.006923676,0,
00:03.0,0.001173019,-0.002271652,0.00696373,0,
00:03.0,0.001167297,-0.002283096,0.006986618,0,
00:03.0,0.001155853,-0.002283096,0.006952286,0,
00:03.0,0.001161575,-0.002277374,0.006969452,0,
00:03.0,0.001155853,-0.002288818,0.006986618,0,
00:03.0,0.001150131,-0.002305984,0.00696373,0,
00:03.0,0.001155853,-0.00229454,0.006952286,0,
00:03.0,0.001161575,-0.002283096,0.006952286,0,
00:00:03,0.001161575,-0.002288818,0.00696373,0,
00:03.0,0.001150131,-0.002300262,0.006969452,0,
00:03.0,0.001150131,-0.00229454,0.00696373,0,
00:03.0,0.001155853,-0.002283096,0.006969452,0,
00:03.0,0.001155853,-0.002288818,0.00696373,0,
00:03.0,0.001150131,-0.002283096,0.006958008,0,
00:03.0,0.001161575,-0.00226593,0.006969452,0,
00:03.0,0.001167297,-0.002277374,0.006975174,0,
00:03.0,0.001144409,-0.002311707,0.00696373,0,
00:03.0,0.001138687,-0.002305984,0.00699234,0,
00:03.0,0.001144409,-0.00229454,0.00699234,0,
00:03.0,0.001144409,-0.00229454,0.006986618,0,
00:03.0,0.001144409,-0.00229454,0.006986618,0,
00:03.1,0.001150131,-0.002305984,0.006986618,0,
00:03.1,0.001132965,-0.002305984,0.006986618,0,
00:03.1,0.001127243,-0.002300262,0.007003784,0,
00:03.1,0.001138687,-0.00229454,0.007015228,0,
00:03.1,0.001144409,-0.002277374,0.007009506,0,
00:03.1,0.001138687,-0.002277374,0.006986618,0,
00:03.1,0.001132965,-0.00229454,0.006975174,0,
00:03.1,0.001132965,-0.00229454,0.006986618,0,
00:03.1,0.001138687,-0.002277374,0.006998062,0,
00:03.1,0.001144409,-0.002277374,0.00702095,0,
00:03.1,0.001138687,-0.002283096,0.007015228,0,
00:03.1,0.001127243,-0.002300262,0.006998062,0,
00:03.1,0.001127243,-0.00229454,0.007015228,0,
00:03.1,0.001138687,-0.002283096,0.00702095,0,
00:03.1,0.001138687,-0.002277374,0.007015228,0,
00:03.1,0.001127243,-0.002305984,0.007009506,0,
00:03.1,0.001121521,-0.002311707,0.007015228,0,
00:03.1,0.001138687,-0.00229454,0.007038116,0,
00:03.1,0.001138687,-0.002271652,0.007038116,0,
00:03.1,0.001150131,-0.00226593,0.007026672,0,
00:03.1,0.001150131,-0.002300262,0.007026672,0,
00:03.1,0.001138687,-0.002305984,0.007038116,0,
00:03.1,0.001132965,-0.002300262,0.007043839,0,
00:03.1,0.001121521,-0.002305984,0.007049561,0,
00:03.1,0.001121521,-0.002311707,0.007055283,0,
00:03.2,0.001121521,-0.002328873,0.007043839,0,
00:03.2,0.001132965,-0.002323151,0.007038116,0,
00:03.2,0.001138687,-0.002300262,0.007043839,0,
00:03.2,0.001144409,-0.002277374,0.007055283,0,
00:03.2,0.001144409,-0.002283096,0.007061005,0,
00:03.2,0.001138687,-0.002277374,0.007061005,0,
00:03.2,0.001138687,-0.002277374,0.007038116,0,
00:03.2,0.001132965,-0.002277374,0.007049561,0,
00:03.2,0.001127243,-0.002300262,0.007038116,0,
00:03.2,0.001138687,-0.002300262,0.007055283,0,
00:03.2,0.001138687,-0.00229454,0.007066727,0,
00:03.2,0.001150131,-0.002277374,0.007066727,0,
00:03.2,0.001138687,-0.002277374,0.007055283,0,
00:03.2,0.001155853,-0.00226593,0.007061005,0,
00:03.2,0.001155853,-0.002283096,0.007083893,0,
00:03.2,0.001121521,-0.002300262,0.007083893,0,
00:03.2,0.001127243,-0.002288818,0.007072449,0,
00:03.2,0.001127243,-0.002288818,0.007083893,0,
00:03.2,0.001127243,-0.00229454,0.007089615,0,
00:03.2,0.001127243,-0.00229454,0.007089615,0,
00:03.2,0.001121521,-0.002288818,0.007078171,0,
00:03.2,0.001127243,-0.002288818,0.007072449,0,
00:03.2,0.001132965,-0.00229454,0.007089615,0,
00:03.2,0.001132965,-0.002277374,0.007101059,0,
00:03.2,0.001132965,-0.002283096,0.007106781,0,
00:03.3,0.001127243,-0.002300262,0.007095337,0,
00:03.3,0.001132965,-0.002300262,0.007095337,0,
00:03.3,0.001138687,-0.002271652,0.007095337,0,
00:03.3,0.001127243,-0.00229454,0.007095337,0,
00:03.3,0.001121521,-0.002311707,0.007078171,0,
00:03.3,0.001121521,-0.002311707,0.007101059,0,
00:03.3,0.001132965,-0.002305984,0.007101059,0,
00:03.3,0.001144409,-0.00226593,0.007101059,0,
00:03.3,0.001138687,-0.002271652,0.007089615,0,
00:03.3,0.001144409,-0.00226593,0.007089615,0,
00:03.3,0.001155853,-0.002260208,0.007078171,0,
00:03.3,0.001150131,-0.002288818,0.007078171,0,
00:03.3,0.001132965,-0.002283096,0.007095337,0,
00:03.3,0.001132965,-0.002300262,0.007112503,0,
00:03.3,0.001121521,-0.002323151,0.007123947,0,
00:03.3,0.001138687,-0.002311707,0.007106781,0,
00:03.3,0.001138687,-0.002300262,0.007095337,0,
00:03.3,0.001132965,-0.00229454,0.007083893,0,
00:03.3,0.001127243,-0.002288818,0.007095337,0,
00:03.3,0.001155853,-0.002271652,0.007106781,0,
00:03.3,0.001138687,-0.002283096,0.007095337,0,
00:03.3,0.001127243,-0.002288818,0.007106781,0,
00:03.3,0.001121521,-0.002300262,0.007106781,0,
00:03.3,0.001127243,-0.002300262,0.007106781,0,
00:03.3,0.001132965,-0.002288818,0.007095337,0,
00:03.4,0.001132965,-0.002288818,0.007089615,0,
00:03.4,0.001121521,-0.002288818,0.007106781,0,
00:03.4,0.001127243,-0.00229454,0.007135391,0,
00:03.4,0.001127243,-0.002288818,0.007135391,0,
00:03.4,0.001121521,-0.002277374,0.007118225,0,
00:03.4,0.001115799,-0.002317429,0.007106781,0,
00:03.4,0.001127243,-0.002311707,0.007123947,0,
00:03.4,0.001121521,-0.002288818,0.007123947,0,
00:03.4,0.001132965,-0.00226593,0.007123947,0,
00:03.4,0.001127243,-0.00226593,0.007123947,0,
00:03.4,0.001121521,-0.002260208,0.007112503,0,
00:03.4,0.001132965,-0.00226593,0.007106781,0,
00:03.4,0.001115799,-0.002300262,0.007112503,0,
00:03.4,0.001115799,-0.002300262,0.007123947,0,
00:03.4,0.001121521,-0.00229454,0.007123947,0,
00:03.4,0.001121521,-0.002288818,0.007101059,0,
00:03.4,0.001121521,-0.002288818,0.007106781,0,
00:03.4,0.001121521,-0.002300262,0.007106781,0,
00:03.4,0.001115799,-0.00229454,0.007123947,0,
00:03.4,0.001110077,-0.002283096,0.007118225,0,
00:03.4,0.001127243,-0.002283096,0.007101059,0,
00:03.4,0.001132965,-0.002283096,0.007135391,0,
00:03.4,0.001127243,-0.002271652,0.007135391,0,
00:03.4,0.001121521,-0.002271652,0.007118225,0,
00:03.4,0.001121521,-0.00229454,0.007141113,0,
00:03.5,0.001121521,-0.002305984,0.007129669,0,
00:03.5,0.001115799,-0.00229454,0.007118225,0,
00:03.5,0.001121521,-0.002277374,0.007123947,0,
00:03.5,0.001127243,-0.00226593,0.007146835,0,
00:03.5,0.001121521,-0.002271652,0.007146835,0,
00:03.5,0.001110077,-0.002277374,0.007135391,0,
00:03.5,0.001115799,-0.002288818,0.007135391,0,
00:03.5,0.001087189,-0.002323151,0.007152557,0,
00:03.5,0.001110077,-0.002300262,0.007164001,0,
00:03.5,0.001115799,-0.002271652,0.007152557,0,
00:03.5,0.001115799,-0.00226593,0.007135391,0,
00:03.5,0.001110077,-0.002277374,0.007123947,0,
00:03.5,0.001110077,-0.002277374,0.007158279,0,
00:03.5,0.001110077,-0.002271652,0.007158279,0,
00:03.5,0.001110077,-0.002271652,0.007146835,0,
00:03.5,0.001110077,-0.002271652,0.007152557,0,
00:03.5,0.001110077,-0.002271652,0.007146835,0,
00:03.5,0.001115799,-0.002271652,0.007146835,0,
00:03.5,0.001098633,-0.00229454,0.007158279,0,
00:03.5,0.001104355,-0.002288818,0.007164001,0,
00:03.5,0.001115799,-0.00229454,0.007152557,0,
00:03.5,0.001104355,-0.002277374,0.007158279,0,
00:03.5,0.001092911,-0.002260208,0.007152557,0,
00:03.5,0.001104355,-0.002248764,0.007146835,0,
00:03.5,0.001104355,-0.002254486,0.007164001,0,
00:03.6,0.001110077,-0.002260208,0.007181168,0,
00:03.6,0.001115799,-0.002243042,0.007169724,0,
00:03.6,0.001081467,-0.002288818,0.007164001,0,
00:03.6,0.001081467,-0.002300262,0.007192612,0,
00:03.6,0.001087189,-0.00229454,0.007198334,0,
00:03.6,0.001087189,-0.002271652,0.007181168,0,
00:03.6,0.001098633,-0.002254486,0.007169724,0,
00:03.6,0.001098633,-0.002260208,0.007169724,0,
00:03.6,0.001092911,-0.002260208,0.007169724,0,
00:03.6,0.001092911,-0.002277374,0.007181168,0,
00:03.6,0.001081467,-0.00229454,0.007175446,0,
00:03.6,0.001087189,-0.002277374,0.007164001,0,
00:03.6,0.001087189,-0.002248764,0.007169724,0,
00:03.6,0.001087189,-0.002243042,0.007181168,0,
00:03.6,0.001081467,-0.00226593,0.00718689,0,
00:03.6,0.001087189,-0.002283096,0.007169724,0,
00:03.6,0.001092911,-0.002288818,0.007169724,0,
00:03.6,0.001075745,-0.00229454,0.007181168,0,
00:03.6,0.001075745,-0.002288818,0.00718689,0,
00:03.6,0.001087189,-0.002271652,0.007192612,0,
00:03.6,0.001081467,-0.002254486,0.00718689,0,
00:03.6,0.001087189,-0.002248764,0.007175446,0,
00:03.6,0.001087189,-0.002248764,0.007175446,0,
00:03.6,0.001092911,-0.002248764,0.007175446,0,
00:03.6,0.001098633,-0.00226593,0.00718689,0,
00:03.7,0.001075745,-0.002305984,0.00718689,0,
00:03.7,0.001081467,-0.002288818,0.007175446,0,
00:03.7,0.001075745,-0.00226593,0.00718689,0,
00:03.7,0.001081467,-0.002271652,0.007198334,0,
00:03.7,0.001098633,-0.002271652,0.007192612,0,
00:03.7,0.001081467,-0.002283096,0.007181168,0,
00:03.7,0.001087189,-0.002277374,0.00718689,0,
00:03.7,0.001081467,-0.002271652,0.007198334,0,
00:03.7,0.001081467,-0.002271652,0.007198334,0,
00:03.7,0.001081467,-0.002277374,0.00718689,0,
00:03.7,0.001075745,-0.002271652,0.007164001,0,
00:03.7,0.001081467,-0.002260208,0.007164001,0,
00:03.7,0.001075745,-0.00226593,0.007175446,0,
00:03.7,0.001058578,-0.00229454,0.007198334,0,
00:03.7,0.001075745,-0.002288818,0.0072155,0,
00:03.7,0.001081467,-0.002288818,0.007198334,0,
00:03.7,0.001070023,-0.002288818,0.007181168,0,
00:03.7,0.001075745,-0.002277374,0.007198334,0,
00:03.7,0.001098633,-0.002248764,0.007209778,0,
00:03.7,0.001092911,-0.002254486,0.007209778,0,
00:03.7,0.001081467,-0.002260208,0.007198334,0,
00:03.7,0.001081467,-0.00226593,0.007198334,0,
00:03.7,0.001064301,-0.002288818,0.007192612,0,
00:03.7,0.001058578,-0.00229454,0.00718689,0,
00:03.7,0.001058578,-0.002288818,0.007198334,0,
00:03.8,0.001070023,-0.002288818,0.007209778,0,
00:03.8,0.001081467,-0.00226593,0.007221222,0,
00:03.8,0.001081467,-0.00226593,0.007226944,0,
00:03.8,0.001092911,-0.00226593,0.0072155,0,
00:03.8,0.001070023,-0.002300262,0.007204056,0,
00:03.8,0.001075745,-0.002300262,0.007204056,0,
00:03.8,0.001081467,-0.002288818,0.007209778,0,
00:03.8,0.001064301,-0.002305984,0.007209778,0,
00:03.8,0.001070023,-0.002288818,0.007232666,0,
00:03.8,0.001075745,-0.002260208,0.00724411,0,
00:03.8,0.001064301,-0.002271652,0.007238388,0,
00:03.8,0.001070023,-0.00226593,0.007226944,0,
00:03.8,0.001064301,-0.002271652,0.007209778,0,
00:03.8,0.001070023,-0.002277374,0.007221222,0,
00:03.8,0.001070023,-0.00229454,0.007232666,0,
00:03.8,0.001070023,-0.002288818,0.007221222,0,
00:03.8,0.001070023,-0.002271652,0.007226944,0,
00:03.8,0.001075745,-0.00226593,0.007221222,0,
00:03.8,0.001064301,-0.00229454,0.007232666,0,
00:03.8,0.001064301,-0.002288818,0.00724411,0,
00:03.8,0.001064301,-0.002283096,0.007226944,0,
00:03.8,0.001058578,-0.002277374,0.007232666,0,
00:03.8,0.001058578,-0.002283096,0.007249832,0,
00:03.8,0.001064301,-0.00229454,0.007249832,0,
00:03.8,0.001070023,-0.002300262,0.007238388,0,
00:03.9,0.001075745,-0.002288818,0.007226944,0,
00:03.9,0.001064301,-0.00229454,0.007221222,0,
00:03.9,0.001052856,-0.002288818,0.0072155,0,
00:03.9,0.001064301,-0.002283096,0.007255554,0,
00:03.9,0.001070023,-0.002283096,0.007255554,0,
00:03.9,0.001070023,-0.002288818,0.00724411,0,
00:03.9,0.001058578,-0.00229454,0.007238388,0,
00:03.9,0.001064301,-0.00229454,0.007266998,0,
00:03.9,0.001075745,-0.002277374,0.00727272,0,
00:03.9,0.001064301,-0.002271652,0.007255554,0,
00:03.9,0.001058578,-0.002271652,0.007232666,0,
00:03.9,0.001070023,-0.002283096,0.007238388,0,
00:03.9,0.001058578,-0.002305984,0.00727272,0,
00:03.9,0.001052856,-0.002317429,0.007266998,0,
00:03.9,0.001047134,-0.00229454,0.007261276,0,
00:03.9,0.001070023,-0.002283096,0.007278442,0,
00:03.9,0.001052856,-0.00229454,0.00724411,0,
00:03.9,0.001047134,-0.00229454,0.007255554,0,
00:03.9,0.001052856,-0.002283096,0.00727272,0,
00:03.9,0.001058578,-0.002283096,0.00727272,0,
00:03.9,0.001064301,-0.002288818,0.007255554,0,
00:03.9,0.001064301,-0.002271652,0.007261276,0,
00:03.9,0.001052856,-0.002271652,0.007278442,0,
00:03.9,0.001052856,-0.002283096,0.007289886,0,
00:03.9,0.001052856,-0.002283096,0.007295609,0,
00:04.0,0.001058578,-0.002288818,0.007266998,0,
00:04.0,0.001052856,-0.002305984,0.007266998,0,
00:04.0,0.001052856,-0.002300262,0.007255554,0,
00:04.0,0.001047134,-0.002288818,0.007284164,0,
00:04.0,0.001052856,-0.002283096,0.007289886,0,
00:04.0,0.001052856,-0.002283096,0.007266998,0,
00:04.0,0.001047134,-0.00229454,0.007284164,0,
00:04.0,0.001047134,-0.002283096,0.007289886,0,
00:04.0,0.001052856,-0.002277374,0.007301331,0,
00:04.0,0.001058578,-0.002288818,0.007284164,0,
00:04.0,0.001041412,-0.002305984,0.007261276,0,
00:04.0,0.001047134,-0.00229454,0.007278442,0,
00:00:04,0.001064301,-0.002277374,0.007307053,0,
00:04.0,0.001052856,-0.002277374,0.007301331,0,
00:04.0,0.001052856,-0.002283096,0.007301331,0,
00:04.0,0.001041412,-0.00229454,0.007289886,0,
00:04.0,0.00103569,-0.002283096,0.007284164,0,
00:04.0,0.001024246,-0.002300262,0.007295609,0,
00:04.0,0.00103569,-0.002300262,0.007295609,0,
00:04.0,0.001058578,-0.002283096,0.007284164,0,
00:04.0,0.001047134,-0.00229454,0.007284164,0,
00:04.0,0.00103569,-0.002288818,0.007307053,0,
00:04.0,0.001029968,-0.002288818,0.007312775,0,
00:04.0,0.00103569,-0.002288818,0.007307053,0,
00:04.0,0.00103569,-0.002288818,0.007301331,0,
00:04.1,0.001041412,-0.002288818,0.007284164,0,
00:04.1,0.001047134,-0.00229454,0.007278442,0,
00:04.1,0.001047134,-0.002300262,0.007284164,0,
00:04.1,0.001064301,-0.002277374,0.007295609,0,
00:04.1,0.001058578,-0.002260208,0.007301331,0,
00:04.1,0.001047134,-0.002254486,0.007289886,0,
00:04.1,0.001041412,-0.002260208,0.007295609,0,
00:04.1,0.001018524,-0.002305984,0.007307053,0,
00:04.1,0.00103569,-0.002283096,0.007295609,0,
00:04.1,0.001024246,-0.002300262,0.007301331,0,
00:04.1,0.001029968,-0.002300262,0.007301331,0,
00:04.1,0.001024246,-0.00229454,0.007278442,0,
00:04.1,0.001029968,-0.002288818,0.007289886,0,
00:04.1,0.001041412,-0.002277374,0.007307053,0,
00:04.1,0.001041412,-0.00226593,0.007307053,0,
00:04.1,0.001029968,-0.002271652,0.007301331,0,
00:04.1,0.001029968,-0.00229454,0.007289886,0,
00:04.1,0.001029968,-0.00229454,0.007295609,0,
00:04.1,0.001041412,-0.002271652,0.007295609,0,
00:04.1,0.001029968,-0.002277374,0.007301331,0,
00:04.1,0.001029968,-0.002288818,0.007289886,0,
00:04.1,0.001029968,-0.00229454,0.007284164,0,
00:04.1,0.00103569,-0.002288818,0.007284164,0,
00:04.1,0.00103569,-0.002283096,0.007284164,0,
00:04.1,0.00103569,-0.00229454,0.007295609,0,
00:04.2,0.001041412,-0.002283096,0.007301331,0,
00:04.2,0.001024246,-0.002271652,0.007284164,0,
00:04.2,0.001029968,-0.00226593,0.007289886,0,
00:04.2,0.001029968,-0.002271652,0.007295609,0,
00:04.2,0.001012802,-0.002288818,0.007284164,0,
00:04.2,0.001024246,-0.002288818,0.007284164,0,
00:04.2,0.00100708,-0.00229454,0.007284164,0,
00:04.2,0.001018524,-0.002283096,0.007301331,0,
00:04.2,0.00103569,-0.002271652,0.007312775,0,
00:04.2,0.001024246,-0.002271652,0.007307053,0,
00:04.2,0.001024246,-0.00226593,0.007295609,0,
00:04.2,0.001018524,-0.002277374,0.007284164,0,
00:04.2,0.00100708,-0.002288818,0.007278442,0,
00:04.2,0.00100708,-0.00229454,0.007295609,0,
00:04.2,0.001012802,-0.002288818,0.007295609,0,
00:04.2,0.001018524,-0.002288818,0.007284164,0,
00:04.2,0.001012802,-0.002288818,0.007289886,0,
00:04.2,0.001001358,-0.002300262,0.007295609,0,
00:04.2,0.001012802,-0.002288818,0.007301331,0,
00:04.2,0.001018524,-0.00226593,0.007301331,0,
00:04.2,0.001018524,-0.002254486,0.007289886,0,
00:04.2,0.00100708,-0.002277374,0.007289886,0,
00:04.2,0.00100708,-0.002300262,0.007295609,0,
00:04.2,0.001001358,-0.002305984,0.007301331,0,
00:04.2,0.00100708,-0.002288818,0.007307053,0,
00:04.3,0.001012802,-0.002271652,0.007284164,0,
00:04.3,0.001018524,-0.002277374,0.007289886,0,
00:04.3,0.001012802,-0.002288818,0.007295609,0,
00:04.3,0.001012802,-0.00229454,0.007295609,0,
00:04.3,0.001012802,-0.002288818,0.007295609,0,
00:04.3,0.001001358,-0.002283096,0.007289886,0,
00:04.3,0.000995636,-0.00229454,0.007284164,0,
00:04.3,0.000989914,-0.002300262,0.007266998,0,
00:04.3,0.000995636,-0.002300262,0.007289886,0,
00:04.3,0.000995636,-0.00229454,0.007295609,0,
00:04.3,0.001024246,-0.002271652,0.007301331,0,
00:04.3,0.001018524,-0.002248764,0.007295609,0,
00:04.3,0.000984192,-0.002300262,0.007289886,0,
00:04.3,0.000989914,-0.002300262,0.007301331,0,
00:04.3,0.000989914,-0.00229454,0.007284164,0,
00:04.3,0.000995636,-0.002305984,0.007284164,0,
00:04.3,0.000995636,-0.002311707,0.007295609,0,
00:04.3,0.00100708,-0.002300262,0.007284164,0,
00:04.3,0.001018524,-0.002277374,0.007295609,0,
00:04.3,0.001012802,-0.002254486,0.007295609,0,
00:04.3,0.000995636,-0.002248764,0.00727272,0,
00:04.3,0.000995636,-0.002277374,0.00727272,0,
00:04.3,0.000984192,-0.002317429,0.007295609,0,
00:04.3,0.000984192,-0.002317429,0.007301331,0,
00:04.3,0.000995636,-0.002311707,0.007307053,0,
00:04.4,0.001001358,-0.002305984,0.007307053,0,
00:04.4,0.00100708,-0.002277374,0.007295609,0,
00:04.4,0.000995636,-0.00226593,0.007295609,0,
00:04.4,0.001001358,-0.002260208,0.007301331,0,
00:04.4,0.001001358,-0.002277374,0.007295609,0,
00:04.4,0.000989914,-0.002300262,0.007295609,0,
00:04.4,0.000989914,-0.002305984,0.007295609,0,
00:04.4,0.000995636,-0.002283096,0.007295609,0,
00:04.4,0.00097847,-0.00229454,0.007295609,0,
00:04.4,0.000972748,-0.002311707,0.007301331,0,
00:04.4,0.00097847,-0.002305984,0.007307053,0,
00:04.4,0.00097847,-0.002300262,0.007301331,0,
00:04.4,0.000989914,-0.002288818,0.007284164,0,
00:04.4,0.000989914,-0.002283096,0.007289886,0,
00:04.4,0.001012802,-0.002260208,0.007307053,0,
00:04.4,0.001012802,-0.002254486,0.007295609,0,
00:04.4,0.000995636,-0.002283096,0.007307053,0,
00:04.4,0.00097847,-0.002323151,0.007312775,0,
00:04.4,0.000984192,-0.002317429,0.007312775,0,
00:04.4,0.000984192,-0.002305984,0.007289886,0,
00:04.4,0.000989914,-0.002288818,0.007301331,0,
00:04.4,0.000995636,-0.00226593,0.007301331,0,
00:04.4,0.000995636,-0.002283096,0.007289886,0,
00:04.4,0.00097847,-0.002300262,0.007312775,0,
00:04.4,0.000984192,-0.00229454,0.007312775,0,
00:04.5,0.000989914,-0.002300262,0.007284164,0,
00:04.5,0.000989914,-0.002305984,0.007278442,0,
00:04.5,0.001001358,-0.002288818,0.007318497,0,
00:04.5,0.000995636,-0.002300262,0.007312775,0,
00:04.5,0.000984192,-0.002305984,0.007312775,0,
00:04.5,0.00097847,-0.002300262,0.007329941,0,
00:04.5,0.000984192,-0.002283096,0.007324219,0,
00:04.5,0.000989914,-0.002277374,0.007301331,0,
00:04.5,0.001001358,-0.002260208,0.007307053,0,
00:04.5,0.000995636,-0.002271652,0.007307053,0,
00:04.5,0.000989914,-0.002300262,0.007312775,0,
00:04.5,0.00097847,-0.002305984,0.007307053,0,
00:04.5,0.00097847,-0.002305984,0.007318497,0,
00:04.5,0.001001358,-0.002288818,0.007318497,0,
00:04.5,0.001018524,-0.00226593,0.007312775,0,
00:04.5,0.000972748,-0.002288818,0.007278442,0,
00:04.5,0.000961304,-0.002317429,0.007295609,0,
00:04.5,0.000984192,-0.00229454,0.007312775,0,
00:04.5,0.000989914,-0.00229454,0.007324219,0,
00:04.5,0.00097847,-0.00229454,0.007312775,0,
00:04.5,0.000984192,-0.002288818,0.007307053,0,
00:04.5,0.000984192,-0.002288818,0.007307053,0,
00:04.5,0.000984192,-0.002288818,0.007289886,0,
00:04.5,0.000984192,-0.00229454,0.007307053,0,
00:04.5,0.00097847,-0.00229454,0.007312775,0,
00:04.6,0.000984192,-0.002305984,0.007295609,0,
00:04.6,0.00097847,-0.002311707,0.007312775,0,
00:04.6,0.00097847,-0.002300262,0.007312775,0,
00:04.6,0.000995636,-0.002283096,0.007301331,0,
00:04.6,0.001001358,-0.002260208,0.007289886,0,
00:04.6,0.000995636,-0.002283096,0.007289886,0,
00:04.6,0.000995636,-0.002277374,0.007312775,0,
00:04.6,0.00100708,-0.002271652,0.007295609,0,
00:04.6,0.001001358,-0.002254486,0.007295609,0,
00:04.6,0.000984192,-0.002283096,0.007307053,0,
00:04.6,0.00097847,-0.002311707,0.007295609,0,
00:04.6,0.000984192,-0.002300262,0.007289886,0,
00:04.6,0.000989914,-0.00229454,0.007301331,0,
00:04.6,0.00097847,-0.00229454,0.007312775,0,
00:04.6,0.000967026,-0.002328873,0.007318497,0,
00:04.6,0.000972748,-0.002317429,0.007295609,0,
00:04.6,0.00097847,-0.002288818,0.007289886,0,
00:04.6,0.000989914,-0.002277374,0.007301331,0,
00:04.6,0.000995636,-0.002277374,0.007312775,0,
00:04.6,0.001001358,-0.002283096,0.007312775,0,
00:04.6,0.000995636,-0.002288818,0.007289886,0,
00:04.6,0.000995636,-0.00229454,0.007278442,0,
00:04.6,0.000989914,-0.002305984,0.007284164,0,
00:04.6,0.000989914,-0.00229454,0.007295609,0,
00:04.6,0.000972748,-0.002277374,0.007289886,0,
00:04.7,0.00097847,-0.002288818,0.007301331,0,
00:04.7,0.000967026,-0.002311707,0.007289886,0,
00:04.7,0.000967026,-0.002305984,0.007295609,0,
00:04.7,0.000972748,-0.002311707,0.007307053,0,
00:04.7,0.000989914,-0.002283096,0.007301331,0,
00:04.7,0.000984192,-0.002277374,0.007295609,0,
00:04.7,0.000972748,-0.00229454,0.007284164,0,
00:04.7,0.00097847,-0.002283096,0.007289886,0,
00:04.7,0.000972748,-0.00229454,0.007289886,0,
00:04.7,0.000961304,-0.002305984,0.007312775,0,
00:04.7,0.000961304,-0.002311707,0.007301331,0,
00:04.7,0.000972748,-0.002305984,0.007284164,0,
00:04.7,0.00097847,-0.002283096,0.007295609,0,
00:04.7,0.000972748,-0.002271652,0.007307053,0,
00:04.7,0.000967026,-0.002283096,0.007295609,0,
00:04.7,0.000972748,-0.002288818,0.007266998,0,
00:04.7,0.00097847,-0.00229454,0.007261276,0,
00:04.7,0.000961304,-0.002305984,0.007295609,0,
00:04.7,0.000961304,-0.002300262,0.007301331,0,
00:04.7,0.000972748,-0.00229454,0.007284164,0,
00:04.7,0.00097847,-0.002283096,0.007284164,0,
00:04.7,0.000961304,-0.002283096,0.00727272,0,
00:04.7,0.00097847,-0.002277374,0.007284164,0,
00:04.7,0.000972748,-0.002288818,0.007289886,0,
00:04.7,0.000984192,-0.002283096,0.007289886,0,
00:04.8,0.000961304,-0.002311707,0.007278442,0,
00:04.8,0.000955582,-0.002311707,0.007284164,0,
00:04.8,0.000961304,-0.002300262,0.007301331,0,
00:04.8,0.000972748,-0.00229454,0.007301331,0,
00:04.8,0.000967026,-0.002288818,0.007284164,0,
00:04.8,0.000955582,-0.002311707,0.00727272,0,
00:04.8,0.00094986,-0.002311707,0.007278442,0,
00:04.8,0.000955582,-0.002300262,0.007301331,0,
00:04.8,0.000967026,-0.00229454,0.007278442,0,
00:04.8,0.00097847,-0.002300262,0.00727272,0,
00:04.8,0.00097847,-0.002300262,0.007284164,0,
00:04.8,0.000961304,-0.002300262,0.00727272,0,
00:04.8,0.000967026,-0.00229454,0.00727272,0,
00:04.8,0.000972748,-0.00229454,0.00727272,0,
00:04.8,0.000967026,-0.00229454,0.007284164,0,
00:04.8,0.000961304,-0.002300262,0.007278442,0,
00:04.8,0.000972748,-0.00229454,0.007261276,0,
00:04.8,0.000984192,-0.002277374,0.007255554,0,
00:04.8,0.000972748,-0.002271652,0.007266998,0,
00:04.8,0.000961304,-0.002305984,0.007278442,0,
00:04.8,0.000961304,-0.002317429,0.007261276,0,
00:04.8,0.000955582,-0.002323151,0.007266998,0,
00:04.8,0.00097847,-0.002283096,0.007266998,0,
00:04.8,0.000967026,-0.002283096,0.007261276,0,
00:04.8,0.00097847,-0.002300262,0.007266998,0,
00:04.9,0.000972748,-0.002311707,0.007266998,0,
00:04.9,0.00094986,-0.002346039,0.007261276,0,
00:04.9,0.000955582,-0.002340317,0.007255554,0,
00:04.9,0.000961304,-0.002328873,0.00727272,0,
00:04.9,0.000967026,-0.002311707,0.007284164,0,
00:04.9,0.000961304,-0.002300262,0.007278442,0,
00:04.9,0.000961304,-0.002300262,0.007255554,0,
00:04.9,0.000967026,-0.002311707,0.007255554,0,
00:04.9,0.000972748,-0.002305984,0.007255554,0,
00:04.9,0.000972748,-0.002283096,0.007255554,0,
00:04.9,0.000967026,-0.002300262,0.007255554,0,
00:04.9,0.000972748,-0.002305984,0.007266998,0,
00:04.9,0.000984192,-0.00229454,0.00727272,0,
00:04.9,0.000972748,-0.002283096,0.007266998,0,
00:04.9,0.000961304,-0.002300262,0.007238388,0,
00:04.9,0.000961304,-0.002323151,0.007249832,0,
00:04.9,0.000972748,-0.002305984,0.007261276,0,
00:04.9,0.00097847,-0.002283096,0.007249832,0,
00:04.9,0.000967026,-0.00229454,0.007261276,0,
00:04.9,0.000961304,-0.002317429,0.007255554,0,
00:04.9,0.000972748,-0.002323151,0.007249832,0,
00:04.9,0.000967026,-0.002328873,0.007238388,0,
00:04.9,0.000972748,-0.002334595,0.007255554,0,
00:04.9,0.000984192,-0.002305984,0.00727272,0,
00:04.9,0.000984192,-0.002288818,0.007266998,0,
00:05.0,0.000972748,-0.002305984,0.007232666,0,
00:05.0,0.000967026,-0.002317429,0.007255554,0,
00:05.0,0.000972748,-0.002323151,0.00727272,0,
00:05.0,0.00097847,-0.002323151,0.007249832,0,
00:05.0,0.000984192,-0.002317429,0.00724411,0,
00:05.0,0.00097847,-0.002317429,0.00724411,0,
00:05.0,0.000961304,-0.002311707,0.007255554,0,
00:05.0,0.000972748,-0.002300262,0.007249832,0,
00:05.0,0.000967026,-0.002305984,0.00724411,0,
00:05.0,0.000972748,-0.002317429,0.007249832,0,
00:05.0,0.000972748,-0.002317429,0.007226944,0,
00:05.0,0.000972748,-0.002300262,0.0072155,0,
00:00:05,0.000967026,-0.002323151,0.007255554,0,
00:05.0,0.000972748,-0.00229454,0.007255554,0,
00:05.0,0.00097847,-0.002283096,0.007238388,0,
00:05.0,0.00097847,-0.002288818,0.007221222,0,
00:05.0,0.00097847,-0.002288818,0.007238388,0,
00:05.0,0.000972748,-0.00229454,0.007238388,0,
00:05.0,0.000972748,-0.002317429,0.007238388,0,
00:05.0,0.000967026,-0.002317429,0.00724411,0,
00:05.0,0.000972748,-0.002311707,0.007238388,0,
00:05.0,0.000995636,-0.002317429,0.007221222,0,
00:05.0,0.001001358,-0.002305984,0.007209778,0,
00:05.0,0.00097847,-0.002305984,0.007226944,0,
00:05.0,0.000967026,-0.002311707,0.007238388,0,
00:05.1,0.000972748,-0.002311707,0.007238388,0,
00:05.1,0.000972748,-0.002311707,0.007232666,0,
00:05.1,0.000967026,-0.002305984,0.00724411,0,
00:05.1,0.000989914,-0.002283096,0.007232666,0,
00:05.1,0.000995636,-0.002288818,0.007209778,0,
00:05.1,0.000984192,-0.002311707,0.007232666,0,
00:05.1,0.00097847,-0.002311707,0.007232666,0,
00:05.1,0.00097847,-0.002311707,0.00724411,0,
00:05.1,0.00097847,-0.002311707,0.007249832,0,
00:05.1,0.000972748,-0.002317429,0.007221222,0,
00:05.1,0.000984192,-0.002305984,0.007209778,0,
00:05.1,0.000972748,-0.002311707,0.007221222,0,
00:05.1,0.00097847,-0.002311707,0.007232666,0,
00:05.1,0.000984192,-0.00229454,0.007249832,0,
00:05.1,0.000984192,-0.002283096,0.007238388,0,
00:05.1,0.000989914,-0.00229454,0.007226944,0,
00:05.1,0.00100708,-0.00229454,0.007221222,0,
00:05.1,0.000995636,-0.002283096,0.007209778,0,
00:05.1,0.00097847,-0.002300262,0.007221222,0,
00:05.1,0.000972748,-0.002311707,0.007221222,0,
00:05.1,0.000995636,-0.002300262,0.007209778,0,
00:05.1,0.000989914,-0.002311707,0.007198334,0,
00:05.1,0.000984192,-0.002300262,0.007204056,0,
00:05.1,0.000989914,-0.002305984,0.007232666,0,
00:05.1,0.000989914,-0.002300262,0.007221222,0,
00:05.2,0.000989914,-0.00229454,0.007198334,0,
00:05.2,0.001001358,-0.002283096,0.007175446,0,
00:05.2,0.001012802,-0.002283096,0.007209778,0,
00:05.2,0.000984192,-0.002328873,0.0072155,0,
00:05.2,0.000984192,-0.002323151,0.0072155,0,
00:05.2,0.000972748,-0.002305984,0.0072155,0,
00:05.2,0.000972748,-0.002317429,0.0072155,0,
00:05.2,0.000995636,-0.002300262,0.007232666,0,
00:05.2,0.001001358,-0.00229454,0.007221222,0,
00:05.2,0.001001358,-0.002300262,0.0072155,0,
00:05.2,0.000984192,-0.002305984,0.007204056,0,
00:05.2,0.00097847,-0.002300262,0.007198334,0,
00:05.2,0.000972748,-0.002328873,0.007198334,0,
00:05.2,0.00097847,-0.002334595,0.007226944,0,
00:05.2,0.00097847,-0.002300262,0.007221222,0,
00:05.2,0.000984192,-0.002277374,0.007204056,0,
00:05.2,0.000989914,-0.002277374,0.007209778,0,
00:05.2,0.000995636,-0.002283096,0.007209778,0,
00:05.2,0.001001358,-0.002283096,0.007204056,0,
00:05.2,0.00100708,-0.002277374,0.007209778,0,
00:05.2,0.00097847,-0.002300262,0.00718689,0,
00:05.2,0.000967026,-0.002305984,0.007192612,0,
00:05.2,0.000984192,-0.002317429,0.007209778,0,
00:05.2,0.00100708,-0.002305984,0.007198334,0,
00:05.2,0.001001358,-0.002277374,0.007198334,0,
00:05.3,0.000989914,-0.002271652,0.00718689,0,
00:05.3,0.000989914,-0.002283096,0.007204056,0,
00:05.3,0.00097847,-0.00229454,0.007209778,0,
00:05.3,0.000995636,-0.002283096,0.007192612,0,
00:05.3,0.000995636,-0.00229454,0.007209778,0,
00:05.3,0.000984192,-0.002300262,0.0072155,0,
00:05.3,0.000995636,-0.00229454,0.007209778,0,
00:05.3,0.000995636,-0.00229454,0.007204056,0,
00:05.3,0.000989914,-0.002300262,0.007209778,0,
00:05.3,0.000984192,-0.002305984,0.007198334,0,
00:05.3,0.000995636,-0.002311707,0.007169724,0,
00:05.3,0.000995636,-0.002317429,0.00718689,0,
00:05.3,0.000995636,-0.002311707,0.007209778,0,
00:05.3,0.001001358,-0.002305984,0.007209778,0,
00:05.3,0.000989914,-0.00229454,0.007204056,0,
00:05.3,0.000995636,-0.002283096,0.007181168,0,
00:05.3,0.00100708,-0.002283096,0.007175446,0,
00:05.3,0.000995636,-0.00229454,0.007192612,0,
00:05.3,0.001012802,-0.002260208,0.007198334,0,
00:05.3,0.001001358,-0.00226593,0.007192612,0,
00:05.3,0.001001358,-0.002271652,0.00718689,0,
00:05.3,0.00100708,-0.002277374,0.007175446,0,
00:05.3,0.000989914,-0.002323151,0.00718689,0,
00:05.3,0.000989914,-0.002305984,0.007204056,0,
00:05.3,0.001001358,-0.00229454,0.007204056,0,
00:05.4,0.001001358,-0.002288818,0.007181168,0,
00:05.4,0.000995636,-0.00229454,0.00718689,0,
00:05.4,0.000995636,-0.00229454,0.007175446,0,
00:05.4,0.000989914,-0.00229454,0.007175446,0,
00:05.4,0.000995636,-0.002288818,0.007181168,0,
00:05.4,0.000995636,-0.002288818,0.007175446,0,
00:05.4,0.000995636,-0.00229454,0.007158279,0,
00:05.4,0.000995636,-0.002300262,0.007175446,0,
00:05.4,0.00100708,-0.002288818,0.007192612,0,
00:05.4,0.001001358,-0.002300262,0.007169724,0,
00:05.4,0.001001358,-0.00229454,0.007181168,0,
00:05.4,0.001012802,-0.00229454,0.007192612,0,
00:05.4,0.001001358,-0.002311707,0.007175446,0,
00:05.4,0.001012802,-0.00229454,0.007169724,0,
00:05.4,0.000995636,-0.002277374,0.007198334,0,
00:05.4,0.000989914,-0.002283096,0.007181168,0,
00:05.4,0.001012802,-0.002271652,0.007181168,0,
00:05.4,0.00103569,-0.002260208,0.007175446,0,
00:05.4,0.001029968,-0.002288818,0.007158279,0,
00:05.4,0.000984192,-0.002311707,0.007169724,0,
00:05.4,0.000989914,-0.002311707,0.007175446,0,
00:05.4,0.000995636,-0.002300262,0.007175446,0,
00:05.4,0.001001358,-0.002288818,0.007169724,0,
00:05.4,0.001012802,-0.002277374,0.007164001,0,
00:05.4,0.001018524,-0.002283096,0.007175446,0,
00:05.5,0.001018524,-0.002283096,0.007169724,0,
00:05.5,0.00100708,-0.002288818,0.007158279,0,
00:05.5,0.001001358,-0.002300262,0.007152557,0,
00:05.5,0.00100708,-0.00229454,0.007164001,0,
00:05.5,0.001001358,-0.00229454,0.007164001,0,
00:05.5,0.001001358,-0.002288818,0.007158279,0,
00:05.5,0.00100708,-0.002277374,0.007158279,0,
00:05.5,0.001029968,-0.00226593,0.007164001,0,
00:05.5,0.001018524,-0.002271652,0.007158279,0,
00:05.5,0.000989914,-0.002317429,0.007129669,0,
00:05.5,0.001012802,-0.002283096,0.007118225,0,
00:05.5,0.001001358,-0.002277374,0.007146835,0,
00:05.5,0.00100708,-0.002283096,0.007164001,0,
00:05.5,0.001001358,-0.00229454,0.007164001,0,
00:05.5,0.000995636,-0.002317429,0.007169724,0,
00:05.5,0.001018524,-0.002300262,0.007158279,0,
00:05.5,0.001012802,-0.002288818,0.007141113,0,
00:05.5,0.00100708,-0.002288818,0.007152557,0,
00:05.5,0.00100708,-0.002288818,0.007141113,0,
00:05.5,0.00100708,-0.00229454,0.007146835,0,
00:05.5,0.00100708,-0.002300262,0.007146835,0,
00:05.5,0.001001358,-0.002311707,0.007146835,0,
00:05.5,0.00100708,-0.002305984,0.007146835,0,
00:05.5,0.001012802,-0.00229454,0.007146835,0,
00:05.5,0.001012802,-0.002277374,0.007146835,0,
00:05.6,0.001012802,-0.002283096,0.007135391,0,
00:05.6,0.001012802,-0.002288818,0.007123947,0,
00:05.6,0.001018524,-0.00229454,0.007129669,0,
00:05.6,0.001018524,-0.002288818,0.007146835,0,
00:05.6,0.001024246,-0.002288818,0.007129669,0,
00:05.6,0.001012802,-0.002283096,0.007123947,0,
00:05.6,0.00100708,-0.002277374,0.007141113,0,
00:05.6,0.001001358,-0.002311707,0.007141113,0,
00:05.6,0.001024246,-0.002277374,0.007129669,0,
00:05.6,0.001029968,-0.00226593,0.007118225,0,
00:05.6,0.001001358,-0.002288818,0.007112503,0,
00:05.6,0.001001358,-0.002311707,0.007112503,0,
00:05.6,0.001001358,-0.002323151,0.007141113,0,
00:05.6,0.00100708,-0.002317429,0.007169724,0,
00:05.6,0.001012802,-0.002311707,0.007146835,0,
00:05.6,0.001018524,-0.00229454,0.007129669,0,
00:05.6,0.001024246,-0.002283096,0.007118225,0,
00:05.6,0.001024246,-0.002288818,0.007118225,0,
00:05.6,0.001018524,-0.00229454,0.007118225,0,
00:05.6,0.001001358,-0.002305984,0.007112503,0,
00:05.6,0.00100708,-0.002300262,0.007123947,0,
00:05.6,0.001012802,-0.00229454,0.007129669,0,
00:05.6,0.001012802,-0.002300262,0.007118225,0,
00:05.6,0.001018524,-0.002305984,0.007123947,0,
00:05.6,0.001024246,-0.002300262,0.007118225,0,
00:05.7,0.001029968,-0.002288818,0.007118225,0,
00:05.7,0.00103569,-0.00226593,0.007101059,0,
00:05.7,0.00100708,-0.00229454,0.007118225,0,
00:05.7,0.001012802,-0.002300262,0.007129669,0,
00:05.7,0.001041412,-0.002248764,0.007112503,0,
00:05.7,0.001024246,-0.002277374,0.007083893,0,
00:05.7,0.001018524,-0.002300262,0.007083893,0,
00:05.7,0.00100708,-0.002317429,0.007146835,0,
00:05.7,0.000995636,-0.002328873,0.007123947,0,
00:05.7,0.001018524,-0.002311707,0.007118225,0,
00:05.7,0.001018524,-0.002288818,0.007112503,0,
00:05.7,0.001029968,-0.002283096,0.007112503,0,
00:05.7,0.001029968,-0.002288818,0.007112503,0,
00:05.7,0.001024246,-0.00229454,0.007112503,0,
00:05.7,0.001018524,-0.002288818,0.007106781,0,
00:05.7,0.001024246,-0.002288818,0.007095337,0,
00:05.7,0.001029968,-0.00229454,0.007101059,0,
00:05.7,0.001024246,-0.002300262,0.007101059,0,
00:05.7,0.001024246,-0.002300262,0.007101059,0,
00:05.7,0.001024246,-0.00229454,0.007095337,0,
00:05.7,0.001029968,-0.002277374,0.007083893,0,
00:05.7,0.00103569,-0.002277374,0.007078171,0,
00:05.7,0.001041412,-0.002288818,0.007089615,0,
00:05.7,0.001018524,-0.002300262,0.007106781,0,
00:05.7,0.001024246,-0.002300262,0.007112503,0,
00:05.8,0.00103569,-0.002288818,0.007095337,0,
00:05.8,0.001041412,-0.002277374,0.007083893,0,
00:05.8,0.00103569,-0.002277374,0.007083893,0,
00:05.8,0.001024246,-0.002300262,0.007101059,0,
00:05.8,0.001024246,-0.00229454,0.007095337,0,
00:05.8,0.001024246,-0.002300262,0.007089615,0,
00:05.8,0.001029968,-0.002300262,0.007083893,0,
00:05.8,0.001024246,-0.00229454,0.007089615,0,
00:05.8,0.001024246,-0.00229454,0.007101059,0,
00:05.8,0.001029968,-0.00229454,0.007106781,0,
00:05.8,0.001024246,-0.002300262,0.007101059,0,
00:05.8,0.001029968,-0.002305984,0.007089615,0,
00:05.8,0.001029968,-0.002305984,0.007083893,0,
00:05.8,0.001041412,-0.002300262,0.007089615,0,
00:05.8,0.001041412,-0.00229454,0.007089615,0,
00:05.8,0.001041412,-0.002288818,0.007083893,0,
00:05.8,0.00103569,-0.002300262,0.007072449,0,
00:05.8,0.001047134,-0.00226593,0.007072449,0,
00:05.8,0.00103569,-0.002271652,0.007101059,0,
00:05.8,0.001041412,-0.002271652,0.007089615,0,
00:05.8,0.00103569,-0.00226593,0.007061005,0,
00:05.8,0.001041412,-0.002277374,0.007078171,0,
00:05.8,0.001029968,-0.00229454,0.007066727,0,
00:05.8,0.001029968,-0.002288818,0.007083893,0,
00:05.8,0.001041412,-0.002283096,0.007089615,0,
00:05.9,0.001047134,-0.002277374,0.007089615,0,
00:05.9,0.001029968,-0.002283096,0.007072449,0,
00:05.9,0.001024246,-0.002288818,0.007055283,0,
00:05.9,0.00103569,-0.00229454,0.007061005,0,
00:05.9,0.00103569,-0.002300262,0.007066727,0,
00:05.9,0.001047134,-0.002300262,0.007066727,0,
00:05.9,0.001047134,-0.002305984,0.007066727,0,
00:05.9,0.001041412,-0.002300262,0.007066727,0,
00:05.9,0.001024246,-0.002311707,0.007083893,0,
00:05.9,0.001029968,-0.002300262,0.007072449,0,
00:05.9,0.001047134,-0.002277374,0.007055283,0,
00:05.9,0.001041412,-0.002271652,0.007061005,0,
00:05.9,0.001047134,-0.002271652,0.007066727,0,
00:05.9,0.001041412,-0.002277374,0.007066727,0,
00:05.9,0.00103569,-0.002271652,0.007055283,0,
00:05.9,0.001029968,-0.002288818,0.007055283,0,
00:05.9,0.001029968,-0.002317429,0.007049561,0,
00:05.9,0.001041412,-0.002300262,0.007049561,0,
00:05.9,0.001052856,-0.002271652,0.007061005,0,
00:05.9,0.001052856,-0.002254486,0.007061005,0,
00:05.9,0.00103569,-0.002283096,0.007049561,0,
00:05.9,0.00103569,-0.002277374,0.007061005,0,
00:05.9,0.00103569,-0.002288818,0.007055283,0,
00:05.9,0.001029968,-0.002300262,0.007043839,0,
00:05.9,0.00103569,-0.002300262,0.007049561,0,
00:06.0,0.00103569,-0.002300262,0.007055283,0,
00:06.0,0.001041412,-0.00229454,0.007038116,0,
00:06.0,0.001041412,-0.002283096,0.007043839,0,
00:06.0,0.001052856,-0.002277374,0.007038116,0,
00:06.0,0.001058578,-0.002277374,0.007038116,0,
00:06.0,0.001047134,-0.002283096,0.007043839,0,
00:06.0,0.001041412,-0.002288818,0.007049561,0,
00:06.0,0.001029968,-0.002305984,0.007055283,0,
00:06.0,0.001024246,-0.002328873,0.007055283,0,
00:06.0,0.001041412,-0.002317429,0.007066727,0,
00:06.0,0.001047134,-0.00229454,0.007043839,0,
00:06.0,0.001058578,-0.00226593,0.007038116,0,
00:00:06,0.001070023,-0.002248764,0.007032394,0,
00:06.0,0.001047134,-0.00226593,0.007038116,0,
00:06.0,0.001041412,-0.002288818,0.007043839,0,
00:06.0,0.001052856,-0.002277374,0.007026672,0,
00:06.0,0.001052856,-0.002271652,0.007009506,0,
00:06.0,0.001047134,-0.002283096,0.007043839,0,
00:06.0,0.00103569,-0.00229454,0.007038116,0,
00:06.0,0.00103569,-0.00229454,0.007026672,0,
00:06.0,0.001041412,-0.00229454,0.007026672,0,
00:06.0,0.00103569,-0.002305984,0.007038116,0,
00:06.0,0.001041412,-0.002300262,0.007026672,0,
00:06.0,0.00103569,-0.00229454,0.007026672,0,
00:06.0,0.001052856,-0.002283096,0.00702095,0,
00:06.1,0.001064301,-0.002260208,0.007026672,0,
00:06.1,0.001047134,-0.00226593,0.007038116,0,
00:06.1,0.001047134,-0.002271652,0.00702095,0,
00:06.1,0.001052856,-0.002283096,0.007026672,0,
00:06.1,0.001052856,-0.00229454,0.007015228,0,
00:06.1,0.001058578,-0.002288818,0.007009506,0,
00:06.1,0.001047134,-0.002311707,0.007003784,0,
00:06.1,0.00103569,-0.002323151,0.007038116,0,
00:06.1,0.001041412,-0.002305984,0.007043839,0,
00:06.1,0.001058578,-0.002271652,0.007026672,0,
00:06.1,0.001058578,-0.002248764,0.007003784,0,
00:06.1,0.001047134,-0.002271652,0.00702095,0,
00:06.1,0.001052856,-0.00226593,0.007043839,0,
00:06.1,0.001047134,-0.002271652,0.007009506,0,
00:06.1,0.001041412,-0.002277374,0.007009506,0,
00:06.1,0.001041412,-0.002283096,0.007009506,0,
00:06.1,0.001058578,-0.002277374,0.007015228,0,
00:06.1,0.001052856,-0.002288818,0.00702095,0,
00:06.1,0.001047134,-0.002283096,0.007026672,0,
00:06.1,0.001047134,-0.002283096,0.007015228,0,
00:06.1,0.001064301,-0.002277374,0.006998062,0,
00:06.1,0.001058578,-0.002277374,0.00699234,0,
00:06.1,0.00103569,-0.002288818,0.007009506,0,
00:06.1,0.001041412,-0.002288818,0.007026672,0,
00:06.1,0.001047134,-0.002288818,0.007015228,0,
00:06.2,0.001058578,-0.002283096,0.006986618,0,
00:06.2,0.001075745,-0.002271652,0.006969452,0,
00:06.2,0.001058578,-0.002277374,0.006980896,0,
00:06.2,0.001052856,-0.002271652,0.007015228,0,
00:06.2,0.001058578,-0.002271652,0.007026672,0,
00:06.2,0.001047134,-0.002288818,0.007009506,0,
00:06.2,0.001047134,-0.002288818,0.006986618,0,
00:06.2,0.001064301,-0.00226593,0.007003784,0,
00:06.2,0.001081467,-0.002243042,0.007003784,0,
00:06.2,0.001052856,-0.002283096,0.006998062,0,
00:06.2,0.001041412,-0.002288818,0.00699234,0,
00:06.2,0.001047134,-0.002277374,0.006980896,0,
00:06.2,0.001058578,-0.002277374,0.007003784,0,
00:06.2,0.001058578,-0.002271652,0.007015228,0,
00:06.2,0.001058578,-0.002277374,0.006998062,0,
00:06.2,0.001064301,-0.002271652,0.006980896,0,
00:06.2,0.001070023,-0.002271652,0.00696373,0,
00:06.2,0.001058578,-0.002283096,0.006980896,0,
00:06.2,0.001058578,-0.002277374,0.007003784,0,
00:06.2,0.001058578,-0.002271652,0.007003784,0,
00:06.2,0.001075745,-0.002254486,0.006986618,0,
00:06.2,0.001087189,-0.002248764,0.006969452,0,
00:06.2,0.001070023,-0.002271652,0.006986618,0,
00:06.2,0.001058578,-0.00226593,0.006980896,0,
00:06.2,0.001052856,-0.002283096,0.00699234,0,
00:06.3,0.001047134,-0.002288818,0.006986618,0,
00:06.3,0.001047134,-0.002300262,0.006986618,0,
00:06.3,0.001064301,-0.002277374,0.006980896,0,
00:06.3,0.001070023,-0.002260208,0.006986618,0,
00:06.3,0.001070023,-0.00226593,0.006958008,0,
00:06.3,0.001064301,-0.002277374,0.006952286,0,
00:06.3,0.001058578,-0.002271652,0.006975174,0,
00:06.3,0.001058578,-0.002277374,0.006986618,0,
00:06.3,0.001058578,-0.002277374,0.00699234,0,
00:06.3,0.001070023,-0.002283096,0.006980896,0,
00:06.3,0.001075745,-0.00226593,0.006952286,0,
00:06.3,0.001070023,-0.002260208,0.00696373,0,
00:06.3,0.001052856,-0.002277374,0.006975174,0,
00:06.3,0.001058578,-0.00226593,0.006986618,0,
00:06.3,0.001064301,-0.00226593,0.006975174,0,
00:06.3,0.001081467,-0.002254486,0.006952286,0,
00:06.3,0.001075745,-0.002254486,0.006952286,0,
00:06.3,0.001081467,-0.002260208,0.00696373,0,
00:06.3,0.001064301,-0.00226593,0.006969452,0,
00:06.3,0.001064301,-0.002277374,0.00696373,0,
00:06.3,0.001075745,-0.00226593,0.00696373,0,
00:06.3,0.001087189,-0.002260208,0.006952286,0,
00:06.3,0.001070023,-0.00226593,0.006946564,0,
00:06.3,0.001064301,-0.002254486,0.006958008,0,
00:06.3,0.001058578,-0.00226593,0.00696373,0,
00:06.4,0.001058578,-0.002283096,0.006975174,0,
00:06.4,0.001070023,-0.00226593,0.006946564,0,
00:06.4,0.001075745,-0.00226593,0.00693512,0,
00:06.4,0.001092911,-0.00226593,0.00693512,0,
00:06.4,0.001087189,-0.002271652,0.006929398,0,
00:06.4,0.001070023,-0.002288818,0.006940842,0,
00:06.4,0.001064301,-0.002277374,0.006958008,0,
00:06.4,0.001064301,-0.002254486,0.00696373,0,
00:06.4,0.001052856,-0.002260208,0.006946564,0,
00:06.4,0.001075745,-0.00226593,0.006940842,0,
00:06.4,0.001058578,-0.002283096,0.00693512,0,
00:06.4,0.001058578,-0.00229454,0.006946564,0,
00:06.4,0.001064301,-0.002288818,0.006946564,0,
00:06.4,0.001081467,-0.002271652,0.006940842,0,
00:06.4,0.001070023,-0.002271652,0.006929398,0,
00:06.4,0.001070023,-0.002248764,0.006929398,0,
00:06.4,0.001075745,-0.00226593,0.006940842,0,
00:06.4,0.001087189,-0.002260208,0.006952286,0,
00:06.4,0.001075745,-0.00226593,0.00693512,0,
00:06.4,0.001075745,-0.002254486,0.00693512,0,
00:06.4,0.001087189,-0.002243042,0.00693512,0,
00:06.4,0.001087189,-0.002243042,0.006929398,0,
00:06.4,0.001075745,-0.002254486,0.006912231,0,
00:06.4,0.001075745,-0.002277374,0.006929398,0,
00:06.4,0.001075745,-0.002277374,0.00693512,0,
00:06.5,0.001081467,-0.002288818,0.006940842,0,
00:06.5,0.001087189,-0.00229454,0.006923676,0,
00:06.5,0.001081467,-0.002277374,0.006923676,0,
00:06.5,0.001087189,-0.002254486,0.006940842,0,
00:06.5,0.001070023,-0.002260208,0.006917953,0,
00:06.5,0.001070023,-0.002254486,0.006895065,0,
00:06.5,0.001092911,-0.002254486,0.006900787,0,
00:06.5,0.001098633,-0.002254486,0.00693512,0,
00:06.5,0.001087189,-0.002260208,0.006952286,0,
00:06.5,0.001081467,-0.002260208,0.006923676,0,
00:06.5,0.001075745,-0.002271652,0.006900787,0,
00:06.5,0.001064301,-0.00229454,0.006912231,0,
00:06.5,0.001070023,-0.00229454,0.00693512,0,
00:06.5,0.001075745,-0.002271652,0.006929398,0,
00:06.5,0.001092911,-0.002248764,0.006917953,0,
00:06.5,0.001104355,-0.002243042,0.006912231,0,
00:06.5,0.001092911,-0.002248764,0.006917953,0,
00:06.5,0.001104355,-0.002231598,0.006906509,0,
00:06.5,0.001087189,-0.002260208,0.006923676,0,
00:06.5,0.001081467,-0.002254486,0.006923676,0,
00:06.5,0.001087189,-0.002248764,0.006895065,0,
00:06.5,0.001087189,-0.002260208,0.006900787,0,
00:06.5,0.001087189,-0.002271652,0.006906509,0,
00:06.5,0.001092911,-0.002260208,0.006912231,0,
00:06.5,0.001098633,-0.002254486,0.006906509,0,
00:06.6,0.001104355,-0.002254486,0.006895065,0,
00:06.6,0.001075745,-0.002283096,0.006895065,0,
00:06.6,0.001081467,-0.002277374,0.006912231,0,
00:06.6,0.001081467,-0.00226593,0.006912231,0,
00:06.6,0.001098633,-0.002243042,0.006895065,0,
00:06.6,0.001092911,-0.002248764,0.006883621,0,
00:06.6,0.001098633,-0.002260208,0.006900787,0,
00:06.6,0.001104355,-0.00226593,0.006900787,0,
00:06.6,0.001115799,-0.00226593,0.006900787,0,
00:06.6,0.001092911,-0.00226593,0.006883621,0,
00:06.6,0.001075745,-0.00226593,0.006889343,0,
00:06.6,0.001087189,-0.002243042,0.006906509,0,
00:06.6,0.001087189,-0.002248764,0.006883621,0,
00:06.6,0.001092911,-0.002260208,0.006912231,0,
00:06.6,0.001098633,-0.002248764,0.006906509,0,
00:06.6,0.001104355,-0.002243042,0.006895065,0,
00:06.6,0.001104355,-0.002243042,0.006883621,0,
00:06.6,0.001110077,-0.002254486,0.006900787,0,
00:06.6,0.001104355,-0.002254486,0.006895065,0,
00:06.6,0.001110077,-0.002254486,0.006877899,0,
00:06.6,0.001104355,-0.00226593,0.006877899,0,
00:06.6,0.001087189,-0.00226593,0.006877899,0,
00:06.6,0.001098633,-0.002243042,0.006883621,0,
00:06.6,0.001104355,-0.00223732,0.006895065,0,
00:06.6,0.001104355,-0.002248764,0.006883621,0,
00:06.7,0.001104355,-0.00226593,0.006883621,0,
00:06.7,0.001098633,-0.002271652,0.006883621,0,
00:06.7,0.001098633,-0.00226593,0.006877899,0,
00:06.7,0.001115799,-0.00226593,0.006866455,0,
00:06.7,0.001098633,-0.002260208,0.006866455,0,
00:06.7,0.001098633,-0.002254486,0.006877899,0,
00:06.7,0.001098633,-0.002248764,0.006877899,0,
00:06.7,0.001098633,-0.002243042,0.006872177,0,
00:06.7,0.001127243,-0.002225876,0.006872177,0,
00:06.7,0.001132965,-0.002243042,0.006866455,0,
00:06.7,0.001104355,-0.002260208,0.006872177,0,
00:06.7,0.001092911,-0.00226593,0.006866455,0,
00:06.7,0.001104355,-0.002260208,0.006872177,0,
00:06.7,0.001110077,-0.002277374,0.006877899,0,
00:06.7,0.001127243,-0.00226593,0.006872177,0,
00:06.7,0.001132965,-0.00223732,0.006849289,0,
00:06.7,0.001115799,-0.00223732,0.006855011,0,
00:06.7,0.001104355,-0.002243042,0.006872177,0,
00:06.7,0.001092911,-0.002254486,0.006855011,0,
00:06.7,0.001104355,-0.002260208,0.006866455,0,
00:06.7,0.001110077,-0.002260208,0.006860733,0,
00:06.7,0.001115799,-0.002243042,0.006860733,0,
00:06.7,0.001110077,-0.002248764,0.006866455,0,
00:06.7,0.001110077,-0.002243042,0.006872177,0,
00:06.7,0.001104355,-0.002248764,0.006843567,0,
00:06.8,0.001110077,-0.002248764,0.006826401,0,
00:06.8,0.001121521,-0.002254486,0.006843567,0,
00:06.8,0.001115799,-0.002248764,0.006843567,0,
00:06.8,0.001110077,-0.002248764,0.006849289,0,
00:06.8,0.001115799,-0.002243042,0.006860733,0,
00:06.8,0.001110077,-0.002260208,0.006860733,0,
00:06.8,0.001115799,-0.002271652,0.006843567,0,
00:06.8,0.001110077,-0.00226593,0.006849289,0,
00:06.8,0.001115799,-0.002248764,0.006843567,0,
00:06.8,0.001127243,-0.002231598,0.006843567,0,
00:06.8,0.001115799,-0.00223732,0.006820679,0,
00:06.8,0.001127243,-0.002248764,0.006820679,0,
00:06.8,0.001115799,-0.00226593,0.006843567,0,
00:06.8,0.001121521,-0.002271652,0.006855011,0,
00:06.8,0.001115799,-0.002260208,0.006837845,0,
00:06.8,0.001115799,-0.002254486,0.006826401,0,
00:06.8,0.001127243,-0.002243042,0.006837845,0,
00:06.8,0.001132965,-0.002243042,0.006849289,0,
00:06.8,0.001132965,-0.002231598,0.006837845,0,
00:06.8,0.001121521,-0.002243042,0.006837845,0,
00:06.8,0.001115799,-0.002254486,0.006832123,0,
00:06.8,0.001132965,-0.002260208,0.006826401,0,
00:06.8,0.001138687,-0.002254486,0.006820679,0,
00:06.8,0.001138687,-0.002248764,0.006826401,0,
00:06.8,0.001121521,-0.002260208,0.006826401,0,
00:06.9,0.001127243,-0.002243042,0.006820679,0,
00:06.9,0.001127243,-0.002243042,0.006814957,0,
00:06.9,0.001127243,-0.002248764,0.006832123,0,
00:06.9,0.001127243,-0.002254486,0.006837845,0,
00:06.9,0.001127243,-0.002254486,0.006826401,0,
00:06.9,0.001127243,-0.002260208,0.006820679,0,
00:06.9,0.001138687,-0.00226593,0.006820679,0,
00:06.9,0.001138687,-0.002260208,0.006826401,0,
00:06.9,0.001138687,-0.002248764,0.006814957,0,
00:06.9,0.001150131,-0.002231598,0.006792068,0,
00:06.9,0.001121521,-0.00226593,0.006797791,0,
00:06.9,0.001127243,-0.002254486,0.006826401,0,
00:06.9,0.001132965,-0.00223732,0.006820679,0,
00:06.9,0.001127243,-0.002260208,0.006809235,0,
00:06.9,0.001132965,-0.002254486,0.006814957,0,
00:06.9,0.001132965,-0.002254486,0.006809235,0,
00:06.9,0.001127243,-0.002254486,0.006809235,0,
00:06.9,0.001138687,-0.002248764,0.006814957,0,
00:06.9,0.001138687,-0.002254486,0.006814957,0,
00:06.9,0.001144409,-0.002254486,0.006809235,0,
00:06.9,0.001150131,-0.002254486,0.006786346,0,
00:06.9,0.001144409,-0.00223732,0.006797791,0,
00:06.9,0.001132965,-0.002248764,0.006797791,0,
00:06.9,0.001132965,-0.002260208,0.006814957,0,
00:06.9,0.001138687,-0.00226593,0.006826401,0,
00:07.0,0.001150131,-0.002248764,0.006809235,0,
00:07.0,0.001161575,-0.002248764,0.006797791,0,
00:07.0,0.001150131,-0.002248764,0.006803513,0,
00:07.0,0.001127243,-0.002248764,0.006809235,0,
00:07.0,0.001127243,-0.002260208,0.006797791,0,
00:07.0,0.001127243,-0.002271652,0.006797791,0,
00:07.0,0.001132965,-0.002260208,0.006792068,0,
00:07.0,0.001132965,-0.002254486,0.006797791,0,
00:07.0,0.001138687,-0.002248764,0.006797791,0,
00:07.0,0.001144409,-0.002243042,0.006803513,0,
00:07.0,0.001150131,-0.002243042,0.006792068,0,
00:07.0,0.001150131,-0.002248764,0.006780624,0,
00:00:07,0.001138687,-0.002260208,0.006780624,0,
00:07.0,0.001144409,-0.002260208,0.006792068,0,
00:07.0,0.001155853,-0.002243042,0.006774902,0,
00:07.0,0.001144409,-0.002248764,0.00676918,0,
00:07.0,0.001144409,-0.002231598,0.006786346,0,
00:07.0,0.001144409,-0.00223732,0.006780624,0,
00:07.0,0.001150131,-0.002248764,0.006786346,0,
00:07.0,0.001155853,-0.00226593,0.006786346,0,
00:07.0,0.001150131,-0.002260208,0.006780624,0,
00:07.0,0.001138687,-0.00226593,0.006774902,0,
00:07.0,0.001138687,-0.002254486,0.006780624,0,
00:07.0,0.001155853,-0.00223732,0.006792068,0,
00:07.0,0.001150131,-0.002248764,0.006774902,0,
00:07.1,0.001144409,-0.002248764,0.006757736,0,
00:07.1,0.001138687,-0.002243042,0.00676918,0,
00:07.1,0.001144409,-0.002260208,0.006786346,0,
00:07.1,0.001150131,-0.002254486,0.006792068,0,
00:07.1,0.001138687,-0.00226593,0.006780624,0,
00:07.1,0.001155853,-0.002260208,0.006763458,0,
00:07.1,0.001155853,-0.002254486,0.006763458,0,
00:07.1,0.001144409,-0.002243042,0.00676918,0,
00:07.1,0.001150131,-0.002231598,0.00676918,0,
00:07.1,0.001167297,-0.00223732,0.006763458,0,
00:07.1,0.001161575,-0.002248764,0.00674057,0,
00:07.1,0.001150131,-0.00223732,0.006734848,0,
00:07.1,0.001138687,-0.002260208,0.006734848,0,
00:07.1,0.001138687,-0.002260208,0.006786346,0,
00:07.1,0.001155853,-0.002231598,0.006786346,0,
00:07.1,0.001155853,-0.002220154,0.00676918,0,
00:07.1,0.001150131,-0.002243042,0.006746292,0,
00:07.1,0.001161575,-0.00223732,0.006757736,0,
00:07.1,0.001155853,-0.002248764,0.00676918,0,
00:07.1,0.001138687,-0.002271652,0.006774902,0,
00:07.1,0.001150131,-0.002254486,0.006746292,0,
00:07.1,0.001161575,-0.002248764,0.00674057,0,
00:07.1,0.001150131,-0.002254486,0.006757736,0,
00:07.1,0.001144409,-0.002248764,0.006757736,0,
00:07.1,0.001155853,-0.002243042,0.006752014,0,
00:07.2,0.001161575,-0.00223732,0.00674057,0,
00:07.2,0.001178741,-0.002243042,0.006752014,0,
00:07.2,0.001173019,-0.002254486,0.006757736,0,
00:07.2,0.001150131,-0.00226593,0.006757736,0,
00:07.2,0.001161575,-0.002248764,0.006746292,0,
00:07.2,0.001173019,-0.00223732,0.006723404,0,
00:07.2,0.001161575,-0.002248764,0.006717682,0,
00:07.2,0.001155853,-0.002248764,0.00674057,0,
00:07.2,0.001190186,-0.00223732,0.006752014,0,
00:07.2,0.001184464,-0.002214432,0.006723404,0,
00:07.2,0.001150131,-0.002225876,0.006729126,0,
00:07.2,0.001161575,-0.002243042,0.006752014,0,
00:07.2,0.001161575,-0.002254486,0.00674057,0,
00:07.2,0.001150131,-0.002260208,0.006746292,0,
00:07.2,0.001161575,-0.002243042,0.00674057,0,
00:07.2,0.001161575,-0.002260208,0.00671196,0,
00:07.2,0.001155853,-0.002260208,0.00671196,0,
00:07.2,0.001167297,-0.002248764,0.006729126,0,
00:07.2,0.001173019,-0.002243042,0.00674057,0,
00:07.2,0.001155853,-0.002254486,0.00674057,0,
00:07.2,0.001155853,-0.002248764,0.006729126,0,
00:07.2,0.001178741,-0.00223732,0.006723404,0,
00:07.2,0.001178741,-0.002231598,0.006734848,0,
00:07.2,0.001167297,-0.002231598,0.006734848,0,
00:07.2,0.001161575,-0.002231598,0.006729126,0,
00:07.3,0.001161575,-0.002243042,0.006700516,0,
00:07.3,0.001178741,-0.002254486,0.006700516,0,
00:07.3,0.001178741,-0.002243042,0.006723404,0,
00:07.3,0.001161575,-0.002243042,0.006723404,0,
00:07.3,0.001173019,-0.002243042,0.006717682,0,
00:07.3,0.001161575,-0.002248764,0.006717682,0,
00:07.3,0.001178741,-0.002225876,0.00671196,0,
00:07.3,0.001184464,-0.002214432,0.00671196,0,
00:07.3,0.001173019,-0.00223732,0.006734848,0,
00:07.3,0.001161575,-0.002243042,0.006729126,0,
00:07.3,0.001173019,-0.002231598,0.006700516,0,
00:07.3,0.001167297,-0.002248764,0.006694794,0,
00:07.3,0.001161575,-0.00223732,0.006717682,0,
00:07.3,0.001184464,-0.00223732,0.006723404,0,
00:07.3,0.001184464,-0.00223732,0.006717682,0,
00:07.3,0.001167297,-0.00223732,0.006700516,0,
00:07.3,0.001167297,-0.00223732,0.006706238,0,
00:07.3,0.001178741,-0.002231598,0.00671196,0,
00:07.3,0.001184464,-0.002231598,0.006717682,0,
00:07.3,0.001178741,-0.002231598,0.006700516,0,
00:07.3,0.001167297,-0.002243042,0.006694794,0,
00:07.3,0.001173019,-0.002248764,0.006706238,0,
00:07.3,0.001178741,-0.002248764,0.006706238,0,
00:07.3,0.001190186,-0.002220154,0.00671196,0,
00:07.3,0.001190186,-0.002214432,0.006689072,0,
00:07.4,0.001173019,-0.002225876,0.00668335,0,
00:07.4,0.001190186,-0.00220871,0.006677628,0,
00:07.4,0.001184464,-0.002225876,0.00668335,0,
00:07.4,0.001167297,-0.00226593,0.006700516,0,
00:07.4,0.001173019,-0.002243042,0.006694794,0,
00:07.4,0.001184464,-0.002214432,0.00668335,0,
00:07.4,0.001155853,-0.00226593,0.006700516,0,
00:07.4,0.001161575,-0.002248764,0.00671196,0,
00:07.4,0.001173019,-0.002231598,0.00668335,0,
00:07.4,0.001190186,-0.002231598,0.006671906,0,
00:07.4,0.001184464,-0.002231598,0.00668335,0,
00:07.4,0.001184464,-0.00223732,0.006671906,0,
00:07.4,0.001184464,-0.002248764,0.006671906,0,
00:07.4,0.001184464,-0.002248764,0.006700516,0,
00:07.4,0.001178741,-0.00223732,0.006706238,0,
00:07.4,0.001173019,-0.002220154,0.006694794,0,
00:07.4,0.001184464,-0.002214432,0.006677628,0,
00:07.4,0.001167297,-0.00223732,0.006689072,0,
00:07.4,0.001161575,-0.002254486,0.006689072,0,
00:07.4,0.001173019,-0.00223732,0.00668335,0,
00:07.4,0.001190186,-0.00220871,0.006671906,0,
00:07.4,0.00120163,-0.002202988,0.006654739,0,
00:07.4,0.001207352,-0.002202988,0.006660461,0,
00:07.4,0.001184464,-0.002220154,0.00668335,0,
00:07.4,0.001178741,-0.002243042,0.006677628,0,
00:07.5,0.001178741,-0.002231598,0.006677628,0,
00:07.5,0.001190186,-0.002220154,0.006666183,0,
00:07.5,0.001178741,-0.002231598,0.006649017,0,
00:07.5,0.001184464,-0.002225876,0.006654739,0,
00:07.5,0.001184464,-0.002231598,0.006660461,0,
00:07.5,0.001184464,-0.00223732,0.006671906,0,
00:07.5,0.00120163,-0.002231598,0.006660461,0,
00:07.5,0.001190186,-0.00223732,0.006649017,0,
00:07.5,0.001190186,-0.00223732,0.006649017,0,
00:07.5,0.001195908,-0.002243042,0.006654739,0,
00:07.5,0.001195908,-0.002243042,0.006654739,0,
00:07.5,0.00120163,-0.00223732,0.006654739,0,
00:07.5,0.001190186,-0.002225876,0.006666183,0,
00:07.5,0.001178741,-0.002225876,0.006666183,0,
00:07.5,0.001184464,-0.002225876,0.006660461,0,
00:07.5,0.00120163,-0.00223732,0.006637573,0,
00:07.5,0.00120163,-0.002260208,0.006631851,0,
00:07.5,0.00120163,-0.002248764,0.006643295,0,
00:07.5,0.001195908,-0.002220154,0.006654739,0,
00:07.5,0.001190186,-0.002225876,0.006649017,0,
00:07.5,0.001195908,-0.002225876,0.006654739,0,
00:07.5,0.001190186,-0.002225876,0.006654739,0,
00:07.5,0.00120163,-0.002214432,0.006660461,0,
00:07.5,0.001195908,-0.002220154,0.006649017,0,
00:07.5,0.001195908,-0.002231598,0.006631851,0,
00:07.6,0.001195908,-0.002231598,0.006643295,0,
00:07.6,0.00120163,-0.002225876,0.006649017,0,
00:07.6,0.00120163,-0.00223732,0.006654739,0,
00:07.6,0.001207352,-0.002231598,0.006649017,0,
00:07.6,0.00120163,-0.002225876,0.006631851,0,
00:07.6,0.00120163,-0.002231598,0.006626129,0,
00:07.6,0.001218796,-0.002225876,0.006631851,0,
00:07.6,0.001213074,-0.002220154,0.006637573,0,
00:07.6,0.00120163,-0.002231598,0.006614685,0,
00:07.6,0.00120163,-0.002243042,0.006620407,0,
00:07.6,0.001195908,-0.00223732,0.006626129,0,
00:07.6,0.001195908,-0.002220154,0.006620407,0,
00:07.6,0.001213074,-0.002202988,0.006614685,0,
00:07.6,0.001207352,-0.002220154,0.006631851,0,
00:07.6,0.001218796,-0.002214432,0.006637573,0,
00:07.6,0.00120163,-0.002202988,0.006626129,0,
00:07.6,0.001190186,-0.002243042,0.006637573,0,
00:07.6,0.00120163,-0.002225876,0.006626129,0,
00:07.6,0.001207352,-0.002231598,0.006631851,0,
00:07.6,0.001184464,-0.002254486,0.006631851,0,
00:07.6,0.001184464,-0.00223732,0.006603241,0,
00:07.6,0.001207352,-0.002214432,0.006608963,0,
00:07.6,0.001207352,-0.002225876,0.006626129,0,
00:07.6,0.001207352,-0.002231598,0.006626129,0,
00:07.6,0.001207352,-0.002225876,0.006614685,0,
00:07.7,0.001207352,-0.002220154,0.006597519,0,
00:07.7,0.00120163,-0.002220154,0.006597519,0,
00:07.7,0.001213074,-0.00223732,0.006620407,0,
00:07.7,0.001224518,-0.002231598,0.006620407,0,
00:07.7,0.001207352,-0.002231598,0.006603241,0,
00:07.7,0.001195908,-0.002225876,0.006614685,0,
00:07.7,0.00120163,-0.002214432,0.006597519,0,
00:07.7,0.001207352,-0.00220871,0.006603241,0,
00:07.7,0.001213074,-0.002220154,0.006597519,0,
00:07.7,0.001218796,-0.002214432,0.006597519,0,
00:07.7,0.00120163,-0.002231598,0.006603241,0,
00:07.7,0.00120163,-0.00220871,0.006603241,0,
00:07.7,0.001224518,-0.002168655,0.006603241,0,
00:07.7,0.001213074,-0.002214432,0.006586075,0,
00:07.7,0.001207352,-0.00223732,0.006586075,0,
00:07.7,0.001213074,-0.002225876,0.006597519,0,
00:07.7,0.00120163,-0.00223732,0.006597519,0,
00:07.7,0.001195908,-0.002243042,0.006603241,0,
00:07.7,0.001207352,-0.002225876,0.006603241,0,
00:07.7,0.001213074,-0.002214432,0.006591797,0,
00:07.7,0.001207352,-0.002220154,0.006586075,0,
00:07.7,0.001213074,-0.002225876,0.006597519,0,
00:07.7,0.001213074,-0.002214432,0.006591797,0,
00:07.7,0.001218796,-0.002220154,0.006591797,0,
00:07.7,0.001235962,-0.002214432,0.006580353,0,
00:07.8,0.001235962,-0.00220871,0.006574631,0,
00:07.8,0.001207352,-0.002202988,0.006586075,0,
00:07.8,0.00120163,-0.002214432,0.006603241,0,
00:07.8,0.001207352,-0.002220154,0.006586075,0,
00:07.8,0.001207352,-0.002214432,0.006580353,0,
00:07.8,0.001195908,-0.002225876,0.006574631,0,
00:07.8,0.001207352,-0.002214432,0.006580353,0,
00:07.8,0.001218796,-0.002197266,0.006580353,0,
00:07.8,0.001224518,-0.00220871,0.006574631,0,
00:07.8,0.001213074,-0.002220154,0.006574631,0,
00:07.8,0.00120163,-0.002220154,0.006574631,0,
00:07.8,0.001213074,-0.002214432,0.006580353,0,
00:07.8,0.001218796,-0.002214432,0.006591797,0,
00:07.8,0.001224518,-0.002202988,0.006580353,0,
00:07.8,0.001224518,-0.00220871,0.006568909,0,
00:07.8,0.001218796,-0.002220154,0.006557465,0,
00:07.8,0.001218796,-0.002225876,0.006551743,0,
00:07.8,0.001218796,-0.002225876,0.006563187,0,
00:07.8,0.001224518,-0.002220154,0.006580353,0,
00:07.8,0.001218796,-0.002231598,0.006574631,0,
00:07.8,0.001213074,-0.002231598,0.006563187,0,
00:07.8,0.00123024,-0.002202988,0.006557465,0,
00:07.8,0.001235962,-0.002191544,0.006551743,0,
00:07.8,0.001224518,-0.002180099,0.006557465,0,
00:07.8,0.001213074,-0.002225876,0.006563187,0,
00:07.9,0.001207352,-0.002254486,0.006568909,0,
00:07.9,0.001213074,-0.002231598,0.006568909,0,
00:07.9,0.001218796,-0.002202988,0.006568909,0,
00:07.9,0.001235962,-0.002185822,0.006563187,0,
00:07.9,0.001247406,-0.002185822,0.006551743,0,
00:07.9,0.001218796,-0.002220154,0.006557465,0,
00:07.9,0.001224518,-0.00223732,0.006563187,0,
00:07.9,0.00123024,-0.002225876,0.006546021,0,
00:07.9,0.001218796,-0.002220154,0.006528854,0,
00:07.9,0.001224518,-0.002214432,0.006546021,0,
00:07.9,0.001218796,-0.002220154,0.006563187,0,
00:07.9,0.001224518,-0.002214432,0.006563187,0,
00:07.9,0.001235962,-0.00220871,0.006563187,0,
00:07.9,0.001235962,-0.002214432,0.006551743,0,
00:07.9,0.00123024,-0.002225876,0.006540298,0,
00:07.9,0.001224518,-0.00223732,0.006540298,0,
00:07.9,0.001218796,-0.002225876,0.006551743,0,
00:07.9,0.00123024,-0.002197266,0.006551743,0,
00:07.9,0.001224518,-0.002214432,0.006540298,0,
00:07.9,0.001224518,-0.002214432,0.006534576,0,
00:07.9,0.001224518,-0.002197266,0.006534576,0,
00:07.9,0.00123024,-0.002202988,0.006534576,0,
00:07.9,0.001224518,-0.002214432,0.006534576,0,
00:07.9,0.001218796,-0.00223732,0.006540298,0,
00:07.9,0.001224518,-0.002220154,0.006551743,0,
00:08.0,0.00123024,-0.002220154,0.006528854,0,
00:08.0,0.00123024,-0.002220154,0.006528854,0,
00:08.0,0.001224518,-0.002220154,0.006528854,0,
00:08.0,0.001224518,-0.002231598,0.006540298,0,
00:08.0,0.001218796,-0.002220154,0.006534576,0,
00:08.0,0.00123024,-0.00220871,0.00651741,0,
00:08.0,0.00123024,-0.002214432,0.006511688,0,
00:08.0,0.001241684,-0.002220154,0.00651741,0,
00:08.0,0.001218796,-0.002220154,0.006523132,0,
00:08.0,0.001207352,-0.002225876,0.006523132,0,
00:08.0,0.00123024,-0.002220154,0.006511688,0,
00:08.0,0.001241684,-0.002214432,0.006511688,0,
00:00:08,0.001218796,-0.002231598,0.006528854,0,
00:08.0,0.001213074,-0.002243042,0.006534576,0,
00:08.0,0.001224518,-0.002243042,0.006528854,0,
00:08.0,0.001207352,-0.002248764,0.006511688,0,
00:08.0,0.001207352,-0.002243042,0.00651741,0,
00:08.0,0.001213074,-0.002220154,0.006511688,0,
00:08.0,0.001224518,-0.002197266,0.006505966,0,
00:08.0,0.001247406,-0.002185822,0.006511688,0,
00:08.0,0.001224518,-0.002202988,0.006483078,0,
00:08.0,0.001213074,-0.002243042,0.006505966,0,
00:08.0,0.001213074,-0.00223732,0.006528854,0,
00:08.0,0.001207352,-0.002231598,0.006528854,0,
00:08.0,0.001213074,-0.002243042,0.006523132,0,
00:08.1,0.00123024,-0.002243042,0.006505966,0,
00:08.1,0.001218796,-0.002248764,0.006505966,0,
00:08.1,0.001218796,-0.002248764,0.006505966,0,
00:08.1,0.001218796,-0.002248764,0.00651741,0,
00:08.1,0.001218796,-0.00223732,0.006505966,0,
00:08.1,0.00123024,-0.002225876,0.006494522,0,
00:08.1,0.001218796,-0.002220154,0.006494522,0,
00:08.1,0.001207352,-0.00223732,0.006500244,0,
00:08.1,0.001207352,-0.002231598,0.006500244,0,
00:08.1,0.001218796,-0.002225876,0.0064888,0,
00:08.1,0.001213074,-0.00223732,0.006494522,0,
00:08.1,0.001213074,-0.00223732,0.006494522,0,
00:08.1,0.00120163,-0.002254486,0.006500244,0,
00:08.1,0.001195908,-0.00226593,0.00651741,0,
00:08.1,0.001207352,-0.002248764,0.006505966,0,
00:08.1,0.00120163,-0.002254486,0.006494522,0,
00:08.1,0.001207352,-0.00223732,0.006505966,0,
00:08.1,0.001195908,-0.002248764,0.006494522,0,
00:08.1,0.001195908,-0.002254486,0.006500244,0,
00:08.1,0.001207352,-0.002260208,0.006500244,0,
00:08.1,0.001213074,-0.002254486,0.006494522,0,
00:08.1,0.001207352,-0.002260208,0.006500244,0,
00:08.1,0.00120163,-0.00226593,0.006500244,0,
00:08.1,0.001207352,-0.00226593,0.0064888,0,
00:08.1,0.001207352,-0.002260208,0.006500244,0,
00:08.2,0.001195908,-0.002260208,0.006505966,0,
00:08.2,0.001213074,-0.002254486,0.006505966,0,
00:08.2,0.001213074,-0.002260208,0.006500244,0,
00:08.2,0.001195908,-0.00226593,0.006494522,0,
00:08.2,0.001190186,-0.002271652,0.006477356,0,
00:08.2,0.001195908,-0.002260208,0.0064888,0,
00:08.2,0.001190186,-0.00226593,0.0064888,0,
00:08.2,0.001195908,-0.002260208,0.006494522,0,
00:08.2,0.00120163,-0.002254486,0.006494522,0,
00:08.2,0.001190186,-0.002271652,0.006500244,0,
00:08.2,0.001190186,-0.002283096,0.006483078,0,
00:08.2,0.001218796,-0.002254486,0.0064888,0,
00:08.2,0.001213074,-0.002243042,0.006505966,0,
00:08.2,0.001167297,-0.002300262,0.006511688,0,
00:08.2,0.001178741,-0.002305984,0.006511688,0,
00:08.2,0.001184464,-0.002288818,0.006494522,0,
00:08.2,0.001173019,-0.002288818,0.0064888,0,
00:08.2,0.001178741,-0.002271652,0.006511688,0,
00:08.2,0.001195908,-0.00226593,0.00651741,0,
00:08.2,0.001190186,-0.002283096,0.006505966,0,
00:08.2,0.001184464,-0.002300262,0.006477356,0,
00:08.2,0.001184464,-0.002300262,0.006494522,0,
00:08.2,0.001190186,-0.00229454,0.00651741,0,
00:08.2,0.001161575,-0.00229454,0.006523132,0,
00:08.2,0.001173019,-0.002300262,0.006511688,0,
00:08.3,0.001184464,-0.00229454,0.006511688,0,
00:08.3,0.001178741,-0.002288818,0.006500244,0,
00:08.3,0.001167297,-0.002300262,0.006511688,0,
00:08.3,0.001167297,-0.002300262,0.006511688,0,
00:08.3,0.001178741,-0.002277374,0.006511688,0,
00:08.3,0.001184464,-0.002288818,0.006494522,0,
00:08.3,0.001178741,-0.002288818,0.006505966,0,
00:08.3,0.001173019,-0.00229454,0.006505966,0,
00:08.3,0.001161575,-0.002305984,0.006528854,0,
00:08.3,0.001167297,-0.002300262,0.006534576,0,
00:08.3,0.001161575,-0.00229454,0.006528854,0,
00:08.3,0.001167297,-0.002300262,0.006523132,0,
00:08.3,0.001167297,-0.002300262,0.006528854,0,
00:08.3,0.001155853,-0.002328873,0.006546021,0,
00:08.3,0.001150131,-0.002323151,0.006540298,0,
00:08.3,0.001161575,-0.002317429,0.006528854,0,
00:08.3,0.001167297,-0.00229454,0.006523132,0,
00:08.3,0.001167297,-0.002300262,0.006546021,0,
00:08.3,0.001161575,-0.002311707,0.006557465,0,
00:08.3,0.001150131,-0.002317429,0.006557465,0,
00:08.3,0.001155853,-0.002328873,0.006551743,0,
00:08.3,0.001155853,-0.002323151,0.006557465,0,
00:08.3,0.001150131,-0.002317429,0.006557465,0,
00:08.3,0.001144409,-0.002311707,0.006563187,0,
00:08.3,0.001155853,-0.002311707,0.006546021,0,
00:08.4,0.001155853,-0.002328873,0.006540298,0,
00:08.4,0.001155853,-0.002317429,0.006563187,0,
00:08.4,0.001132965,-0.002328873,0.006574631,0,
00:08.4,0.001138687,-0.002323151,0.006580353,0,
00:08.4,0.001150131,-0.002305984,0.006580353,0,
00:08.4,0.001132965,-0.002311707,0.006568909,0,
00:08.4,0.001132965,-0.002340317,0.006580353,0,
00:08.4,0.001138687,-0.002346039,0.006591797,0,
00:08.4,0.001138687,-0.002340317,0.006597519,0,
00:08.4,0.001144409,-0.002328873,0.006586075,0,
00:08.4,0.001138687,-0.002328873,0.006591797,0,
00:08.4,0.001127243,-0.002346039,0.006597519,0,
00:08.4,0.001127243,-0.002340317,0.006591797,0,
00:08.4,0.001121521,-0.002328873,0.006608963,0,
00:08.4,0.001132965,-0.002317429,0.006608963,0,
00:08.4,0.001132965,-0.002328873,0.006603241,0,
00:08.4,0.001132965,-0.002334595,0.006631851,0,
00:08.4,0.001115799,-0.002334595,0.006637573,0,
00:08.4,0.001121521,-0.002323151,0.006643295,0,
00:08.4,0.001127243,-0.002323151,0.006637573,0,
00:08.4,0.001127243,-0.002323151,0.006631851,0,
00:08.4,0.001115799,-0.002351761,0.006643295,0,
00:08.4,0.001098633,-0.002374649,0.006666183,0,
00:08.4,0.001104355,-0.002363205,0.006666183,0,
00:08.4,0.001115799,-0.002340317,0.006649017,0,
00:08.5,0.001115799,-0.002323151,0.006643295,0,
00:08.5,0.001104355,-0.002323151,0.006666183,0,
00:08.5,0.001098633,-0.002346039,0.00668335,0,
00:08.5,0.001110077,-0.002346039,0.006694794,0,
00:08.5,0.001115799,-0.002334595,0.006694794,0,
00:08.5,0.001121521,-0.002340317,0.00668335,0,
00:08.5,0.001104355,-0.002346039,0.00668335,0,
00:08.5,0.001098633,-0.002351761,0.006694794,0,
00:08.5,0.001115799,-0.002346039,0.006717682,0,
00:08.5,0.001104355,-0.002351761,0.00671196,0,
00:08.5,0.001098633,-0.002374649,0.006717682,0,
00:08.5,0.001098633,-0.002368927,0.006723404,0,
00:08.5,0.001087189,-0.002374649,0.006729126,0,
00:08.5,0.001081467,-0.002374649,0.00674057,0,
00:08.5,0.001098633,-0.002357483,0.006729126,0,
00:08.5,0.001098633,-0.002346039,0.006717682,0,
00:08.5,0.001098633,-0.002351761,0.006746292,0,
00:08.5,0.001098633,-0.002340317,0.006774902,0,
00:08.5,0.001104355,-0.002334595,0.006763458,0,
00:08.5,0.001098633,-0.002346039,0.006763458,0,
00:08.5,0.001081467,-0.002368927,0.00676918,0,
00:08.5,0.001087189,-0.002363205,0.006780624,0,
00:08.5,0.001092911,-0.002357483,0.006786346,0,
00:08.5,0.001098633,-0.002357483,0.006786346,0,
00:08.5,0.001092911,-0.002368927,0.006780624,0,
00:08.6,0.001070023,-0.002374649,0.006803513,0,
00:08.6,0.001070023,-0.002368927,0.006814957,0,
00:08.6,0.001087189,-0.002363205,0.006820679,0,
00:08.6,0.001087189,-0.002363205,0.006826401,0,
00:08.6,0.001075745,-0.002386093,0.006832123,0,
00:08.6,0.001092911,-0.002380371,0.006820679,0,
00:08.6,0.001104355,-0.002374649,0.006814957,0,
00:08.6,0.001087189,-0.002380371,0.006832123,0,
00:08.6,0.001064301,-0.002380371,0.006866455,0,
00:08.6,0.001075745,-0.002386093,0.006866455,0,
00:08.6,0.001075745,-0.002391815,0.006843567,0,
00:08.6,0.001070023,-0.002397537,0.006866455,0,
00:08.6,0.001070023,-0.002391815,0.006872177,0,
00:08.6,0.001087189,-0.002368927,0.006877899,0,
00:08.6,0.001075745,-0.002403259,0.006877899,0,
00:08.6,0.001064301,-0.00243187,0.006912231,0,
00:08.6,0.001070023,-0.002403259,0.006917953,0,
00:08.6,0.001092911,-0.002351761,0.006906509,0,
00:08.6,0.001075745,-0.002368927,0.006906509,0,
00:08.6,0.001058578,-0.002397537,0.006923676,0,
00:08.6,0.001058578,-0.002408981,0.006923676,0,
00:08.6,0.001070023,-0.002414703,0.006929398,0,
00:08.6,0.001075745,-0.002426147,0.006946564,0,
00:08.6,0.001064301,-0.002408981,0.006946564,0,
00:08.6,0.001064301,-0.002397537,0.006946564,0,
00:08.7,0.001081467,-0.002386093,0.006946564,0,
00:08.7,0.001081467,-0.002391815,0.006969452,0,
00:08.7,0.001070023,-0.002414703,0.006975174,0,
00:08.7,0.001052856,-0.002426147,0.00699234,0,
00:08.7,0.001064301,-0.002414703,0.006975174,0,
00:08.7,0.001064301,-0.002426147,0.006969452,0,
00:08.7,0.001064301,-0.002426147,0.00699234,0,
00:08.7,0.001070023,-0.002420425,0.007003784,0,
00:08.7,0.001075745,-0.002414703,0.006998062,0,
00:08.7,0.001070023,-0.002420425,0.007015228,0,
00:08.7,0.001052856,-0.002443314,0.007026672,0,
00:08.7,0.001064301,-0.002403259,0.007032394,0,
00:08.7,0.001087189,-0.002391815,0.007032394,0,
00:08.7,0.001070023,-0.002426147,0.007049561,0,
00:08.7,0.001058578,-0.002437592,0.007055283,0,
00:08.7,0.001064301,-0.002449036,0.007043839,0,
00:08.7,0.001064301,-0.002454758,0.007055283,0,
00:08.7,0.001064301,-0.002454758,0.007066727,0,
00:08.7,0.001058578,-0.002449036,0.007066727,0,
00:08.7,0.001064301,-0.002437592,0.007089615,0,
00:08.7,0.001070023,-0.002414703,0.007078171,0,
00:08.7,0.001081467,-0.002408981,0.007095337,0,
00:08.7,0.001087189,-0.002420425,0.007112503,0,
00:08.7,0.001058578,-0.00243187,0.007123947,0,
00:08.7,0.001058578,-0.002443314,0.007123947,0,
00:08.8,0.001064301,-0.002449036,0.007129669,0,
00:08.8,0.001058578,-0.002449036,0.007129669,0,
00:08.8,0.001075745,-0.002443314,0.007141113,0,
00:08.8,0.001075745,-0.002454758,0.007152557,0,
00:08.8,0.001075745,-0.00243187,0.007152557,0,
00:08.8,0.001070023,-0.002426147,0.007164001,0,
00:08.8,0.001081467,-0.002408981,0.007164001,0,
00:08.8,0.001087189,-0.002414703,0.007192612,0,
00:08.8,0.001047134,-0.002471924,0.007181168,0,
00:08.8,0.001041412,-0.002477646,0.007175446,0,
00:08.8,0.001064301,-0.002454758,0.007192612,0,
00:08.8,0.001075745,-0.00243187,0.0072155,0,
00:08.8,0.001075745,-0.002437592,0.007221222,0,
00:08.8,0.001058578,-0.002477646,0.007226944,0,
00:08.8,0.001058578,-0.002477646,0.007238388,0,
00:08.8,0.001064301,-0.002466202,0.007232666,0,
00:08.8,0.001075745,-0.002471924,0.00724411,0,
00:08.8,0.001081467,-0.002471924,0.007238388,0,
00:08.8,0.001081467,-0.002466202,0.007249832,0,
00:08.8,0.001087189,-0.002466202,0.007249832,0,
00:08.8,0.001070023,-0.002466202,0.007261276,0,
00:08.8,0.001075745,-0.002454758,0.007289886,0,
00:08.8,0.001087189,-0.002449036,0.007307053,0,
00:08.8,0.001081467,-0.00246048,0.007295609,0,
00:08.8,0.001087189,-0.002466202,0.007284164,0,
00:08.9,0.001075745,-0.00246048,0.007284164,0,
00:08.9,0.001087189,-0.002449036,0.007295609,0,
00:08.9,0.001087189,-0.002449036,0.007318497,0,
00:08.9,0.001075745,-0.002466202,0.007318497,0,
00:08.9,0.001087189,-0.002443314,0.007329941,0,
00:08.9,0.001070023,-0.002471924,0.007335663,0,
00:08.9,0.001070023,-0.00248909,0.007341385,0,
00:08.9,0.001087189,-0.002477646,0.007364273,0,
00:08.9,0.001092911,-0.002471924,0.007369995,0,
00:08.9,0.001092911,-0.002477646,0.007347107,0,
00:08.9,0.001081467,-0.00248909,0.007352829,0,
00:08.9,0.001081467,-0.002477646,0.007375717,0,
00:08.9,0.001087189,-0.002471924,0.007398605,0,
00:08.9,0.001087189,-0.002477646,0.007404327,0,
00:08.9,0.001081467,-0.002500534,0.007404327,0,
00:08.9,0.001087189,-0.002511978,0.007387161,0,
00:08.9,0.001104355,-0.002506256,0.007387161,0,
00:08.9,0.001115799,-0.002483368,0.007415771,0,
00:08.9,0.001104355,-0.002477646,0.007444382,0,
00:08.9,0.001081467,-0.002483368,0.007427216,0,
00:08.9,0.001081467,-0.002483368,0.007404327,0,
00:08.9,0.001087189,-0.002483368,0.007427216,0,
00:08.9,0.001087189,-0.00248909,0.007450104,0,
00:08.9,0.001098633,-0.002477646,0.007444382,0,
00:08.9,0.001115799,-0.002471924,0.007444382,0,
00:09.0,0.001104355,-0.002483368,0.00743866,0,
00:09.0,0.001081467,-0.002500534,0.007450104,0,
00:09.0,0.001087189,-0.00248909,0.007484436,0,
00:09.0,0.001092911,-0.002483368,0.007478714,0,
00:09.0,0.001092911,-0.002500534,0.007472992,0,
00:09.0,0.001075745,-0.002506256,0.00746727,0,
00:09.0,0.001104355,-0.002506256,0.007490158,0,
00:09.0,0.001104355,-0.002494812,0.007501602,0,
00:09.0,0.001110077,-0.002494812,0.007501602,0,
00:09.0,0.001110077,-0.002500534,0.007513046,0,
00:09.0,0.001098633,-0.002494812,0.007490158,0,
00:09.0,0.001098633,-0.00248909,0.007501602,0,
00:00:09,0.001098633,-0.002494812,0.00752449,0,
00:09.0,0.001098633,-0.002500534,0.00752449,0,
00:09.0,0.001115799,-0.002500534,0.00752449,0,
00:09.0,0.001110077,-0.002500534,0.007518768,0,
00:09.0,0.001098633,-0.00248909,0.007518768,0,
00:09.0,0.001104355,-0.00248909,0.00752449,0,
00:09.0,0.001115799,-0.00248909,0.007530212,0,
00:09.0,0.001110077,-0.002494812,0.007541656,0,
00:09.0,0.001087189,-0.002500534,0.007564545,0,
00:09.0,0.001098633,-0.00248909,0.007541656,0,
00:09.0,0.001098633,-0.002471924,0.007535934,0,
00:09.0,0.001110077,-0.00246048,0.007553101,0,
00:09.0,0.001087189,-0.002511978,0.007564545,0,
00:09.1,0.001087189,-0.002523422,0.007575989,0,
00:09.1,0.001098633,-0.002511978,0.007575989,0,
00:09.1,0.001098633,-0.002494812,0.007564545,0,
00:09.1,0.001092911,-0.002494812,0.007570267,0,
00:09.1,0.001092911,-0.002477646,0.007570267,0,
00:09.1,0.001110077,-0.002477646,0.007570267,0,
00:09.1,0.001104355,-0.002500534,0.007581711,0,
00:09.1,0.001110077,-0.002494812,0.007581711,0,
00:09.1,0.001104355,-0.002500534,0.007587433,0,
00:09.1,0.001098633,-0.002500534,0.007598877,0,
00:09.1,0.001092911,-0.002494812,0.007587433,0,
00:09.1,0.001087189,-0.002494812,0.007581711,0,
00:09.1,0.001092911,-0.00248909,0.007593155,0,
00:09.1,0.001098633,-0.00248909,0.007604599,0,
00:09.1,0.001104355,-0.002500534,0.007581711,0,
00:09.1,0.001104355,-0.002506256,0.007575989,0,
00:09.1,0.001098633,-0.002500534,0.007604599,0,
00:09.1,0.001110077,-0.002483368,0.007616043,0,
00:09.1,0.001110077,-0.00246048,0.007616043,0,
00:09.1,0.001110077,-0.002443314,0.007598877,0,
00:09.1,0.001104355,-0.002471924,0.007587433,0,
00:09.1,0.001087189,-0.002511978,0.007598877,0,
00:09.1,0.001104355,-0.002511978,0.007621765,0,
00:09.1,0.001098633,-0.002500534,0.007621765,0,
00:09.1,0.001092911,-0.00248909,0.007610321,0,
00:09.2,0.001104355,-0.00246048,0.007604599,0,
00:09.2,0.001104355,-0.002471924,0.007593155,0,
00:09.2,0.001121521,-0.002494812,0.007604599,0,
00:09.2,0.001104355,-0.002500534,0.007621765,0,
00:09.2,0.001087189,-0.002506256,0.007616043,0,
00:09.2,0.001092911,-0.002494812,0.007610321,0,
00:09.2,0.001098633,-0.002483368,0.007610321,0,
00:09.2,0.001115799,-0.002494812,0.007633209,0,
00:09.2,0.001132965,-0.002500534,0.007621765,0,
00:09.2,0.001092911,-0.002500534,0.007610321,0,
00:09.2,0.001081467,-0.002494812,0.007616043,0,
00:09.2,0.001092911,-0.002494812,0.007627487,0,
00:09.2,0.001098633,-0.002483368,0.007616043,0,
00:09.2,0.001075745,-0.00248909,0.007633209,0,
00:09.2,0.001058578,-0.002494812,0.007627487,0,
00:09.2,0.001075745,-0.00246048,0.007610321,0,
00:09.2,0.001081467,-0.002466202,0.007604599,0,
00:09.2,0.001064301,-0.002494812,0.007633209,0,
00:09.2,0.001064301,-0.00248909,0.007638931,0,
00:09.2,0.001064301,-0.002494812,0.007621765,0,
00:09.2,0.001070023,-0.002494812,0.007616043,0,
00:09.2,0.001070023,-0.00248909,0.007610321,0,
00:09.2,0.001070023,-0.0025177,0.007633209,0,
00:09.2,0.001064301,-0.0025177,0.007633209,0,
00:09.2,0.001070023,-0.002477646,0.007627487,0,
00:09.3,0.001081467,-0.002454758,0.007621765,0,
00:09.3,0.001092911,-0.002449036,0.007627487,0,
00:09.3,0.001092911,-0.002477646,0.007616043,0,
00:09.3,0.001081467,-0.00248909,0.007627487,0,
00:09.3,0.001075745,-0.002494812,0.007633209,0,
00:09.3,0.001070023,-0.002500534,0.007627487,0,
00:09.3,0.001075745,-0.002500534,0.007627487,0,
00:09.3,0.001081467,-0.00248909,0.007610321,0,
00:09.3,0.001087189,-0.002471924,0.007604599,0,
00:09.3,0.001075745,-0.00246048,0.007621765,0,
00:09.3,0.001064301,-0.002449036,0.007616043,0,
00:09.3,0.001052856,-0.00246048,0.007604599,0,
00:09.3,0.001052856,-0.002471924,0.007633209,0,
00:09.3,0.001064301,-0.002471924,0.007644653,0,
00:09.3,0.001058578,-0.002477646,0.007616043,0,
00:09.3,0.001052856,-0.002483368,0.007621765,0,
00:09.3,0.001052856,-0.002471924,0.007627487,0,
00:09.3,0.001064301,-0.002494812,0.007633209,0,
00:09.3,0.001070023,-0.002483368,0.007610321,0,
00:09.3,0.001064301,-0.002483368,0.007616043,0,
00:09.3,0.001058578,-0.002471924,0.007616043,0,
00:09.3,0.001058578,-0.002466202,0.007610321,0,
00:09.3,0.001064301,-0.002466202,0.007621765,0,
00:09.3,0.001064301,-0.002471924,0.007610321,0,
00:09.3,0.001052856,-0.002483368,0.007610321,0,
00:09.4,0.001041412,-0.00248909,0.007610321,0,
00:09.4,0.001029968,-0.00248909,0.007610321,0,
00:09.4,0.001024246,-0.002477646,0.007633209,0,
00:09.4,0.00103569,-0.002471924,0.007621765,0,
00:09.4,0.001047134,-0.002483368,0.007616043,0,
00:09.4,0.00103569,-0.002506256,0.007604599,0,
00:09.4,0.001029968,-0.002477646,0.007598877,0,
00:09.4,0.001041412,-0.002437592,0.007598877,0,
00:09.4,0.001029968,-0.002454758,0.007593155,0,
00:09.4,0.001018524,-0.00248909,0.007604599,0,
00:09.4,0.00103569,-0.002483368,0.007621765,0,
00:09.4,0.00103569,-0.002483368,0.007621765,0,
00:09.4,0.001018524,-0.002477646,0.007627487,0,
00:09.4,0.001012802,-0.002466202,0.007621765,0,
00:09.4,0.00100708,-0.002477646,0.007616043,0,
00:09.4,0.00100708,-0.002483368,0.007610321,0,
00:09.4,0.001012802,-0.002477646,0.007610321,0,
00:09.4,0.001018524,-0.002471924,0.007616043,0,
00:09.4,0.001012802,-0.002494812,0.007610321,0,
00:09.4,0.000995636,-0.002500534,0.007616043,0,
00:09.4,0.001018524,-0.002494812,0.007627487,0,
00:09.4,0.00100708,-0.00248909,0.007610321,0,
00:09.4,0.000995636,-0.00248909,0.007593155,0,
00:09.4,0.00100708,-0.002483368,0.007616043,0,
00:09.4,0.001001358,-0.002506256,0.007610321,0,
00:09.5,0.000995636,-0.002506256,0.007581711,0,
00:09.5,0.00100708,-0.002506256,0.007581711,0,
00:09.5,0.001018524,-0.002477646,0.007593155,0,
00:09.5,0.000989914,-0.002506256,0.007598877,0,
00:09.5,0.001001358,-0.002511978,0.007610321,0,
00:09.5,0.001001358,-0.002494812,0.007587433,0,
00:09.5,0.001001358,-0.00248909,0.007581711,0,
00:09.5,0.000989914,-0.002511978,0.007581711,0,
00:09.5,0.000989914,-0.002506256,0.007593155,0,
00:09.5,0.001001358,-0.002500534,0.007593155,0,
00:09.5,0.001001358,-0.002494812,0.007598877,0,
00:09.5,0.000989914,-0.002494812,0.007598877,0,
00:09.5,0.000972748,-0.002511978,0.007604599,0,
00:09.5,0.000995636,-0.002494812,0.007593155,0,
00:09.5,0.001001358,-0.00248909,0.007593155,0,
00:09.5,0.000989914,-0.002483368,0.007581711,0,
00:09.5,0.000984192,-0.002483368,0.007581711,0,
00:09.5,0.000967026,-0.002500534,0.007587433,0,
00:09.5,0.00097847,-0.002494812,0.007581711,0,
00:09.5,0.000995636,-0.00248909,0.007570267,0,
00:09.5,0.001001358,-0.002483368,0.007564545,0,
00:09.5,0.00097847,-0.002500534,0.007558823,0,
00:09.5,0.00097847,-0.002494812,0.007575989,0,
00:09.5,0.000989914,-0.002483368,0.007570267,0,
00:09.5,0.000972748,-0.0025177,0.007564545,0,
00:09.6,0.000972748,-0.002511978,0.007553101,0,
00:09.6,0.00097847,-0.002523422,0.007558823,0,
00:09.6,0.00097847,-0.002511978,0.007570267,0,
00:09.6,0.000961304,-0.002500534,0.007581711,0,
00:09.6,0.000961304,-0.002506256,0.007570267,0,
00:09.6,0.000967026,-0.002500534,0.007564545,0,
00:09.6,0.000972748,-0.002500534,0.007581711,0,
00:09.6,0.000972748,-0.002523422,0.007587433,0,
00:09.6,0.000972748,-0.002523422,0.007587433,0,
00:09.6,0.000984192,-0.002529144,0.007558823,0,
00:09.6,0.000984192,-0.002511978,0.007547379,0,
00:09.6,0.000984192,-0.002500534,0.007570267,0,
00:09.6,0.000972748,-0.002511978,0.007581711,0,
00:09.6,0.000967026,-0.002511978,0.007570267,0,
00:09.6,0.000967026,-0.002511978,0.007564545,0,
00:09.6,0.000961304,-0.002511978,0.007564545,0,
00:09.6,0.000972748,-0.002500534,0.007570267,0,
00:09.6,0.000989914,-0.002500534,0.007558823,0,
00:09.6,0.000967026,-0.002523422,0.007553101,0,
00:09.6,0.00094986,-0.002523422,0.007541656,0,
00:09.6,0.000967026,-0.002494812,0.007547379,0,
00:09.6,0.000984192,-0.002494812,0.007541656,0,
00:09.6,0.000944138,-0.00254631,0.007564545,0,
00:09.6,0.000938416,-0.00254631,0.007564545,0,
00:09.6,0.000955582,-0.002534866,0.007570267,0,
00:09.7,0.000972748,-0.002529144,0.007553101,0,
00:09.7,0.00097847,-0.002511978,0.007547379,0,
00:09.7,0.000972748,-0.002529144,0.007564545,0,
00:09.7,0.000944138,-0.002552032,0.007558823,0,
00:09.7,0.000955582,-0.002552032,0.007547379,0,
00:09.7,0.000972748,-0.00254631,0.007535934,0,
00:09.7,0.000967026,-0.002552032,0.007535934,0,
00:09.7,0.000967026,-0.002552032,0.007558823,0,
00:09.7,0.000972748,-0.002552032,0.007553101,0,
00:09.7,0.000967026,-0.002552032,0.007553101,0,
00:09.7,0.000961304,-0.002563477,0.00752449,0,
00:09.7,0.000967026,-0.002563477,0.007530212,0,
00:09.7,0.000972748,-0.002552032,0.007547379,0,
00:09.7,0.000961304,-0.002540588,0.007564545,0,
00:09.7,0.000961304,-0.002534866,0.007553101,0,
00:09.7,0.000967026,-0.002540588,0.00752449,0,
00:09.7,0.00097847,-0.002529144,0.007530212,0,
00:09.7,0.000967026,-0.002540588,0.007553101,0,
00:09.7,0.00094986,-0.00254631,0.007547379,0,
00:09.7,0.000955582,-0.002552032,0.007547379,0,
00:09.7,0.000961304,-0.002557755,0.007541656,0,
00:09.7,0.000967026,-0.002563477,0.007541656,0,
00:09.7,0.000961304,-0.002563477,0.007547379,0,
00:09.7,0.000961304,-0.002557755,0.007547379,0,
00:09.7,0.000967026,-0.002552032,0.007535934,0,
00:09.8,0.000967026,-0.002552032,0.00752449,0,
00:09.8,0.000972748,-0.002563477,0.007513046,0,
00:09.8,0.000972748,-0.002563477,0.007513046,0,
00:09.8,0.000961304,-0.002574921,0.00752449,0,
00:09.8,0.00094986,-0.002586365,0.00752449,0,
00:09.8,0.00094986,-0.002586365,0.00752449,0,
00:09.8,0.000967026,-0.002574921,0.007535934,0,
00:09.8,0.000955582,-0.002552032,0.007530212,0,
00:09.8,0.000944138,-0.002563477,0.007513046,0,
00:09.8,0.000944138,-0.002563477,0.007530212,0,
00:09.8,0.000961304,-0.002557755,0.00752449,0,
00:09.8,0.000961304,-0.002552032,0.00752449,0,
00:09.8,0.000961304,-0.00254631,0.007530212,0,
00:09.8,0.000938416,-0.002586365,0.007541656,0,
00:09.8,0.000938416,-0.002609253,0.007530212,0,
00:09.8,0.00094986,-0.002580643,0.007530212,0,
00:09.8,0.000944138,-0.002569199,0.007530212,0,
00:09.8,0.000955582,-0.00254631,0.007518768,0,
00:09.8,0.00094986,-0.002563477,0.007507324,0,
00:09.8,0.000944138,-0.002592087,0.00752449,0,
00:09.8,0.000955582,-0.002586365,0.00752449,0,
00:09.8,0.000961304,-0.002586365,0.007513046,0,
00:09.8,0.00094986,-0.002592087,0.007507324,0,
00:09.8,0.000961304,-0.002580643,0.00752449,0,
00:09.8,0.000972748,-0.002569199,0.007513046,0,
00:09.9,0.000972748,-0.002569199,0.007490158,0,
00:09.9,0.000972748,-0.002574921,0.007507324,0,
00:09.9,0.000967026,-0.002580643,0.00752449,0,
00:09.9,0.000955582,-0.002580643,0.007530212,0,
00:09.9,0.000955582,-0.002574921,0.007513046,0,
00:09.9,0.000967026,-0.002552032,0.007501602,0,
00:09.9,0.000961304,-0.002557755,0.007501602,0,
00:09.9,0.00094986,-0.002563477,0.00752449,0,
00:09.9,0.000944138,-0.002592087,0.007547379,0,
00:09.9,0.00094986,-0.002597809,0.007535934,0,
00:09.9,0.000938416,-0.002574921,0.007513046,0,
00:09.9,0.000938416,-0.002592087,0.007530212,0,
00:09.9,0.00094986,-0.002580643,0.007541656,0,
00:09.9,0.000955582,-0.002580643,0.007535934,0,
00:09.9,0.000944138,-0.002580643,0.007530212,0,
00:09.9,0.000955582,-0.002586365,0.007547379,0,
00:09.9,0.000961304,-0.002586365,0.007553101,0,
00:09.9,0.000955582,-0.002586365,0.007553101,0,
00:09.9,0.000938416,-0.002592087,0.007541656,0,
00:09.9,0.000932693,-0.002597809,0.007553101,0,
00:09.9,0.00094986,-0.002580643,0.007530212,0,
00:09.9,0.000967026,-0.002563477,0.007541656,0,
00:09.9,0.000984192,-0.002534866,0.007553101,0,
00:09.9,0.00097847,-0.002540588,0.007553101,0,
00:09.9,0.000932693,-0.002586365,0.007558823,0,
00:10.0,0.000926971,-0.002592087,0.007553101,0,
00:10.0,0.00094986,-0.002574921,0.007564545,0,
00:10.0,0.00094986,-0.002557755,0.007570267,0,
00:10.0,0.000961304,-0.00254631,0.007558823,0,
00:10.0,0.00097847,-0.002540588,0.007558823,0,
00:10.0,0.000955582,-0.002569199,0.007541656,0,
00:10.0,0.000961304,-0.002552032,0.007547379,0,
00:10.0,0.000944138,-0.002569199,0.007558823,0,
00:10.0,0.000938416,-0.002580643,0.007593155,0,
00:10.0,0.000944138,-0.002592087,0.007581711,0,
00:10.0,0.000938416,-0.002597809,0.007575989,0,
00:10.0,0.000938416,-0.002592087,0.007581711,0,
00:00:10,0.000944138,-0.002574921,0.007575989,0,
00:10.0,0.000955582,-0.002552032,0.007564545,0,
00:10.0,0.000944138,-0.002552032,0.007570267,0,
00:10.0,0.00094986,-0.002563477,0.007564545,0,
00:10.0,0.000967026,-0.002563477,0.007570267,0,
00:10.0,0.000961304,-0.002563477,0.007587433,0,
00:10.0,0.00094986,-0.002574921,0.007593155,0,
00:10.0,0.000944138,-0.002580643,0.007581711,0,
00:10.0,0.00094986,-0.002586365,0.007587433,0,
00:10.0,0.000961304,-0.002574921,0.007604599,0,
00:10.0,0.000961304,-0.002580643,0.007604599,0,
00:10.0,0.000944138,-0.002574921,0.007581711,0,
00:10.0,0.000944138,-0.002563477,0.007570267,0,
00:10.1,0.000944138,-0.002552032,0.007587433,0,
00:10.1,0.00094986,-0.002552032,0.007598877,0,
00:10.1,0.00094986,-0.002574921,0.007604599,0,
