Elapsed_Time,EMG1,EMG2,EMG3,BioRadio Event,Unnamed: 5
00:00:00,0.001596451,-0.004743576,0.00878334,0,
00:00.0,0.001602173,-0.00475502,0.008766174,0,
00:00.0,0.001602173,-0.004749298,0.00878334,0,
00:00.0,0.001602173,-0.00472641,0.008771896,0,
00:00.0,0.001619339,-0.004709244,0.00875473,0,
00:00.0,0.001602173,-0.004714966,0.00875473,0,
00:00.0,0.001602173,-0.004737854,0.008760452,0,
00:00.0,0.001602173,-0.00472641,0.008771896,0,
00:00.0,0.001607895,-0.004714966,0.008760452,0,
00:00.0,0.001596451,-0.004737854,0.008800507,0,
00:00.0,0.001579285,-0.004743576,0.008749008,0,
00:00.0,0.001585007,-0.00475502,0.008743286,0,
00:00.0,0.001602173,-0.004760742,0.008777618,0,
00:00.1,0.001607895,-0.004732132,0.008760452,0,
00:00.1,0.001613617,-0.004709244,0.008737564,0,
00:00.1,0.001625061,-0.004703522,0.008749008,0,
00:00.1,0.001607895,-0.004732132,0.00878334,0,
00:00.1,0.001602173,-0.004737854,0.008794785,0,
00:00.1,0.001607895,-0.004760742,0.008743286,0,
00:00.1,0.001613617,-0.004749298,0.00875473,0,
00:00.1,0.001613617,-0.004737854,0.008749008,0,
00:00.1,0.001613617,-0.004737854,0.00875473,0,
00:00.1,0.001607895,-0.004720688,0.00875473,0,
00:00.1,0.001596451,-0.004720688,0.008789063,0,
00:00.1,0.001625061,-0.004703522,0.008749008,0,
00:00.1,0.001636505,-0.004709244,0.008686066,0,
00:00.1,0.001579285,-0.004743576,0.008743286,0,
00:00.1,0.001596451,-0.004737854,0.008817673,0,
00:00.1,0.001607895,-0.004720688,0.008743286,0,
00:00.1,0.001607895,-0.004732132,0.008714676,0,
00:00.1,0.001607895,-0.004732132,0.008749008,0,
00:00.1,0.001625061,-0.00472641,0.008743286,0,
00:00.1,0.001596451,-0.004737854,0.008760452,0,
00:00.1,0.001607895,-0.004743576,0.008760452,0,
00:00.1,0.001636505,-0.00472641,0.008720398,0,
00:00.1,0.001642227,-0.004709244,0.008703232,0,
00:00.1,0.001596451,-0.004720688,0.00875473,0,
00:00.1,0.001607895,-0.004737854,0.008760452,0,
00:00.2,0.001613617,-0.004737854,0.00872612,0,
00:00.2,0.001630783,-0.004732132,0.008714676,0,
00:00.2,0.001590729,-0.004732132,0.008737564,0,
00:00.2,0.001625061,-0.004714966,0.008743286,0,
00:00.2,0.001636505,-0.0046978,0.008720398,0,
00:00.2,0.001613617,-0.004720688,0.008766174,0,
00:00.2,0.001596451,-0.00472641,0.00872612,0,
00:00.2,0.001590729,-0.00472641,0.008720398,0,
00:00.2,0.001613617,-0.00472641,0.008720398,0,
00:00.2,0.001602173,-0.004714966,0.008737564,0,
00:00.2,0.001607895,-0.004714966,0.008703232,0,
00:00.2,0.001630783,-0.004714966,0.008714676,0,
00:00.2,0.001613617,-0.004720688,0.008743286,0,
00:00.2,0.001619339,-0.004709244,0.008749008,0,
00:00.2,0.001625061,-0.004732132,0.00869751,0,
00:00.2,0.001596451,-0.00475502,0.008703232,0,
00:00.2,0.001579285,-0.004743576,0.008777618,0,
00:00.2,0.001613617,-0.00472641,0.008743286,0,
00:00.2,0.001653671,-0.004714966,0.008703232,0,
00:00.2,0.001625061,-0.004709244,0.008674622,0,
00:00.2,0.001602173,-0.00472641,0.008731842,0,
00:00.2,0.001585007,-0.004743576,0.00872612,0,
00:00.2,0.001596451,-0.004749298,0.008737564,0,
00:00.2,0.001625061,-0.004714966,0.008703232,0,
00:00.2,0.001619339,-0.004720688,0.008663177,0,
00:00.3,0.001602173,-0.00472641,0.008708954,0,
00:00.3,0.001619339,-0.004709244,0.008731842,0,
00:00.3,0.001630783,-0.004709244,0.008703232,0,
00:00.3,0.001607895,-0.004720688,0.008680344,0,
00:00.3,0.001625061,-0.00472641,0.008714676,0,
00:00.3,0.001625061,-0.004737854,0.008691788,0,
00:00.3,0.001607895,-0.00472641,0.008691788,0,
00:00.3,0.001607895,-0.004714966,0.008737564,0,
00:00.3,0.001647949,-0.004709244,0.00869751,0,
00:00.3,0.001619339,-0.00472641,0.00869751,0,
00:00.3,0.001602173,-0.004737854,0.008731842,0,
00:00.3,0.001602173,-0.004720688,0.008720398,0,
00:00.3,0.001613617,-0.004720688,0.008686066,0,
00:00.3,0.001642227,-0.004732132,0.008651733,0,
00:00.3,0.001613617,-0.004732132,0.00869751,0,
00:00.3,0.001596451,-0.004737854,0.008703232,0,
00:00.3,0.001613617,-0.004749298,0.0086689,0,
00:00.3,0.001607895,-0.004749298,0.008640289,0,
00:00.3,0.001607895,-0.004743576,0.008720398,0,
00:00.3,0.001625061,-0.004737854,0.00869751,0,
00:00.3,0.001602173,-0.004737854,0.00869751,0,
00:00.3,0.001590729,-0.004760742,0.008714676,0,
00:00.3,0.001590729,-0.004772186,0.008691788,0,
00:00.3,0.001625061,-0.004737854,0.008674622,0,
00:00.3,0.001607895,-0.004732132,0.0086689,0,
00:00.4,0.001607895,-0.00472641,0.008703232,0,
00:00.4,0.001625061,-0.00472641,0.0086689,0,
00:00.4,0.001619339,-0.004709244,0.008617401,0,
00:00.4,0.001602173,-0.004732132,0.0086689,0,
00:00.4,0.001630783,-0.004732132,0.00869751,0,
00:00.4,0.001590729,-0.004732132,0.008680344,0,
00:00.4,0.001585007,-0.004743576,0.008674622,0,
00:00.4,0.001613617,-0.004737854,0.008640289,0,
00:00.4,0.001602173,-0.004749298,0.008663177,0,
00:00.4,0.001613617,-0.004732132,0.008691788,0,
00:00.4,0.001602173,-0.004737854,0.008674622,0,
00:00.4,0.001602173,-0.004749298,0.008674622,0,
00:00.4,0.001613617,-0.004749298,0.008657455,0,
00:00.4,0.001607895,-0.004732132,0.008674622,0,
00:00.4,0.001602173,-0.004732132,0.008674622,0,
00:00.4,0.001590729,-0.004743576,0.008686066,0,
00:00.4,0.001602173,-0.004749298,0.008651733,0,
00:00.4,0.001596451,-0.004749298,0.008611679,0,
00:00.4,0.001579285,-0.00475502,0.008651733,0,
00:00.4,0.001590729,-0.004760742,0.0086689,0,
00:00.4,0.001636505,-0.004743576,0.008611679,0,
00:00.4,0.001613617,-0.004749298,0.008594513,0,
00:00.4,0.001573563,-0.004760742,0.008657455,0,
00:00.4,0.001590729,-0.00472641,0.008680344,0,
00:00.4,0.001613617,-0.004720688,0.008600235,0,
00:00.5,0.001590729,-0.004749298,0.008623123,0,
00:00.5,0.001602173,-0.00475502,0.0086689,0,
00:00.5,0.001607895,-0.004760742,0.008657455,0,
00:00.5,0.001602173,-0.004760742,0.008617401,0,
00:00.5,0.001585007,-0.004760742,0.008680344,0,
00:00.5,0.001573563,-0.004760742,0.008674622,0,
00:00.5,0.001596451,-0.004760742,0.008634567,0,
00:00.5,0.001590729,-0.004772186,0.008651733,0,
00:00.5,0.001596451,-0.004760742,0.008634567,0,
00:00.5,0.001596451,-0.004743576,0.008634567,0,
00:00.5,0.001573563,-0.004766464,0.008640289,0,
00:00.5,0.001573563,-0.004772186,0.008623123,0,
00:00.5,0.001607895,-0.004760742,0.008611679,0,
00:00.5,0.001602173,-0.00475502,0.008588791,0,
00:00.5,0.001573563,-0.004772186,0.008611679,0,
00:00.5,0.001562119,-0.004760742,0.0086689,0,
00:00.5,0.001596451,-0.00475502,0.008611679,0,
00:00.5,0.001596451,-0.004766464,0.008571625,0,
00:00.5,0.001596451,-0.004777908,0.008686066,0,
00:00.5,0.001619339,-0.004795074,0.008663177,0,
00:00.5,0.001590729,-0.004795074,0.008634567,0,
00:00.5,0.001579285,-0.004777908,0.008646011,0,
00:00.5,0.001567841,-0.004772186,0.008640289,0,
00:00.5,0.001579285,-0.004772186,0.008646011,0,
00:00.5,0.001573563,-0.004777908,0.008657455,0,
00:00.6,0.001573563,-0.004772186,0.008691788,0,
00:00.6,0.001585007,-0.004772186,0.008651733,0,
00:00.6,0.001590729,-0.004777908,0.008588791,0,
00:00.6,0.001567841,-0.00478363,0.008617401,0,
00:00.6,0.001596451,-0.004760742,0.0086689,0,
00:00.6,0.001590729,-0.004766464,0.008623123,0,
00:00.6,0.001562119,-0.004772186,0.008611679,0,
00:00.6,0.001579285,-0.004760742,0.008657455,0,
00:00.6,0.001567841,-0.004800797,0.008634567,0,
00:00.6,0.001579285,-0.004823685,0.0086689,0,
00:00.6,0.001573563,-0.004817963,0.008651733,0,
00:00.6,0.001590729,-0.004789352,0.008651733,0,
00:00.6,0.001590729,-0.004772186,0.008634567,0,
00:00.6,0.001550674,-0.004789352,0.008651733,0,
00:00.6,0.001544952,-0.004812241,0.008640289,0,
00:00.6,0.001567841,-0.004817963,0.008657455,0,
00:00.6,0.001567841,-0.004789352,0.008657455,0,
00:00.6,0.001567841,-0.00478363,0.008640289,0,
00:00.6,0.001567841,-0.004800797,0.008646011,0,
00:00.6,0.001562119,-0.004800797,0.008646011,0,
00:00.6,0.001562119,-0.004823685,0.008703232,0,
00:00.6,0.001562119,-0.004817963,0.008703232,0,
00:00.6,0.001556396,-0.004806519,0.008657455,0,
00:00.6,0.001579285,-0.004777908,0.008594513,0,
00:00.6,0.001562119,-0.004772186,0.008640289,0,
00:00.7,0.001579285,-0.00478363,0.008686066,0,
00:00.7,0.001544952,-0.004806519,0.008674622,0,
00:00.7,0.001533508,-0.004817963,0.008714676,0,
00:00.7,0.00153923,-0.004817963,0.008720398,0,
00:00.7,0.00153923,-0.004817963,0.008691788,0,
00:00.7,0.001544952,-0.004817963,0.008634567,0,
00:00.7,0.001567841,-0.004829407,0.008617401,0,
00:00.7,0.00153923,-0.004835129,0.008674622,0,
00:00.7,0.00153923,-0.004823685,0.008743286,0,
00:00.7,0.001527786,-0.004829407,0.008789063,0,
00:00.7,0.001527786,-0.004829407,0.008731842,0,
00:00.7,0.001556396,-0.004806519,0.008680344,0,
00:00.7,0.00153923,-0.004852295,0.008674622,0,
00:00.7,0.001527786,-0.004869461,0.00872612,0,
00:00.7,0.001522064,-0.004835129,0.008731842,0,
00:00.7,0.001522064,-0.004806519,0.00872612,0,
00:00.7,0.001522064,-0.004812241,0.00872612,0,
00:00.7,0.001533508,-0.004829407,0.008720398,0,
00:00.7,0.001533508,-0.004846573,0.008703232,0,
00:00.7,0.001522064,-0.004840851,0.008691788,0,
00:00.7,0.00153923,-0.004829407,0.008708954,0,
00:00.7,0.001493454,-0.004852295,0.008794785,0,
00:00.7,0.001476288,-0.004852295,0.008800507,0,
00:00.7,0.00151062,-0.004846573,0.008766174,0,
00:00.7,0.001522064,-0.004835129,0.008777618,0,
00:00.8,0.001499176,-0.004840851,0.008777618,0,
00:00.8,0.001516342,-0.004840851,0.008749008,0,
00:00.8,0.001516342,-0.004846573,0.008731842,0,
00:00.8,0.001504898,-0.004863739,0.008731842,0,
00:00.8,0.001470566,-0.004869461,0.008817673,0,
00:00.8,0.001487732,-0.004852295,0.008811951,0,
00:00.8,0.001493454,-0.004846573,0.008760452,0,
00:00.8,0.00148201,-0.004880905,0.008800507,0,
00:00.8,0.001499176,-0.004886627,0.008789063,0,
00:00.8,0.001504898,-0.004869461,0.008789063,0,
00:00.8,0.0014534,-0.004863739,0.008823395,0,
00:00.8,0.001476288,-0.004886627,0.008829117,0,
00:00.8,0.001504898,-0.004875183,0.008811951,0,
00:00.8,0.00148201,-0.004852295,0.008823395,0,
00:00.8,0.001470566,-0.004852295,0.008886337,0,
00:00.8,0.001476288,-0.004858017,0.008892059,0,
00:00.8,0.00148201,-0.004875183,0.008857727,0,
00:00.8,0.001470566,-0.004869461,0.008806229,0,
00:00.8,0.0014534,-0.004880905,0.008857727,0,
00:00.8,0.001447678,-0.004886627,0.00892067,0,
00:00.8,0.001436234,-0.004880905,0.008897781,0,
00:00.8,0.001441956,-0.004880905,0.008903503,0,
00:00.8,0.001476288,-0.004863739,0.008874893,0,
00:00.8,0.001464844,-0.004875183,0.008863449,0,
00:00.8,0.0014534,-0.004886627,0.008886337,0,
00:00.9,0.0014534,-0.004880905,0.008880615,0,
00:00.9,0.001436234,-0.004903793,0.008909225,0,
00:00.9,0.001436234,-0.004920959,0.008886337,0,
00:00.9,0.001430511,-0.004915237,0.008943558,0,
00:00.9,0.001430511,-0.004898071,0.00894928,0,
00:00.9,0.001436234,-0.004886627,0.008955002,0,
00:00.9,0.001441956,-0.004880905,0.008892059,0,
00:00.9,0.001419067,-0.004892349,0.008960724,0,
00:00.9,0.001401901,-0.004909515,0.00903511,0,
00:00.9,0.001413345,-0.004903793,0.008995056,0,
00:00.9,0.001430511,-0.004903793,0.008972168,0,
00:00.9,0.001407623,-0.004920959,0.00897789,0,
00:00.9,0.001413345,-0.004932404,0.008989334,0,
00:00.9,0.001419067,-0.004920959,0.009017944,0,
00:00.9,0.001436234,-0.004898071,0.008995056,0,
00:00.9,0.001407623,-0.004915237,0.008995056,0,
00:00.9,0.001396179,-0.004920959,0.009000778,0,
00:00.9,0.001390457,-0.004909515,0.009040833,0,
00:00.9,0.001413345,-0.004903793,0.009069443,0,
00:00.9,0.001396179,-0.004915237,0.009063721,0,
00:00.9,0.001390457,-0.004926682,0.009063721,0,
00:00.9,0.001407623,-0.004920959,0.009040833,0,
00:00.9,0.001390457,-0.004909515,0.00903511,0,
00:00.9,0.001396179,-0.004898071,0.009017944,0,
00:00.9,0.001401901,-0.004915237,0.009098053,0,
00:01.0,0.001390457,-0.004920959,0.009143829,0,
00:01.0,0.001390457,-0.004909515,0.009109497,0,
00:01.0,0.001373291,-0.004909515,0.009086609,0,
00:01.0,0.001367569,-0.004909515,0.009120941,0,
00:01.0,0.001384735,-0.004920959,0.009120941,0,
00:01.0,0.001373291,-0.004915237,0.009126663,0,
00:01.0,0.001390457,-0.004920959,0.009155273,0,
00:01.0,0.001367569,-0.004926682,0.009138107,0,
00:01.0,0.001356125,-0.004938126,0.009143829,0,
00:01.0,0.001361847,-0.004915237,0.009195328,0,
00:01.0,0.001367569,-0.004915237,0.009143829,0,
00:01.0,0.001356125,-0.004920959,0.00920105,0,
00:00:01,0.001344681,-0.004932404,0.009212494,0,
00:01.0,0.001344681,-0.004932404,0.009206772,0,
00:01.0,0.001361847,-0.004926682,0.009183884,0,
00:01.0,0.001356125,-0.004909515,0.009218216,0,
00:01.0,0.001344681,-0.004926682,0.009206772,0,
00:01.0,0.001361847,-0.004938126,0.009195328,0,
00:01.0,0.001361847,-0.004926682,0.009195328,0,
00:01.0,0.001316071,-0.004903793,0.009309769,0,
00:01.0,0.001327515,-0.004909515,0.009304047,0,
00:01.0,0.001333237,-0.004920959,0.009263992,0,
00:01.0,0.001338959,-0.004926682,0.009246826,0,
00:01.0,0.001356125,-0.004926682,0.009246826,0,
00:01.0,0.001344681,-0.004915237,0.009315491,0,
00:01.1,0.001310349,-0.004938126,0.009326935,0,
00:01.1,0.001316071,-0.004938126,0.009304047,0,
00:01.1,0.001338959,-0.004926682,0.00925827,0,
00:01.1,0.001321793,-0.004932404,0.009338379,0,
00:01.1,0.001321793,-0.004932404,0.009378433,0,
00:01.1,0.001327515,-0.004909515,0.009332657,0,
00:01.1,0.001338959,-0.004920959,0.009309769,0,
00:01.1,0.001321793,-0.00494957,0.009292603,0,
00:01.1,0.001327515,-0.004943848,0.009355545,0,
00:01.1,0.001333237,-0.004926682,0.009395599,0,
00:01.1,0.001281738,-0.00494957,0.009435654,0,
00:01.1,0.001293182,-0.004943848,0.009395599,0,
00:01.1,0.001304626,-0.004932404,0.009384155,0,
00:01.1,0.001298904,-0.004943848,0.009401321,0,
00:01.1,0.001333237,-0.004938126,0.009407043,0,
00:01.1,0.001321793,-0.004943848,0.009378433,0,
00:01.1,0.001333237,-0.004943848,0.009378433,0,
00:01.1,0.001304626,-0.004938126,0.009401321,0,
00:01.1,0.001281738,-0.004943848,0.009464264,0,
00:01.1,0.001304626,-0.004955292,0.009464264,0,
00:01.1,0.001304626,-0.004938126,0.009447098,0,
00:01.1,0.001316071,-0.004932404,0.009407043,0,
00:01.1,0.001327515,-0.004926682,0.00942421,0,
00:01.1,0.001298904,-0.004943848,0.009492874,0,
00:01.1,0.001304626,-0.004943848,0.009515762,0,
00:01.2,0.001304626,-0.004938126,0.00951004,0,
00:01.2,0.001298904,-0.004938126,0.009492874,0,
00:01.2,0.001310349,-0.004943848,0.009458542,0,
00:01.2,0.001298904,-0.004955292,0.009504318,0,
00:01.2,0.001310349,-0.004943848,0.009550095,0,
00:01.2,0.001316071,-0.004926682,0.009504318,0,
00:01.2,0.001316071,-0.004926682,0.009515762,0,
00:01.2,0.001304626,-0.004955292,0.009544373,0,
00:01.2,0.001316071,-0.004961014,0.009527206,0,
00:01.2,0.001316071,-0.004943848,0.009521484,0,
00:01.2,0.001298904,-0.004915237,0.009532928,0,
00:01.2,0.001304626,-0.004926682,0.009595871,0,
00:01.2,0.001298904,-0.004943848,0.009555817,0,
00:01.2,0.001310349,-0.004926682,0.009572983,0,
00:01.2,0.001321793,-0.004920959,0.009527206,0,
00:01.2,0.001316071,-0.004920959,0.009567261,0,
00:01.2,0.001293182,-0.00494957,0.009624481,0,
00:01.2,0.001310349,-0.004961014,0.009624481,0,
00:01.2,0.001321793,-0.004943848,0.009584427,0,
00:01.2,0.001304626,-0.004926682,0.009572983,0,
00:01.2,0.001310349,-0.004920959,0.009624481,0,
00:01.2,0.001310349,-0.004920959,0.009584427,0,
00:01.2,0.001298904,-0.00494957,0.009595871,0,
00:01.2,0.001321793,-0.004955292,0.009653091,0,
00:01.2,0.001310349,-0.004955292,0.009647369,0,
00:01.3,0.001327515,-0.00494957,0.009618759,0,
00:01.3,0.001310349,-0.004961014,0.009601593,0,
00:01.3,0.001304626,-0.004932404,0.009635925,0,
00:01.3,0.001333237,-0.004926682,0.009664536,0,
00:01.3,0.001316071,-0.004932404,0.009624481,0,
00:01.3,0.001310349,-0.004926682,0.009613037,0,
00:01.3,0.001344681,-0.004926682,0.009635925,0,
00:01.3,0.001321793,-0.004932404,0.009653091,0,
00:01.3,0.001298904,-0.004915237,0.009716034,0,
00:01.3,0.001321793,-0.004909515,0.009698868,0,
00:01.3,0.001333237,-0.004920959,0.009624481,0,
00:01.3,0.001327515,-0.004915237,0.009618759,0,
00:01.3,0.001338959,-0.004926682,0.009664536,0,
00:01.3,0.001310349,-0.004938126,0.009693146,0,
00:01.3,0.001310349,-0.004932404,0.009664536,0,
00:01.3,0.001327515,-0.004920959,0.009670258,0,
00:01.3,0.001316071,-0.004926682,0.009693146,0,
00:01.3,0.001327515,-0.004932404,0.009698868,0,
00:01.3,0.001327515,-0.004926682,0.009670258,0,
00:01.3,0.001333237,-0.004926682,0.009681702,0,
00:01.3,0.001333237,-0.004926682,0.00967598,0,
00:01.3,0.001333237,-0.004915237,0.009698868,0,
00:01.3,0.001344681,-0.004898071,0.00967598,0,
00:01.3,0.001310349,-0.004926682,0.009658813,0,
00:01.3,0.001321793,-0.004943848,0.009693146,0,
00:01.4,0.001338959,-0.004926682,0.009721756,0,
00:01.4,0.001327515,-0.004920959,0.009687424,0,
00:01.4,0.001310349,-0.004920959,0.009687424,0,
00:01.4,0.001316071,-0.004915237,0.009698868,0,
00:01.4,0.001321793,-0.004909515,0.009698868,0,
00:01.4,0.001333237,-0.004903793,0.009670258,0,
00:01.4,0.001338959,-0.004926682,0.009647369,0,
00:01.4,0.001327515,-0.004932404,0.00967598,0,
00:01.4,0.001338959,-0.004915237,0.009635925,0,
00:01.4,0.001350403,-0.004915237,0.009664536,0,
00:01.4,0.001321793,-0.004898071,0.009647369,0,
00:01.4,0.001321793,-0.004898071,0.009687424,0,
00:01.4,0.001316071,-0.004915237,0.009710312,0,
00:01.4,0.001304626,-0.004915237,0.009710312,0,
00:01.4,0.001321793,-0.004915237,0.009664536,0,
00:01.4,0.001321793,-0.004932404,0.009630203,0,
00:01.4,0.001316071,-0.004932404,0.009670258,0,
00:01.4,0.001321793,-0.004909515,0.009698868,0,
00:01.4,0.001310349,-0.004915237,0.009664536,0,
00:01.4,0.001338959,-0.004909515,0.009624481,0,
00:01.4,0.001310349,-0.004920959,0.009658813,0,
00:01.4,0.001304626,-0.004915237,0.00970459,0,
00:01.4,0.001321793,-0.004920959,0.00967598,0,
00:01.4,0.001327515,-0.004909515,0.009647369,0,
00:01.4,0.001321793,-0.004909515,0.009607315,0,
00:01.5,0.001333237,-0.004926682,0.009647369,0,
00:01.5,0.001310349,-0.004938126,0.009647369,0,
00:01.5,0.001304626,-0.004938126,0.009653091,0,
00:01.5,0.001333237,-0.004920959,0.009613037,0,
00:01.5,0.001361847,-0.004898071,0.009584427,0,
00:01.5,0.001321793,-0.004903793,0.009590149,0,
00:01.5,0.001293182,-0.004920959,0.009635925,0,
00:01.5,0.001310349,-0.004938126,0.009658813,0,
00:01.5,0.001333237,-0.004938126,0.009624481,0,
00:01.5,0.001327515,-0.004920959,0.009584427,0,
00:01.5,0.001304626,-0.004920959,0.009572983,0,
00:01.5,0.001310349,-0.004932404,0.009595871,0,
00:01.5,0.001310349,-0.004920959,0.009607315,0,
00:01.5,0.001298904,-0.004926682,0.009578705,0,
00:01.5,0.001304626,-0.004909515,0.009595871,0,
00:01.5,0.001310349,-0.004892349,0.009595871,0,
00:01.5,0.001316071,-0.004903793,0.009572983,0,
00:01.5,0.001310349,-0.004932404,0.009538651,0,
00:01.5,0.001316071,-0.004943848,0.009578705,0,
00:01.5,0.001298904,-0.004943848,0.009567261,0,
00:01.5,0.001293182,-0.004920959,0.009515762,0,
00:01.5,0.001327515,-0.004926682,0.009555817,0,
00:01.5,0.001304626,-0.004961014,0.009561539,0,
00:01.5,0.001298904,-0.004943848,0.009561539,0,
00:01.5,0.001316071,-0.004920959,0.009538651,0,
00:01.6,0.001298904,-0.004926682,0.009538651,0,
00:01.6,0.001304626,-0.004909515,0.009521484,0,
00:01.6,0.00128746,-0.004920959,0.009544373,0,
00:01.6,0.001298904,-0.004938126,0.009538651,0,
00:01.6,0.001298904,-0.004926682,0.009498596,0,
00:01.6,0.001298904,-0.004938126,0.00948143,0,
00:01.6,0.001293182,-0.00494957,0.009527206,0,
00:01.6,0.001293182,-0.004938126,0.00948143,0,
00:01.6,0.001281738,-0.004938126,0.009504318,0,
00:01.6,0.001304626,-0.004938126,0.009515762,0,
00:01.6,0.001293182,-0.004943848,0.009475708,0,
00:01.6,0.001281738,-0.00494957,0.009464264,0,
00:01.6,0.00128746,-0.004915237,0.009458542,0,
00:01.6,0.001298904,-0.004909515,0.00948143,0,
00:01.6,0.001298904,-0.004909515,0.009458542,0,
00:01.6,0.001304626,-0.004932404,0.009435654,0,
00:01.6,0.001310349,-0.00494957,0.009395599,0,
00:01.6,0.001270294,-0.004943848,0.00945282,0,
00:01.6,0.001281738,-0.004932404,0.009458542,0,
00:01.6,0.00128746,-0.004926682,0.00945282,0,
00:01.6,0.001316071,-0.004926682,0.009407043,0,
00:01.6,0.001276016,-0.00494957,0.009309769,0,
00:01.6,0.00128746,-0.00494957,0.009458542,0,
00:01.6,0.001304626,-0.004915237,0.00942421,0,
00:01.6,0.001304626,-0.004903793,0.009389877,0,
00:01.7,0.001304626,-0.004903793,0.009361267,0,
00:01.7,0.001276016,-0.004926682,0.009344101,0,
00:01.7,0.00125885,-0.004943848,0.009389877,0,
00:01.7,0.001276016,-0.00494957,0.009372711,0,
00:01.7,0.001281738,-0.004932404,0.009326935,0,
00:01.7,0.00128746,-0.004926682,0.009349823,0,
00:01.7,0.001298904,-0.004920959,0.009309769,0,
00:01.7,0.001293182,-0.004915237,0.009304047,0,
00:01.7,0.001264572,-0.004926682,0.009372711,0,
00:01.7,0.00125885,-0.004926682,0.009344101,0,
00:01.7,0.001281738,-0.004920959,0.009298325,0,
00:01.7,0.001270294,-0.004932404,0.009269714,0,
00:01.7,0.00125885,-0.004943848,0.009315491,0,
00:01.7,0.00125885,-0.004926682,0.00928688,0,
00:01.7,0.001264572,-0.004915237,0.009304047,0,
00:01.7,0.001293182,-0.004915237,0.009269714,0,
00:01.7,0.001281738,-0.004943848,0.00922966,0,
00:01.7,0.001270294,-0.004926682,0.00925827,0,
00:01.7,0.001270294,-0.004926682,0.00928688,0,
00:01.7,0.001293182,-0.004926682,0.00925827,0,
00:01.7,0.001253128,-0.004926682,0.009166718,0,
00:01.7,0.00125885,-0.004926682,0.009189606,0,
00:01.7,0.001235962,-0.004926682,0.009292603,0,
00:01.7,0.00125885,-0.004920959,0.009246826,0,
00:01.7,0.001276016,-0.004909515,0.009212494,0,
00:01.8,0.001253128,-0.004920959,0.009263992,0,
00:01.8,0.001253128,-0.004915237,0.00920105,0,
00:01.8,0.001241684,-0.004920959,0.009178162,0,
00:01.8,0.001264572,-0.004920959,0.009195328,0,
00:01.8,0.00125885,-0.004920959,0.009166718,0,
00:01.8,0.001224518,-0.004920959,0.00920105,0,
00:01.8,0.001241684,-0.004932404,0.009189606,0,
00:01.8,0.00123024,-0.004932404,0.009189606,0,
00:01.8,0.001247406,-0.004915237,0.009166718,0,
00:01.8,0.00123024,-0.004903793,0.009149551,0,
00:01.8,0.00123024,-0.004898071,0.009138107,0,
00:01.8,0.001241684,-0.004903793,0.009132385,0,
00:01.8,0.001241684,-0.004943848,0.009126663,0,
00:01.8,0.001218796,-0.004926682,0.009092331,0,
00:01.8,0.00123024,-0.004909515,0.009126663,0,
00:01.8,0.00123024,-0.004898071,0.009109497,0,
00:01.8,0.001235962,-0.004903793,0.009080887,0,
00:01.8,0.001207352,-0.004943848,0.009052277,0,
00:01.8,0.00120163,-0.004926682,0.009126663,0,
00:01.8,0.001207352,-0.004892349,0.00917244,0,
00:01.8,0.00123024,-0.004886627,0.009115219,0,
00:01.8,0.00120163,-0.004886627,0.009080887,0,
00:01.8,0.00120163,-0.004886627,0.009069443,0,
00:01.8,0.00120163,-0.004892349,0.009103775,0,
00:01.8,0.001207352,-0.004903793,0.009103775,0,
00:01.9,0.001207352,-0.004920959,0.009063721,0,
00:01.9,0.001184464,-0.004915237,0.009023666,0,
00:01.9,0.001207352,-0.004892349,0.009012222,0,
00:01.9,0.001213074,-0.004903793,0.009063721,0,
00:01.9,0.00120163,-0.004898071,0.009069443,0,
00:01.9,0.001178741,-0.004880905,0.009086609,0,
00:01.9,0.001190186,-0.004863739,0.009052277,0,
00:01.9,0.001178741,-0.004880905,0.009040833,0,
00:01.9,0.001190186,-0.004886627,0.009046555,0,
00:01.9,0.001178741,-0.004898071,0.009012222,0,
00:01.9,0.001178741,-0.004909515,0.009029388,0,
00:01.9,0.001195908,-0.004903793,0.008983612,0,
00:01.9,0.001178741,-0.004892349,0.0090065,0,
00:01.9,0.001173019,-0.004880905,0.009046555,0,
00:01.9,0.001173019,-0.004875183,0.009046555,0,
00:01.9,0.001161575,-0.004880905,0.008983612,0,
00:01.9,0.001150131,-0.004869461,0.009040833,0,
00:01.9,0.001161575,-0.004875183,0.00903511,0,
00:01.9,0.001155853,-0.004875183,0.009012222,0,
00:01.9,0.001161575,-0.004880905,0.009017944,0,
00:01.9,0.001161575,-0.004903793,0.008995056,0,
00:01.9,0.001155853,-0.004909515,0.009012222,0,
00:01.9,0.001150131,-0.004903793,0.009012222,0,
00:01.9,0.001161575,-0.004886627,0.008995056,0,
00:01.9,0.001173019,-0.004875183,0.00894928,0,
00:02.0,0.001184464,-0.004863739,0.008966446,0,
00:02.0,0.001150131,-0.004863739,0.009000778,0,
00:02.0,0.001173019,-0.004858017,0.008983612,0,
00:02.0,0.001155853,-0.004886627,0.008995056,0,
00:02.0,0.001144409,-0.004880905,0.008972168,0,
00:02.0,0.001161575,-0.004846573,0.00897789,0,
00:02.0,0.001138687,-0.004875183,0.00894928,0,
00:02.0,0.001144409,-0.004875183,0.009017944,0,
00:02.0,0.001121521,-0.004898071,0.0090065,0,
00:02.0,0.001115799,-0.004886627,0.008995056,0,
00:02.0,0.001127243,-0.004869461,0.008960724,0,
00:02.0,0.001138687,-0.004852295,0.008903503,0,
00:00:02,0.001132965,-0.004852295,0.008937836,0,
00:02.0,0.001115799,-0.004869461,0.009029388,0,
00:02.0,0.001144409,-0.004875183,0.008989334,0,
00:02.0,0.001110077,-0.004875183,0.008960724,0,
00:02.0,0.001138687,-0.004858017,0.00892067,0,
00:02.0,0.001144409,-0.004869461,0.00894928,0,
00:02.0,0.001104355,-0.004886627,0.008995056,0,
00:02.0,0.001098633,-0.004880905,0.009023666,0,
00:02.0,0.001115799,-0.004880905,0.0090065,0,
00:02.0,0.001138687,-0.004875183,0.00892067,0,
00:02.0,0.001115799,-0.004869461,0.00894928,0,
00:02.0,0.001070023,-0.004880905,0.00903511,0,
00:02.0,0.001087189,-0.004875183,0.009017944,0,
00:02.1,0.001115799,-0.004869461,0.008966446,0,
00:02.1,0.001104355,-0.004880905,0.008943558,0,
00:02.1,0.001092911,-0.004892349,0.008966446,0,
00:02.1,0.001098633,-0.004886627,0.009023666,0,
00:02.1,0.001104355,-0.004875183,0.009017944,0,
00:02.1,0.001092911,-0.004892349,0.008983612,0,
00:02.1,0.001087189,-0.004886627,0.008983612,0,
00:02.1,0.001092911,-0.004875183,0.008995056,0,
00:02.1,0.001115799,-0.004869461,0.008995056,0,
00:02.1,0.001098633,-0.004875183,0.008989334,0,
00:02.1,0.001098633,-0.004869461,0.00894928,0,
00:02.1,0.001092911,-0.004869461,0.009000778,0,
00:02.1,0.001064301,-0.004903793,0.008914948,0,
00:02.1,0.001127243,-0.004880905,0.008914948,0,
00:02.1,0.001075745,-0.004880905,0.009080887,0,
00:02.1,0.001098633,-0.004858017,0.00903511,0,
00:02.1,0.001081467,-0.004852295,0.009000778,0,
00:02.1,0.001098633,-0.004852295,0.008955002,0,
00:02.1,0.001087189,-0.004869461,0.00897789,0,
00:02.1,0.001087189,-0.004880905,0.008989334,0,
00:02.1,0.001058578,-0.004898071,0.008983612,0,
00:02.1,0.001087189,-0.004892349,0.009012222,0,
00:02.1,0.001081467,-0.004892349,0.008995056,0,
00:02.1,0.001075745,-0.004886627,0.008989334,0,
00:02.1,0.001064301,-0.004875183,0.008995056,0,
00:02.2,0.001081467,-0.004880905,0.008966446,0,
00:02.2,0.001075745,-0.004875183,0.008960724,0,
00:02.2,0.001081467,-0.004875183,0.008989334,0,
00:02.2,0.001058578,-0.004880905,0.009023666,0,
00:02.2,0.001047134,-0.004898071,0.009029388,0,
00:02.2,0.001052856,-0.004898071,0.00897789,0,
00:02.2,0.001081467,-0.004892349,0.008966446,0,
00:02.2,0.001047134,-0.004875183,0.009012222,0,
00:02.2,0.001047134,-0.004875183,0.009017944,0,
00:02.2,0.001052856,-0.004886627,0.008995056,0,
00:02.2,0.001092911,-0.004869461,0.00892067,0,
00:02.2,0.001081467,-0.004869461,0.008960724,0,
00:02.2,0.001047134,-0.004880905,0.009040833,0,
00:02.2,0.001024246,-0.004898071,0.009063721,0,
00:02.2,0.001018524,-0.004903793,0.009029388,0,
00:02.2,0.001047134,-0.004903793,0.008966446,0,
00:02.2,0.001029968,-0.004903793,0.008966446,0,
00:02.2,0.001024246,-0.004920959,0.009040833,0,
00:02.2,0.001024246,-0.004926682,0.009040833,0,
00:02.2,0.001024246,-0.004915237,0.009046555,0,
00:02.2,0.001064301,-0.004863739,0.009023666,0,
00:02.2,0.001047134,-0.004852295,0.009012222,0,
00:02.2,0.001024246,-0.004880905,0.009052277,0,
00:02.2,0.00103569,-0.004886627,0.009023666,0,
00:02.2,0.001029968,-0.004892349,0.009046555,0,
00:02.3,0.001058578,-0.004875183,0.0090065,0,
00:02.3,0.001029968,-0.004886627,0.00903511,0,
00:02.3,0.001047134,-0.004892349,0.008995056,0,
00:02.3,0.001018524,-0.004909515,0.009012222,0,
00:02.3,0.001024246,-0.004903793,0.009057999,0,
00:02.3,0.001029968,-0.004903793,0.009052277,0,
00:02.3,0.001041412,-0.004892349,0.0090065,0,
00:02.3,0.001029968,-0.004886627,0.008955002,0,
00:02.3,0.001041412,-0.004880905,0.008955002,0,
00:02.3,0.001041412,-0.004886627,0.009092331,0,
00:02.3,0.001024246,-0.004892349,0.009098053,0,
00:02.3,0.00103569,-0.004892349,0.009069443,0,
00:02.3,0.001024246,-0.004898071,0.009017944,0,
00:02.3,0.001018524,-0.004926682,0.009052277,0,
00:02.3,0.001012802,-0.004915237,0.009063721,0,
00:02.3,0.001018524,-0.004886627,0.00903511,0,
00:02.3,0.001024246,-0.004863739,0.009000778,0,
00:02.3,0.001018524,-0.004858017,0.009023666,0,
00:02.3,0.001018524,-0.004886627,0.00903511,0,
00:02.3,0.00103569,-0.004880905,0.00903511,0,
00:02.3,0.00103569,-0.004875183,0.009040833,0,
00:02.3,0.001029968,-0.004886627,0.008989334,0,
00:02.3,0.001029968,-0.004898071,0.008995056,0,
00:02.3,0.001041412,-0.004903793,0.008995056,0,
00:02.3,0.001001358,-0.004920959,0.009052277,0,
00:02.4,0.001001358,-0.004903793,0.009115219,0,
00:02.4,0.001012802,-0.004892349,0.009057999,0,
00:02.4,0.001012802,-0.004892349,0.009040833,0,
00:02.4,0.001024246,-0.004886627,0.009057999,0,
00:02.4,0.000995636,-0.004886627,0.009063721,0,
00:02.4,0.000995636,-0.004898071,0.009029388,0,
00:02.4,0.000995636,-0.004898071,0.009069443,0,
00:02.4,0.000995636,-0.004903793,0.009052277,0,
00:02.4,0.001001358,-0.004915237,0.009080887,0,
00:02.4,0.00100708,-0.004903793,0.009075165,0,
00:02.4,0.000989914,-0.004892349,0.009052277,0,
00:02.4,0.000984192,-0.004892349,0.009052277,0,
00:02.4,0.000984192,-0.004875183,0.009069443,0,
00:02.4,0.001012802,-0.004869461,0.009023666,0,
00:02.4,0.00100708,-0.004886627,0.009040833,0,
00:02.4,0.000989914,-0.004886627,0.009052277,0,
00:02.4,0.001001358,-0.004903793,0.009075165,0,
00:02.4,0.001001358,-0.004898071,0.009080887,0,
00:02.4,0.000984192,-0.004880905,0.009103775,0,
00:02.4,0.000995636,-0.004875183,0.009075165,0,
00:02.4,0.000995636,-0.004880905,0.009120941,0,
00:02.4,0.000961304,-0.004903793,0.009046555,0,
00:02.4,0.00094986,-0.004903793,0.009052277,0,
00:02.4,0.000944138,-0.004903793,0.009126663,0,
00:02.4,0.000961304,-0.004909515,0.009103775,0,
00:02.5,0.000961304,-0.004903793,0.009052277,0,
00:02.5,0.000967026,-0.004898071,0.009092331,0,
00:02.5,0.000972748,-0.004898071,0.009103775,0,
00:02.5,0.000967026,-0.004909515,0.009086609,0,
00:02.5,0.000967026,-0.004903793,0.009098053,0,
00:02.5,0.000967026,-0.004886627,0.009080887,0,
00:02.5,0.000972748,-0.004886627,0.009069443,0,
00:02.5,0.00097847,-0.004892349,0.009098053,0,
00:02.5,0.000967026,-0.004886627,0.009080887,0,
00:02.5,0.000961304,-0.004880905,0.009098053,0,
00:02.5,0.000967026,-0.004886627,0.009126663,0,
00:02.5,0.000938416,-0.004909515,0.009132385,0,
00:02.5,0.000967026,-0.004903793,0.009132385,0,
00:02.5,0.000989914,-0.004898071,0.009126663,0,
00:02.5,0.00094986,-0.004892349,0.009155273,0,
00:02.5,0.00094986,-0.004880905,0.009120941,0,
00:02.5,0.000967026,-0.004869461,0.009098053,0,
00:02.5,0.000961304,-0.004880905,0.009103775,0,
00:02.5,0.000961304,-0.004892349,0.009109497,0,
00:02.5,0.000955582,-0.004886627,0.009115219,0,
00:02.5,0.000961304,-0.004875183,0.009120941,0,
00:02.5,0.00094986,-0.004886627,0.009149551,0,
00:02.5,0.00097847,-0.004892349,0.009120941,0,
00:02.5,0.00097847,-0.004880905,0.009080887,0,
00:02.5,0.000961304,-0.004869461,0.009155273,0,
00:02.6,0.000944138,-0.004869461,0.009143829,0,
00:02.6,0.000967026,-0.004875183,0.009132385,0,
00:02.6,0.000955582,-0.004880905,0.009143829,0,
00:02.6,0.000944138,-0.004875183,0.00920105,0,
00:02.6,0.000944138,-0.004880905,0.009166718,0,
00:02.6,0.000967026,-0.004863739,0.009115219,0,
00:02.6,0.00094986,-0.004875183,0.009155273,0,
00:02.6,0.000961304,-0.004892349,0.00917244,0,
00:02.6,0.000938416,-0.004898071,0.009166718,0,
00:02.6,0.000932693,-0.004898071,0.009155273,0,
00:02.6,0.000955582,-0.004886627,0.00917244,0,
00:02.6,0.000938416,-0.004886627,0.009143829,0,
00:02.6,0.000938416,-0.004875183,0.009166718,0,
00:02.6,0.000961304,-0.004886627,0.009155273,0,
00:02.6,0.000972748,-0.004875183,0.009138107,0,
00:02.6,0.000955582,-0.004869461,0.009149551,0,
00:02.6,0.000921249,-0.004875183,0.009178162,0,
00:02.6,0.000938416,-0.004869461,0.009212494,0,
00:02.6,0.00094986,-0.004863739,0.009178162,0,
00:02.6,0.00094986,-0.004875183,0.009183884,0,
00:02.6,0.00094986,-0.004869461,0.009212494,0,
00:02.6,0.000938416,-0.004863739,0.00917244,0,
00:02.6,0.000944138,-0.004869461,0.009195328,0,
00:02.6,0.000932693,-0.004892349,0.009223938,0,
00:02.6,0.00094986,-0.004880905,0.009218216,0,
00:02.7,0.000955582,-0.004875183,0.009212494,0,
00:02.7,0.000967026,-0.004880905,0.009195328,0,
00:02.7,0.000938416,-0.004875183,0.00920105,0,
00:02.7,0.000926971,-0.004869461,0.00920105,0,
00:02.7,0.000955582,-0.004869461,0.009241104,0,
00:02.7,0.000932693,-0.004869461,0.009235382,0,
00:02.7,0.000921249,-0.004869461,0.009218216,0,
00:02.7,0.000915527,-0.004880905,0.00925827,0,
00:02.7,0.000915527,-0.004875183,0.009246826,0,
00:02.7,0.000915527,-0.004880905,0.00920105,0,
00:02.7,0.000921249,-0.004858017,0.009218216,0,
00:02.7,0.000921249,-0.004846573,0.009252548,0,
00:02.7,0.000926971,-0.004858017,0.009218216,0,
00:02.7,0.000921249,-0.004875183,0.009223938,0,
00:02.7,0.000932693,-0.004863739,0.009218216,0,
00:02.7,0.000944138,-0.004852295,0.009206772,0,
00:02.7,0.000944138,-0.004846573,0.00922966,0,
00:02.7,0.000921249,-0.004858017,0.00922966,0,
00:02.7,0.000932693,-0.004858017,0.009223938,0,
00:02.7,0.00094986,-0.004852295,0.009252548,0,
00:02.7,0.000932693,-0.004846573,0.009298325,0,
00:02.7,0.000921249,-0.004840851,0.009241104,0,
00:02.7,0.000915527,-0.004852295,0.009241104,0,
00:02.7,0.000926971,-0.004863739,0.00925827,0,
00:02.7,0.000909805,-0.004869461,0.009246826,0,
00:02.8,0.000909805,-0.004852295,0.009321213,0,
00:02.8,0.000921249,-0.004840851,0.009281158,0,
00:02.8,0.000909805,-0.004840851,0.009304047,0,
00:02.8,0.000909805,-0.004875183,0.009315491,0,
00:02.8,0.000926971,-0.004875183,0.009281158,0,
00:02.8,0.000926971,-0.004863739,0.009269714,0,
00:02.8,0.000944138,-0.004829407,0.009281158,0,
00:02.8,0.000921249,-0.004840851,0.009275436,0,
00:02.8,0.000926971,-0.004852295,0.009315491,0,
00:02.8,0.000932693,-0.004863739,0.009315491,0,
00:02.8,0.000926971,-0.004863739,0.009315491,0,
00:02.8,0.000926971,-0.004875183,0.009252548,0,
00:02.8,0.000921249,-0.004875183,0.009304047,0,
00:02.8,0.000921249,-0.004852295,0.009326935,0,
00:02.8,0.000926971,-0.004835129,0.009269714,0,
00:02.8,0.000921249,-0.004840851,0.009281158,0,
00:02.8,0.000915527,-0.004840851,0.009309769,0,
00:02.8,0.000961304,-0.004835129,0.009309769,0,
00:02.8,0.000932693,-0.004846573,0.009326935,0,
00:02.8,0.000921249,-0.004858017,0.009338379,0,
00:02.8,0.000904083,-0.004858017,0.009332657,0,
00:02.8,0.000926971,-0.004846573,0.009298325,0,
00:02.8,0.000932693,-0.004835129,0.00928688,0,
00:02.8,0.000921249,-0.004835129,0.009315491,0,
00:02.8,0.000921249,-0.004835129,0.009315491,0,
00:02.9,0.000938416,-0.004835129,0.009263992,0,
00:02.9,0.000938416,-0.004840851,0.009304047,0,
00:02.9,0.000932693,-0.004852295,0.009332657,0,
00:02.9,0.000915527,-0.004846573,0.009361267,0,
00:02.9,0.000915527,-0.004852295,0.009349823,0,
00:02.9,0.000932693,-0.004846573,0.009321213,0,
00:02.9,0.000961304,-0.004835129,0.009315491,0,
00:02.9,0.000944138,-0.004840851,0.009304047,0,
00:02.9,0.000915527,-0.004840851,0.009315491,0,
00:02.9,0.000938416,-0.004835129,0.009338379,0,
00:02.9,0.000926971,-0.004835129,0.009344101,0,
00:02.9,0.000921249,-0.004840851,0.009315491,0,
00:02.9,0.000926971,-0.004852295,0.009292603,0,
00:02.9,0.000921249,-0.004863739,0.009332657,0,
00:02.9,0.000932693,-0.004846573,0.009344101,0,
00:02.9,0.000938416,-0.004835129,0.009389877,0,
00:02.9,0.000967026,-0.004806519,0.009326935,0,
00:02.9,0.000944138,-0.00478363,0.009366989,0,
00:02.9,0.000926971,-0.004806519,0.009338379,0,
00:02.9,0.000944138,-0.004823685,0.009332657,0,
00:02.9,0.000932693,-0.004835129,0.009332657,0,
00:02.9,0.000938416,-0.004823685,0.009315491,0,
00:02.9,0.000909805,-0.004835129,0.009407043,0,
00:02.9,0.000921249,-0.004846573,0.009401321,0,
00:02.9,0.000938416,-0.004852295,0.009372711,0,
00:03.0,0.000938416,-0.004817963,0.009361267,0,
00:03.0,0.00094986,-0.004812241,0.009304047,0,
00:03.0,0.000938416,-0.004817963,0.009349823,0,
00:03.0,0.000926971,-0.004812241,0.00942421,0,
00:03.0,0.000921249,-0.004823685,0.009412766,0,
00:03.0,0.000926971,-0.004817963,0.009378433,0,
00:03.0,0.000944138,-0.004812241,0.009344101,0,
00:03.0,0.000932693,-0.004817963,0.009355545,0,
00:03.0,0.000944138,-0.004823685,0.009395599,0,
00:03.0,0.000944138,-0.004817963,0.009384155,0,
00:03.0,0.000944138,-0.004829407,0.009332657,0,
00:03.0,0.000944138,-0.004840851,0.009384155,0,
00:00:03,0.000944138,-0.004823685,0.009378433,0,
00:03.0,0.000955582,-0.00478363,0.00942421,0,
00:03.0,0.000932693,-0.004789352,0.009401321,0,
00:03.0,0.000932693,-0.004806519,0.009401321,0,
00:03.0,0.000938416,-0.004812241,0.00942421,0,
00:03.0,0.000938416,-0.004800797,0.009401321,0,
00:03.0,0.000955582,-0.004800797,0.009372711,0,
00:03.0,0.000961304,-0.004817963,0.009366989,0,
00:03.0,0.000921249,-0.004840851,0.009429932,0,
00:03.0,0.000944138,-0.004829407,0.009418488,0,
00:03.0,0.000972748,-0.004806519,0.009395599,0,
00:03.0,0.000944138,-0.004812241,0.009412766,0,
00:03.0,0.000944138,-0.004812241,0.009407043,0,
00:03.1,0.000955582,-0.004812241,0.009366989,0,
00:03.1,0.000961304,-0.004806519,0.009435654,0,
00:03.1,0.000955582,-0.004812241,0.009418488,0,
00:03.1,0.000932693,-0.004823685,0.009407043,0,
00:03.1,0.000932693,-0.004823685,0.009407043,0,
00:03.1,0.000972748,-0.004806519,0.009389877,0,
00:03.1,0.000926971,-0.004806519,0.009429932,0,
00:03.1,0.00094986,-0.004795074,0.009418488,0,
00:03.1,0.00094986,-0.004789352,0.009378433,0,
00:03.1,0.000932693,-0.004823685,0.009412766,0,
00:03.1,0.000944138,-0.004823685,0.009435654,0,
00:03.1,0.000961304,-0.004817963,0.009389877,0,
00:03.1,0.000967026,-0.004795074,0.009332657,0,
00:03.1,0.00094986,-0.004777908,0.009395599,0,
00:03.1,0.000915527,-0.004806519,0.00945282,0,
00:03.1,0.00094986,-0.004812241,0.009441376,0,
00:03.1,0.000932693,-0.004817963,0.009378433,0,
00:03.1,0.00094986,-0.004812241,0.009401321,0,
00:03.1,0.000989914,-0.004777908,0.009389877,0,
00:03.1,0.000938416,-0.004795074,0.009412766,0,
00:03.1,0.000938416,-0.004806519,0.00942421,0,
00:03.1,0.000955582,-0.004817963,0.009418488,0,
00:03.1,0.000944138,-0.004806519,0.00945282,0,
00:03.1,0.000938416,-0.004800797,0.009412766,0,
00:03.1,0.000955582,-0.004795074,0.009401321,0,
00:03.2,0.000967026,-0.004800797,0.009378433,0,
00:03.2,0.000926971,-0.004812241,0.00942421,0,
00:03.2,0.000944138,-0.004812241,0.009418488,0,
00:03.2,0.00094986,-0.004812241,0.009464264,0,
00:03.2,0.000967026,-0.004817963,0.009441376,0,
00:03.2,0.000955582,-0.004829407,0.009395599,0,
00:03.2,0.000938416,-0.004812241,0.009395599,0,
00:03.2,0.000967026,-0.004789352,0.009401321,0,
00:03.2,0.000961304,-0.004795074,0.009464264,0,
00:03.2,0.00094986,-0.004800797,0.009447098,0,
00:03.2,0.000967026,-0.004795074,0.009401321,0,
00:03.2,0.00094986,-0.004800797,0.009412766,0,
00:03.2,0.00094986,-0.004812241,0.00942421,0,
00:03.2,0.00097847,-0.004806519,0.009435654,0,
00:03.2,0.000944138,-0.004812241,0.009458542,0,
00:03.2,0.000961304,-0.004812241,0.009412766,0,
00:03.2,0.000926971,-0.004829407,0.009407043,0,
00:03.2,0.000961304,-0.004806519,0.00942421,0,
00:03.2,0.000961304,-0.00478363,0.009487152,0,
00:03.2,0.00094986,-0.004789352,0.009492874,0,
00:03.2,0.00094986,-0.004795074,0.009458542,0,
00:03.2,0.000967026,-0.004800797,0.009435654,0,
00:03.2,0.000972748,-0.004806519,0.009378433,0,
00:03.2,0.000972748,-0.004812241,0.009384155,0,
00:03.2,0.000961304,-0.004795074,0.009458542,0,
00:03.3,0.000967026,-0.004795074,0.009441376,0,
00:03.3,0.00094986,-0.004817963,0.00942421,0,
00:03.3,0.000967026,-0.004829407,0.009418488,0,
00:03.3,0.000961304,-0.004812241,0.009435654,0,
00:03.3,0.000938416,-0.004806519,0.009492874,0,
00:03.3,0.000955582,-0.004795074,0.009464264,0,
00:03.3,0.000972748,-0.004806519,0.009412766,0,
00:03.3,0.000972748,-0.004812241,0.009418488,0,
00:03.3,0.000961304,-0.004823685,0.009464264,0,
00:03.3,0.000961304,-0.004812241,0.009441376,0,
00:03.3,0.000961304,-0.004795074,0.00942421,0,
00:03.3,0.000967026,-0.004795074,0.009429932,0,
00:03.3,0.000944138,-0.004835129,0.009418488,0,
00:03.3,0.00094986,-0.004852295,0.009464264,0,
00:03.3,0.000961304,-0.004840851,0.009447098,0,
00:03.3,0.000961304,-0.004806519,0.009407043,0,
00:03.3,0.000961304,-0.004812241,0.009498596,0,
00:03.3,0.000944138,-0.004817963,0.00945282,0,
00:03.3,0.000972748,-0.004806519,0.00942421,0,
00:03.3,0.00097847,-0.004806519,0.009458542,0,
00:03.3,0.000961304,-0.004823685,0.009475708,0,
00:03.3,0.000961304,-0.004829407,0.009458542,0,
00:03.3,0.000961304,-0.004840851,0.00945282,0,
00:03.3,0.000972748,-0.004823685,0.009464264,0,
00:03.3,0.000955582,-0.004829407,0.009475708,0,
00:03.4,0.000938416,-0.004823685,0.009458542,0,
00:03.4,0.00094986,-0.004823685,0.009475708,0,
00:03.4,0.000967026,-0.004817963,0.009469986,0,
00:03.4,0.000955582,-0.004829407,0.009458542,0,
00:03.4,0.000961304,-0.004806519,0.009475708,0,
00:03.4,0.000967026,-0.004795074,0.009464264,0,
00:03.4,0.000955582,-0.004817963,0.009458542,0,
00:03.4,0.000967026,-0.004812241,0.00942421,0,
00:03.4,0.000972748,-0.004806519,0.009407043,0,
00:03.4,0.000961304,-0.004800797,0.009492874,0,
00:03.4,0.00094986,-0.004812241,0.009487152,0,
00:03.4,0.000938416,-0.004823685,0.009429932,0,
00:03.4,0.000961304,-0.004823685,0.009441376,0,
00:03.4,0.000967026,-0.004812241,0.009475708,0,
00:03.4,0.000961304,-0.004817963,0.00948143,0,
00:03.4,0.000926971,-0.004835129,0.009492874,0,
00:03.4,0.00094986,-0.004846573,0.00945282,0,
00:03.4,0.000967026,-0.004817963,0.009447098,0,
00:03.4,0.000955582,-0.004817963,0.009458542,0,
00:03.4,0.000955582,-0.004817963,0.009469986,0,
00:03.4,0.000955582,-0.004823685,0.009487152,0,
00:03.4,0.000944138,-0.004858017,0.00945282,0,
00:03.4,0.000955582,-0.004852295,0.009469986,0,
00:03.4,0.000995636,-0.004829407,0.009458542,0,
00:03.4,0.001001358,-0.004817963,0.009407043,0,
00:03.5,0.000961304,-0.004817963,0.009487152,0,
00:03.5,0.00094986,-0.004840851,0.009521484,0,
00:03.5,0.000955582,-0.004840851,0.009492874,0,
00:03.5,0.000972748,-0.004823685,0.009498596,0,
00:03.5,0.00094986,-0.004817963,0.009492874,0,
00:03.5,0.000967026,-0.004817963,0.009418488,0,
00:03.5,0.00097847,-0.004812241,0.00945282,0,
00:03.5,0.000989914,-0.004812241,0.009464264,0,
00:03.5,0.00097847,-0.004823685,0.009527206,0,
00:03.5,0.000961304,-0.004835129,0.009532928,0,
00:03.5,0.000961304,-0.004829407,0.00948143,0,
00:03.5,0.000967026,-0.004840851,0.009458542,0,
00:03.5,0.000972748,-0.004852295,0.009469986,0,
00:03.5,0.000961304,-0.004852295,0.009487152,0,
00:03.5,0.000967026,-0.004840851,0.009464264,0,
00:03.5,0.000995636,-0.004823685,0.009487152,0,
00:03.5,0.000984192,-0.004829407,0.009492874,0,
00:03.5,0.000961304,-0.004840851,0.00945282,0,
00:03.5,0.000984192,-0.004840851,0.009492874,0,
00:03.5,0.000995636,-0.004846573,0.009475708,0,
00:03.5,0.000961304,-0.004858017,0.009469986,0,
00:03.5,0.000972748,-0.004840851,0.009498596,0,
00:03.5,0.000972748,-0.004829407,0.009515762,0,
00:03.5,0.000989914,-0.004829407,0.009504318,0,
00:03.5,0.000995636,-0.004823685,0.009435654,0,
00:03.6,0.00097847,-0.004835129,0.009464264,0,
00:03.6,0.000984192,-0.004835129,0.009538651,0,
00:03.6,0.00100708,-0.004846573,0.009441376,0,
00:03.6,0.000989914,-0.004840851,0.009469986,0,
00:03.6,0.000967026,-0.004823685,0.009504318,0,
00:03.6,0.000984192,-0.004823685,0.009498596,0,
00:03.6,0.000984192,-0.004835129,0.009492874,0,
00:03.6,0.00097847,-0.004840851,0.009475708,0,
00:03.6,0.000961304,-0.004846573,0.009492874,0,
00:03.6,0.00100708,-0.004829407,0.00945282,0,
00:03.6,0.000989914,-0.004835129,0.009458542,0,
00:03.6,0.001001358,-0.004858017,0.00948143,0,
00:03.6,0.000972748,-0.004858017,0.00948143,0,
00:03.6,0.000984192,-0.004869461,0.009492874,0,
00:03.6,0.000984192,-0.004880905,0.00948143,0,
00:03.6,0.000972748,-0.004869461,0.00945282,0,
00:03.6,0.001001358,-0.004835129,0.009412766,0,
00:03.6,0.000989914,-0.004817963,0.009475708,0,
00:03.6,0.001001358,-0.004829407,0.009504318,0,
00:03.6,0.001001358,-0.004817963,0.009492874,0,
00:03.6,0.00100708,-0.004835129,0.009429932,0,
00:03.6,0.001024246,-0.004846573,0.009464264,0,
00:03.6,0.000989914,-0.004852295,0.009487152,0,
00:03.6,0.000984192,-0.004858017,0.009527206,0,
00:03.6,0.001001358,-0.004846573,0.00948143,0,
00:03.7,0.00100708,-0.004829407,0.009441376,0,
00:03.7,0.001018524,-0.004823685,0.00945282,0,
00:03.7,0.000989914,-0.004846573,0.009469986,0,
00:03.7,0.00100708,-0.004863739,0.009458542,0,
00:03.7,0.001001358,-0.004863739,0.009469986,0,
00:03.7,0.001001358,-0.004858017,0.00948143,0,
00:03.7,0.000995636,-0.004852295,0.009475708,0,
00:03.7,0.000995636,-0.004858017,0.009475708,0,
00:03.7,0.001012802,-0.004852295,0.009441376,0,
00:03.7,0.001012802,-0.004835129,0.009458542,0,
00:03.7,0.001024246,-0.004812241,0.009464264,0,
00:03.7,0.001029968,-0.004806519,0.009441376,0,
00:03.7,0.00100708,-0.004817963,0.009458542,0,
00:03.7,0.001012802,-0.004812241,0.009407043,0,
00:03.7,0.00103569,-0.004829407,0.009418488,0,
00:03.7,0.00100708,-0.004835129,0.00945282,0,
00:03.7,0.00100708,-0.004846573,0.009447098,0,
00:03.7,0.000989914,-0.004869461,0.00948143,0,
00:03.7,0.001001358,-0.004846573,0.009475708,0,
00:03.7,0.000989914,-0.004835129,0.009447098,0,
00:03.7,0.000989914,-0.004835129,0.009435654,0,
00:03.7,0.00100708,-0.004846573,0.00942421,0,
00:03.7,0.001001358,-0.004846573,0.009412766,0,
00:03.7,0.001012802,-0.004840851,0.009464264,0,
00:03.7,0.001001358,-0.004840851,0.009458542,0,
00:03.8,0.000995636,-0.004835129,0.009418488,0,
00:03.8,0.00100708,-0.004840851,0.009412766,0,
00:03.8,0.000995636,-0.004846573,0.009395599,0,
00:03.8,0.00100708,-0.004846573,0.00942421,0,
00:03.8,0.001024246,-0.004823685,0.009418488,0,
00:03.8,0.000995636,-0.004817963,0.009435654,0,
00:03.8,0.001029968,-0.004806519,0.009378433,0,
00:03.8,0.001047134,-0.004800797,0.009395599,0,
00:03.8,0.001024246,-0.004812241,0.00945282,0,
00:03.8,0.001018524,-0.004817963,0.009395599,0,
00:03.8,0.001012802,-0.004823685,0.009389877,0,
00:03.8,0.00100708,-0.004823685,0.009401321,0,
00:03.8,0.00100708,-0.004823685,0.009389877,0,
00:03.8,0.001012802,-0.004817963,0.00942421,0,
00:03.8,0.000995636,-0.004817963,0.009418488,0,
00:03.8,0.00100708,-0.004835129,0.009378433,0,
00:03.8,0.001012802,-0.004840851,0.009378433,0,
00:03.8,0.001001358,-0.004835129,0.00942421,0,
00:03.8,0.001012802,-0.004800797,0.009418488,0,
00:03.8,0.001012802,-0.004800797,0.009395599,0,
00:03.8,0.001018524,-0.004812241,0.009384155,0,
00:03.8,0.001024246,-0.004806519,0.009401321,0,
00:03.8,0.001029968,-0.004789352,0.009355545,0,
00:03.8,0.001047134,-0.004795074,0.009349823,0,
00:03.8,0.001041412,-0.004817963,0.009321213,0,
00:03.9,0.000989914,-0.004812241,0.009349823,0,
00:03.9,0.001001358,-0.004789352,0.009418488,0,
00:03.9,0.001001358,-0.004777908,0.009372711,0,
00:03.9,0.00103569,-0.004772186,0.009378433,0,
00:03.9,0.001029968,-0.004777908,0.009384155,0,
00:03.9,0.00100708,-0.004795074,0.009378433,0,
00:03.9,0.001001358,-0.004789352,0.009412766,0,
00:03.9,0.001024246,-0.004760742,0.009355545,0,
00:03.9,0.001029968,-0.004760742,0.009326935,0,
00:03.9,0.00100708,-0.004766464,0.009412766,0,
00:03.9,0.001012802,-0.004772186,0.009355545,0,
00:03.9,0.001018524,-0.004766464,0.009355545,0,
00:03.9,0.000995636,-0.00478363,0.009378433,0,
00:03.9,0.001029968,-0.004772186,0.009355545,0,
00:03.9,0.001024246,-0.004760742,0.009332657,0,
00:03.9,0.00100708,-0.004749298,0.009372711,0,
00:03.9,0.00100708,-0.004749298,0.009378433,0,
00:03.9,0.001024246,-0.00475502,0.009326935,0,
00:03.9,0.001029968,-0.004749298,0.009309769,0,
00:03.9,0.001029968,-0.004732132,0.009281158,0,
00:03.9,0.00100708,-0.00475502,0.009361267,0,
00:03.9,0.000995636,-0.004777908,0.009384155,0,
00:03.9,0.001001358,-0.004766464,0.009361267,0,
00:03.9,0.001018524,-0.004732132,0.009332657,0,
00:03.9,0.00100708,-0.004732132,0.009326935,0,
00:04.0,0.000989914,-0.004743576,0.009344101,0,
00:04.0,0.00103569,-0.00475502,0.009332657,0,
00:04.0,0.00103569,-0.004749298,0.009309769,0,
00:04.0,0.000995636,-0.004743576,0.009338379,0,
00:04.0,0.001024246,-0.004737854,0.009355545,0,
00:04.0,0.00103569,-0.004714966,0.009338379,0,
00:04.0,0.001024246,-0.004720688,0.009349823,0,
00:04.0,0.001029968,-0.004732132,0.009332657,0,
00:04.0,0.00103569,-0.00472641,0.009304047,0,
00:04.0,0.001052856,-0.004703522,0.009281158,0,
00:04.0,0.00103569,-0.0046978,0.009281158,0,
00:04.0,0.001012802,-0.004714966,0.009326935,0,
00:00:04,0.00103569,-0.004720688,0.009332657,0,
00:04.0,0.001041412,-0.004714966,0.009321213,0,
00:04.0,0.00103569,-0.004720688,0.009292603,0,
00:04.0,0.001024246,-0.004709244,0.009298325,0,
00:04.0,0.001018524,-0.004703522,0.009263992,0,
00:04.0,0.001018524,-0.004703522,0.009326935,0,
00:04.0,0.001018524,-0.004720688,0.009321213,0,
00:04.0,0.001041412,-0.004703522,0.009275436,0,
00:04.0,0.00103569,-0.0046978,0.009292603,0,
00:04.0,0.00103569,-0.004703522,0.009338379,0,
00:04.0,0.001029968,-0.004703522,0.009315491,0,
00:04.0,0.00103569,-0.004703522,0.00928688,0,
00:04.0,0.001064301,-0.004680634,0.009246826,0,
00:04.1,0.001052856,-0.004674911,0.00928688,0,
00:04.1,0.001064301,-0.004674911,0.009263992,0,
00:04.1,0.001018524,-0.004686356,0.009218216,0,
00:04.1,0.001001358,-0.004686356,0.009304047,0,
00:04.1,0.00103569,-0.004680634,0.009326935,0,
00:04.1,0.001024246,-0.004692078,0.009281158,0,
00:04.1,0.001024246,-0.004686356,0.009275436,0,
00:04.1,0.001029968,-0.004669189,0.009275436,0,
00:04.1,0.001052856,-0.004663467,0.00925827,0,
00:04.1,0.00103569,-0.004657745,0.009275436,0,
00:04.1,0.00103569,-0.004652023,0.00928688,0,
00:04.1,0.001029968,-0.004652023,0.009263992,0,
00:04.1,0.001024246,-0.004646301,0.009269714,0,
00:04.1,0.001018524,-0.004646301,0.009263992,0,
00:04.1,0.001012802,-0.004652023,0.009263992,0,
00:04.1,0.00103569,-0.004657745,0.009275436,0,
00:04.1,0.00103569,-0.004669189,0.009275436,0,
00:04.1,0.001041412,-0.004646301,0.009206772,0,
00:04.1,0.001029968,-0.004657745,0.009252548,0,
00:04.1,0.001029968,-0.004663467,0.00928688,0,
00:04.1,0.001070023,-0.004634857,0.009235382,0,
00:04.1,0.001058578,-0.004629135,0.009223938,0,
00:04.1,0.001047134,-0.004634857,0.009218216,0,
00:04.1,0.001024246,-0.004657745,0.009263992,0,
00:04.1,0.00100708,-0.004663467,0.009269714,0,
00:04.2,0.001024246,-0.004634857,0.009235382,0,
00:04.2,0.001052856,-0.004617691,0.009195328,0,
00:04.2,0.001029968,-0.004634857,0.009212494,0,
00:04.2,0.000989914,-0.004669189,0.009275436,0,
00:04.2,0.001024246,-0.004674911,0.00925827,0,
00:04.2,0.001041412,-0.004617691,0.009235382,0,
00:04.2,0.001024246,-0.004589081,0.009235382,0,
00:04.2,0.001029968,-0.004600525,0.009241104,0,
00:04.2,0.001018524,-0.004640579,0.00925827,0,
00:04.2,0.001018524,-0.004634857,0.009252548,0,
00:04.2,0.001029968,-0.004629135,0.009189606,0,
00:04.2,0.001018524,-0.004611969,0.009235382,0,
00:04.2,0.00100708,-0.004634857,0.009235382,0,
00:04.2,0.001047134,-0.004629135,0.009235382,0,
00:04.2,0.001041412,-0.004629135,0.00922966,0,
00:04.2,0.001029968,-0.004629135,0.009178162,0,
00:04.2,0.001012802,-0.004634857,0.009149551,0,
00:04.2,0.001024246,-0.004623413,0.009241104,0,
00:04.2,0.001029968,-0.004606247,0.009281158,0,
00:04.2,0.001012802,-0.004600525,0.009223938,0,
00:04.2,0.001012802,-0.004611969,0.00920105,0,
00:04.2,0.000995636,-0.004623413,0.009218216,0,
00:04.2,0.000995636,-0.004640579,0.00922966,0,
00:04.2,0.000972748,-0.004663467,0.009246826,0,
00:04.2,0.00097847,-0.004646301,0.009235382,0,
00:04.3,0.00100708,-0.004617691,0.009218216,0,
00:04.3,0.000995636,-0.004617691,0.009206772,0,
00:04.3,0.000995636,-0.004611969,0.009183884,0,
00:04.3,0.001012802,-0.004606247,0.009183884,0,
00:04.3,0.000995636,-0.004606247,0.00917244,0,
00:04.3,0.000984192,-0.004617691,0.009246826,0,
00:04.3,0.00100708,-0.004600525,0.009218216,0,
00:04.3,0.00100708,-0.004600525,0.009206772,0,
00:04.3,0.001012802,-0.004600525,0.009166718,0,
00:04.3,0.000995636,-0.004617691,0.009212494,0,
00:04.3,0.000989914,-0.004623413,0.00920105,0,
00:04.3,0.000989914,-0.004634857,0.009178162,0,
00:04.3,0.00100708,-0.004606247,0.00920105,0,
00:04.3,0.000972748,-0.004594803,0.009218216,0,
00:04.3,0.000972748,-0.004606247,0.009241104,0,
00:04.3,0.001001358,-0.004600525,0.009206772,0,
00:04.3,0.000984192,-0.004594803,0.009160995,0,
00:04.3,0.000984192,-0.004600525,0.009183884,0,
00:04.3,0.000972748,-0.004617691,0.00917244,0,
00:04.3,0.000995636,-0.004611969,0.009178162,0,
00:04.3,0.000989914,-0.004600525,0.009189606,0,
00:04.3,0.000972748,-0.004594803,0.009195328,0,
00:04.3,0.000967026,-0.004623413,0.009183884,0,
00:04.3,0.000984192,-0.004623413,0.009166718,0,
00:04.3,0.001001358,-0.004594803,0.009212494,0,
00:04.4,0.00100708,-0.004577637,0.009149551,0,
00:04.4,0.001018524,-0.004571915,0.009120941,0,
00:04.4,0.000995636,-0.004600525,0.009223938,0,
00:04.4,0.000961304,-0.004611969,0.009223938,0,
00:04.4,0.000984192,-0.004589081,0.009195328,0,
00:04.4,0.000995636,-0.004589081,0.009189606,0,
00:04.4,0.000995636,-0.004600525,0.009149551,0,
00:04.4,0.000989914,-0.004606247,0.009195328,0,
00:04.4,0.00097847,-0.004606247,0.009160995,0,
00:04.4,0.000989914,-0.004594803,0.009115219,0,
00:04.4,0.000995636,-0.004577637,0.009155273,0,
00:04.4,0.000989914,-0.004577637,0.009183884,0,
00:04.4,0.000967026,-0.004577637,0.00920105,0,
00:04.4,0.000989914,-0.004600525,0.009189606,0,
00:04.4,0.000989914,-0.004600525,0.009166718,0,
00:04.4,0.000989914,-0.004594803,0.009178162,0,
00:04.4,0.000995636,-0.004606247,0.009149551,0,
00:04.4,0.00097847,-0.004594803,0.009138107,0,
00:04.4,0.001001358,-0.004583359,0.009166718,0,
00:04.4,0.00097847,-0.004571915,0.009166718,0,
00:04.4,0.00097847,-0.004577637,0.009166718,0,
00:04.4,0.000967026,-0.004600525,0.009178162,0,
00:04.4,0.000972748,-0.004594803,0.009160995,0,
00:04.4,0.000989914,-0.004577637,0.009166718,0,
00:04.4,0.000995636,-0.004560471,0.009132385,0,
00:04.5,0.000967026,-0.004577637,0.00917244,0,
00:04.5,0.000989914,-0.004577637,0.009155273,0,
00:04.5,0.000984192,-0.004566193,0.009143829,0,
00:04.5,0.00097847,-0.004571915,0.009183884,0,
00:04.5,0.00097847,-0.004589081,0.009212494,0,
00:04.5,0.000967026,-0.004589081,0.009160995,0,
00:04.5,0.000989914,-0.004577637,0.009155273,0,
00:04.5,0.000984192,-0.004571915,0.009098053,0,
00:04.5,0.00097847,-0.004583359,0.009132385,0,
00:04.5,0.000989914,-0.004571915,0.009160995,0,
00:04.5,0.001018524,-0.004566193,0.009155273,0,
00:04.5,0.000972748,-0.004583359,0.009218216,0,
00:04.5,0.000961304,-0.004600525,0.00917244,0,
00:04.5,0.00097847,-0.004594803,0.00917244,0,
00:04.5,0.00097847,-0.004577637,0.009166718,0,
00:04.5,0.000995636,-0.004554749,0.009138107,0,
00:04.5,0.000989914,-0.004554749,0.009155273,0,
00:04.5,0.001001358,-0.004560471,0.009149551,0,
00:04.5,0.000972748,-0.004566193,0.009178162,0,
00:04.5,0.00094986,-0.004583359,0.009212494,0,
00:04.5,0.000967026,-0.004571915,0.009183884,0,
00:04.5,0.000995636,-0.004566193,0.009126663,0,
00:04.5,0.000995636,-0.004571915,0.009115219,0,
00:04.5,0.000955582,-0.004577637,0.009183884,0,
00:04.5,0.00097847,-0.004571915,0.009155273,0,
00:04.6,0.001024246,-0.004560471,0.009080887,0,
00:04.6,0.000989914,-0.004571915,0.009166718,0,
00:04.6,0.000961304,-0.004583359,0.009212494,0,
00:04.6,0.000967026,-0.004571915,0.009183884,0,
00:04.6,0.000967026,-0.004589081,0.009189606,0,
00:04.6,0.000984192,-0.004571915,0.009143829,0,
00:04.6,0.000955582,-0.004589081,0.009126663,0,
00:04.6,0.000972748,-0.004594803,0.009206772,0,
00:04.6,0.000955582,-0.004566193,0.009189606,0,
00:04.6,0.000984192,-0.004537582,0.009183884,0,
00:04.6,0.00097847,-0.004554749,0.009160995,0,
00:04.6,0.00097847,-0.004560471,0.009149551,0,
00:04.6,0.00097847,-0.004554749,0.009160995,0,
00:04.6,0.000972748,-0.004549026,0.009149551,0,
00:04.6,0.000967026,-0.004549026,0.009103775,0,
00:04.6,0.00097847,-0.004571915,0.009149551,0,
00:04.6,0.000961304,-0.004583359,0.009166718,0,
00:04.6,0.000967026,-0.004543304,0.009143829,0,
00:04.6,0.000972748,-0.004526138,0.009189606,0,
00:04.6,0.00094986,-0.004543304,0.009218216,0,
00:04.6,0.000961304,-0.004554749,0.009149551,0,
00:04.6,0.000967026,-0.004554749,0.009160995,0,
00:04.6,0.000967026,-0.004537582,0.00917244,0,
00:04.6,0.000972748,-0.00453186,0.009138107,0,
00:04.6,0.000972748,-0.00453186,0.009126663,0,
00:04.7,0.000955582,-0.004543304,0.009195328,0,
00:04.7,0.000967026,-0.004566193,0.00917244,0,
00:04.7,0.000967026,-0.004554749,0.009160995,0,
00:04.7,0.000932693,-0.004537582,0.009218216,0,
00:04.7,0.00094986,-0.004520416,0.009178162,0,
00:04.7,0.000961304,-0.004520416,0.009132385,0,
00:04.7,0.000967026,-0.00453186,0.009149551,0,
00:04.7,0.000961304,-0.004543304,0.009166718,0,
00:04.7,0.000967026,-0.00453186,0.00917244,0,
00:04.7,0.000967026,-0.004526138,0.009126663,0,
00:04.7,0.000955582,-0.004537582,0.009109497,0,
00:04.7,0.000972748,-0.004537582,0.009126663,0,
00:04.7,0.000984192,-0.004520416,0.009218216,0,
00:04.7,0.000989914,-0.004514694,0.009183884,0,
00:04.7,0.000984192,-0.004508972,0.00917244,0,
00:04.7,0.000967026,-0.004520416,0.009132385,0,
00:04.7,0.000967026,-0.004520416,0.009178162,0,
00:04.7,0.000961304,-0.004520416,0.00920105,0,
00:04.7,0.000967026,-0.004508972,0.00920105,0,
00:04.7,0.000984192,-0.004508972,0.009183884,0,
00:04.7,0.000989914,-0.004508972,0.009178162,0,
00:04.7,0.000984192,-0.00453186,0.009155273,0,
00:04.7,0.000961304,-0.004543304,0.009166718,0,
00:04.7,0.000972748,-0.004514694,0.00917244,0,
00:04.7,0.00097847,-0.004508972,0.009160995,0,
00:04.8,0.000967026,-0.004520416,0.009183884,0,
00:04.8,0.00097847,-0.004514694,0.009178162,0,
00:04.8,0.00097847,-0.00450325,0.009160995,0,
00:04.8,0.000972748,-0.004508972,0.00917244,0,
00:04.8,0.000989914,-0.00450325,0.009149551,0,
00:04.8,0.000989914,-0.00450325,0.009092331,0,
00:04.8,0.000955582,-0.004520416,0.009212494,0,
00:04.8,0.000989914,-0.004508972,0.00917244,0,
00:04.8,0.000995636,-0.004497528,0.009132385,0,
00:04.8,0.001012802,-0.00450325,0.009166718,0,
00:04.8,0.00097847,-0.004520416,0.009178162,0,
00:04.8,0.000995636,-0.00453186,0.009189606,0,
00:04.8,0.000995636,-0.004508972,0.009212494,0,
00:04.8,0.00097847,-0.004491806,0.009183884,0,
00:04.8,0.000967026,-0.004497528,0.009178162,0,
00:04.8,0.000984192,-0.00450325,0.009166718,0,
00:04.8,0.000972748,-0.004514694,0.009178162,0,
00:04.8,0.000984192,-0.00450325,0.009138107,0,
00:04.8,0.000961304,-0.00453186,0.009195328,0,
00:04.8,0.000961304,-0.004514694,0.009212494,0,
00:04.8,0.00097847,-0.004508972,0.009189606,0,
00:04.8,0.00097847,-0.00450325,0.009132385,0,
00:04.8,0.00097847,-0.004508972,0.009166718,0,
00:04.8,0.000984192,-0.004491806,0.009218216,0,
00:04.8,0.001001358,-0.004497528,0.00917244,0,
00:04.9,0.000984192,-0.004508972,0.009126663,0,
00:04.9,0.00100708,-0.004491806,0.009189606,0,
00:04.9,0.00097847,-0.00450325,0.009178162,0,
00:04.9,0.00100708,-0.004497528,0.009195328,0,
00:04.9,0.000995636,-0.00450325,0.009206772,0,
00:04.9,0.000984192,-0.004497528,0.009138107,0,
00:04.9,0.000961304,-0.004520416,0.00917244,0,
00:04.9,0.000984192,-0.00450325,0.00922966,0,
00:04.9,0.00100708,-0.00450325,0.009212494,0,
00:04.9,0.000989914,-0.004497528,0.009212494,0,
00:04.9,0.00097847,-0.004491806,0.009183884,0,
00:04.9,0.000989914,-0.004497528,0.009155273,0,
00:04.9,0.000995636,-0.004508972,0.009143829,0,
00:04.9,0.000989914,-0.00450325,0.009160995,0,
00:04.9,0.000995636,-0.00450325,0.009212494,0,
00:04.9,0.001012802,-0.00450325,0.009195328,0,
00:04.9,0.001018524,-0.004497528,0.009183884,0,
00:04.9,0.000995636,-0.004508972,0.009166718,0,
00:04.9,0.000989914,-0.00450325,0.009178162,0,
00:04.9,0.000995636,-0.004480362,0.009189606,0,
00:04.9,0.001001358,-0.004480362,0.009189606,0,
00:04.9,0.000995636,-0.004497528,0.009138107,0,
00:04.9,0.001012802,-0.004497528,0.00917244,0,
00:04.9,0.00103569,-0.004486084,0.009195328,0,
00:04.9,0.001047134,-0.004480362,0.009178162,0,
00:05.0,0.001018524,-0.004480362,0.009160995,0,
00:05.0,0.001012802,-0.004486084,0.009166718,0,
00:05.0,0.001012802,-0.00450325,0.009212494,0,
00:05.0,0.001029968,-0.004480362,0.009183884,0,
00:05.0,0.001029968,-0.00447464,0.009143829,0,
00:05.0,0.00100708,-0.004480362,0.00920105,0,
00:05.0,0.001018524,-0.004508972,0.009183884,0,
00:05.0,0.001001358,-0.004514694,0.00917244,0,
00:05.0,0.001012802,-0.00450325,0.009195328,0,
00:05.0,0.001012802,-0.004486084,0.009218216,0,
00:05.0,0.001001358,-0.00450325,0.00917244,0,
00:05.0,0.00100708,-0.004508972,0.00920105,0,
00:00:05,0.001012802,-0.004491806,0.009195328,0,
00:05.0,0.001024246,-0.00450325,0.009183884,0,
00:05.0,0.00103569,-0.00450325,0.009166718,0,
00:05.0,0.001024246,-0.004486084,0.00917244,0,
00:05.0,0.001029968,-0.004468918,0.009218216,0,
00:05.0,0.001012802,-0.004491806,0.009212494,0,
00:05.0,0.001024246,-0.00450325,0.009212494,0,
00:05.0,0.001029968,-0.004491806,0.00920105,0,
00:05.0,0.001024246,-0.004480362,0.009155273,0,
00:05.0,0.00100708,-0.004480362,0.009166718,0,
00:05.0,0.001012802,-0.004491806,0.009149551,0,
00:05.0,0.001052856,-0.004486084,0.00917244,0,
00:05.0,0.001012802,-0.004508972,0.009189606,0,
00:05.1,0.001001358,-0.004497528,0.009206772,0,
00:05.1,0.000995636,-0.004491806,0.009189606,0,
00:05.1,0.001001358,-0.00450325,0.009155273,0,
00:05.1,0.001012802,-0.004468918,0.009223938,0,
00:05.1,0.001018524,-0.004463196,0.009235382,0,
00:05.1,0.001018524,-0.004480362,0.00917244,0,
00:05.1,0.001001358,-0.00450325,0.009138107,0,
00:05.1,0.001018524,-0.00450325,0.009195328,0,
00:05.1,0.000989914,-0.004514694,0.009241104,0,
00:05.1,0.001012802,-0.00450325,0.00925827,0,
00:05.1,0.001001358,-0.00450325,0.00920105,0,
00:05.1,0.00100708,-0.004497528,0.009166718,0,
00:05.1,0.00100708,-0.004514694,0.009160995,0,
00:05.1,0.000995636,-0.004514694,0.00920105,0,
00:05.1,0.00103569,-0.004491806,0.00920105,0,
00:05.1,0.001047134,-0.00447464,0.009183884,0,
00:05.1,0.001012802,-0.004480362,0.009206772,0,
00:05.1,0.00100708,-0.00447464,0.009206772,0,
00:05.1,0.001029968,-0.004468918,0.009160995,0,
00:05.1,0.001018524,-0.004468918,0.009178162,0,
00:05.1,0.00100708,-0.004497528,0.00920105,0,
00:05.1,0.00103569,-0.00450325,0.00917244,0,
00:05.1,0.001018524,-0.004491806,0.00920105,0,
00:05.1,0.00100708,-0.004480362,0.009189606,0,
00:05.1,0.001029968,-0.004463196,0.009178162,0,
00:05.2,0.00103569,-0.00447464,0.009189606,0,
00:05.2,0.001024246,-0.00447464,0.009189606,0,
00:05.2,0.001024246,-0.00447464,0.009178162,0,
00:05.2,0.001012802,-0.004480362,0.00920105,0,
00:05.2,0.001012802,-0.004480362,0.009212494,0,
00:05.2,0.001047134,-0.004457474,0.009189606,0,
00:05.2,0.001052856,-0.004451752,0.009155273,0,
00:05.2,0.001029968,-0.00447464,0.009149551,0,
00:05.2,0.001029968,-0.004491806,0.009235382,0,
00:05.2,0.001012802,-0.004486084,0.009223938,0,
00:05.2,0.001001358,-0.00447464,0.00920105,0,
00:05.2,0.001024246,-0.004440308,0.009183884,0,
00:05.2,0.00100708,-0.004451752,0.009160995,0,
00:05.2,0.00103569,-0.004434586,0.009138107,0,
00:05.2,0.001024246,-0.004440308,0.009218216,0,
00:05.2,0.001029968,-0.004434586,0.00920105,0,
00:05.2,0.001012802,-0.004440308,0.009149551,0,
00:05.2,0.001018524,-0.00444603,0.009155273,0,
00:05.2,0.001012802,-0.004451752,0.00922966,0,
00:05.2,0.001047134,-0.00447464,0.009195328,0,
00:05.2,0.001012802,-0.004480362,0.009195328,0,
00:05.2,0.001001358,-0.00447464,0.009166718,0,
00:05.2,0.001041412,-0.004434586,0.009138107,0,
00:05.2,0.001029968,-0.004405975,0.00917244,0,
00:05.2,0.00100708,-0.004423141,0.00917244,0,
00:05.3,0.001029968,-0.00444603,0.009166718,0,
00:05.3,0.001018524,-0.00444603,0.009166718,0,
00:05.3,0.001029968,-0.004440308,0.009120941,0,
00:05.3,0.001041412,-0.004428864,0.009155273,0,
00:05.3,0.001001358,-0.00444603,0.00920105,0,
00:05.3,0.001029968,-0.004434586,0.009126663,0,
00:05.3,0.001041412,-0.004423141,0.009086609,0,
00:05.3,0.001012802,-0.00444603,0.009189606,0,
00:05.3,0.001012802,-0.004434586,0.009195328,0,
00:05.3,0.001012802,-0.004423141,0.009183884,0,
00:05.3,0.001018524,-0.004417419,0.009189606,0,
00:05.3,0.00103569,-0.004411697,0.009155273,0,
00:05.3,0.001041412,-0.004434586,0.009160995,0,
00:05.3,0.001029968,-0.004428864,0.009160995,0,
00:05.3,0.00100708,-0.004428864,0.009166718,0,
00:05.3,0.001024246,-0.004434586,0.009132385,0,
00:05.3,0.001024246,-0.004417419,0.009126663,0,
00:05.3,0.001012802,-0.004417419,0.009149551,0,
00:05.3,0.001029968,-0.004423141,0.00917244,0,
00:05.3,0.00103569,-0.004428864,0.009160995,0,
00:05.3,0.00103569,-0.004417419,0.009149551,0,
00:05.3,0.001018524,-0.004405975,0.009178162,0,
00:05.3,0.001018524,-0.004411697,0.009178162,0,
00:05.3,0.001012802,-0.004423141,0.009189606,0,
00:05.3,0.001024246,-0.004428864,0.009178162,0,
00:05.4,0.001041412,-0.004405975,0.009132385,0,
00:05.4,0.001029968,-0.004411697,0.009149551,0,
00:05.4,0.001029968,-0.004400253,0.009160995,0,
00:05.4,0.001029968,-0.004400253,0.009189606,0,
00:05.4,0.001029968,-0.004405975,0.009143829,0,
00:05.4,0.001041412,-0.004411697,0.009132385,0,
00:05.4,0.001041412,-0.004411697,0.009149551,0,
00:05.4,0.001052856,-0.004405975,0.009126663,0,
00:05.4,0.00103569,-0.004405975,0.009120941,0,
00:05.4,0.001029968,-0.004405975,0.009098053,0,
00:05.4,0.001047134,-0.004405975,0.009166718,0,
00:05.4,0.001024246,-0.004417419,0.009195328,0,
00:05.4,0.001041412,-0.004400253,0.009138107,0,
00:05.4,0.00103569,-0.004400253,0.009160995,0,
00:05.4,0.001024246,-0.004405975,0.009149551,0,
00:05.4,0.001024246,-0.004388809,0.009103775,0,
00:05.4,0.001041412,-0.004383087,0.009098053,0,
00:05.4,0.00103569,-0.004400253,0.009115219,0,
00:05.4,0.001029968,-0.004400253,0.009143829,0,
00:05.4,0.001058578,-0.004394531,0.009149551,0,
00:05.4,0.00103569,-0.004400253,0.009166718,0,
00:05.4,0.00103569,-0.004394531,0.009138107,0,
00:05.4,0.00103569,-0.004394531,0.009103775,0,
00:05.4,0.00103569,-0.004388809,0.009120941,0,
00:05.4,0.001047134,-0.004388809,0.009166718,0,
00:05.5,0.001058578,-0.004388809,0.009120941,0,
00:05.5,0.001047134,-0.004388809,0.009132385,0,
00:05.5,0.001058578,-0.004383087,0.009132385,0,
00:05.5,0.001064301,-0.004365921,0.009120941,0,
00:05.5,0.00103569,-0.004365921,0.009109497,0,
00:05.5,0.001041412,-0.004394531,0.009120941,0,
00:05.5,0.001041412,-0.004383087,0.009132385,0,
00:05.5,0.001052856,-0.004377365,0.009149551,0,
00:05.5,0.00103569,-0.004377365,0.009120941,0,
00:05.5,0.001029968,-0.004377365,0.009126663,0,
00:05.5,0.001029968,-0.004383087,0.009120941,0,
00:05.5,0.001012802,-0.004394531,0.009098053,0,
00:05.5,0.00103569,-0.004377365,0.009149551,0,
00:05.5,0.001052856,-0.004360199,0.009138107,0,
00:05.5,0.001029968,-0.004371643,0.009115219,0,
00:05.5,0.001024246,-0.004371643,0.009132385,0,
00:05.5,0.001024246,-0.004377365,0.009132385,0,
00:05.5,0.001024246,-0.004388809,0.009132385,0,
00:05.5,0.001024246,-0.004377365,0.009120941,0,
00:05.5,0.001047134,-0.004360199,0.009120941,0,
00:05.5,0.00103569,-0.004360199,0.009143829,0,
00:05.5,0.001029968,-0.004377365,0.009126663,0,
00:05.5,0.001047134,-0.004343033,0.009098053,0,
00:05.5,0.00103569,-0.004348755,0.009098053,0,
00:05.5,0.001029968,-0.004348755,0.009120941,0,
00:05.6,0.001029968,-0.004360199,0.009120941,0,
00:05.6,0.001029968,-0.004377365,0.009132385,0,
00:05.6,0.001047134,-0.004377365,0.009109497,0,
00:05.6,0.001012802,-0.004360199,0.009103775,0,
00:05.6,0.001024246,-0.004343033,0.009046555,0,
00:05.6,0.001029968,-0.004348755,0.009138107,0,
00:05.6,0.001018524,-0.004354477,0.009143829,0,
00:05.6,0.001012802,-0.004354477,0.009103775,0,
00:05.6,0.00103569,-0.004354477,0.009075165,0,
00:05.6,0.001029968,-0.004354477,0.009166718,0,
00:05.6,0.001029968,-0.004343033,0.009132385,0,
00:05.6,0.001024246,-0.004348755,0.009103775,0,
00:05.6,0.00103569,-0.004337311,0.009103775,0,
00:05.6,0.001058578,-0.004343033,0.009103775,0,
00:05.6,0.001012802,-0.004348755,0.009138107,0,
00:05.6,0.001018524,-0.004360199,0.009160995,0,
00:05.6,0.001041412,-0.004343033,0.009098053,0,
00:05.6,0.00103569,-0.004337311,0.009069443,0,
00:05.6,0.001052856,-0.004331589,0.009092331,0,
00:05.6,0.001012802,-0.004337311,0.009149551,0,
00:05.6,0.001012802,-0.004337311,0.009138107,0,
00:05.6,0.001029968,-0.004331589,0.009132385,0,
00:05.6,0.001024246,-0.004343033,0.009115219,0,
00:05.6,0.00103569,-0.004331589,0.009080887,0,
00:05.6,0.001029968,-0.004343033,0.009098053,0,
00:05.7,0.001029968,-0.004360199,0.009063721,0,
00:05.7,0.001041412,-0.004365921,0.009103775,0,
00:05.7,0.00103569,-0.004354477,0.009132385,0,
00:05.7,0.00103569,-0.004348755,0.009138107,0,
00:05.7,0.001041412,-0.004348755,0.009138107,0,
00:05.7,0.001029968,-0.004354477,0.009120941,0,
00:05.7,0.001047134,-0.004360199,0.009120941,0,
00:05.7,0.001070023,-0.004354477,0.009086609,0,
00:05.7,0.001052856,-0.004348755,0.009109497,0,
00:05.7,0.001029968,-0.004354477,0.009098053,0,
00:05.7,0.001012802,-0.004354477,0.009126663,0,
00:05.7,0.001024246,-0.004354477,0.009138107,0,
00:05.7,0.001041412,-0.004354477,0.009075165,0,
00:05.7,0.001018524,-0.004365921,0.009057999,0,
00:05.7,0.001001358,-0.004383087,0.009143829,0,
00:05.7,0.00103569,-0.004360199,0.009132385,0,
00:05.7,0.001041412,-0.004360199,0.009063721,0,
00:05.7,0.00103569,-0.004354477,0.009115219,0,
00:05.7,0.00103569,-0.004360199,0.009086609,0,
00:05.7,0.001024246,-0.004348755,0.009103775,0,
00:05.7,0.001018524,-0.004360199,0.009103775,0,
00:05.7,0.001029968,-0.004343033,0.009109497,0,
00:05.7,0.001029968,-0.004348755,0.009115219,0,
00:05.7,0.001024246,-0.004343033,0.009120941,0,
00:05.7,0.001024246,-0.004360199,0.009115219,0,
00:05.8,0.001041412,-0.004365921,0.009103775,0,
00:05.8,0.00103569,-0.004354477,0.009080887,0,
00:05.8,0.001024246,-0.004343033,0.009092331,0,
00:05.8,0.001052856,-0.004348755,0.009103775,0,
00:05.8,0.001029968,-0.004365921,0.009132385,0,
00:05.8,0.001001358,-0.004377365,0.009103775,0,
00:05.8,0.001047134,-0.004360199,0.009057999,0,
00:05.8,0.001041412,-0.004337311,0.009063721,0,
00:05.8,0.001052856,-0.004331589,0.009098053,0,
00:05.8,0.001029968,-0.004348755,0.009109497,0,
00:05.8,0.00103569,-0.004354477,0.009103775,0,
00:05.8,0.001018524,-0.004354477,0.009075165,0,
00:05.8,0.001024246,-0.004354477,0.009115219,0,
00:05.8,0.001024246,-0.004360199,0.009115219,0,
00:05.8,0.001029968,-0.004360199,0.009080887,0,
00:05.8,0.00103569,-0.004348755,0.009069443,0,
00:05.8,0.001024246,-0.004348755,0.009086609,0,
00:05.8,0.001029968,-0.004343033,0.009092331,0,
00:05.8,0.001029968,-0.004343033,0.009109497,0,
00:05.8,0.00103569,-0.004348755,0.009086609,0,
00:05.8,0.00103569,-0.004354477,0.009086609,0,
00:05.8,0.001047134,-0.004343033,0.009115219,0,
00:05.8,0.001041412,-0.004320145,0.009115219,0,
00:05.8,0.001058578,-0.004331589,0.009086609,0,
00:05.8,0.001081467,-0.004343033,0.009029388,0,
00:05.9,0.001047134,-0.004360199,0.009057999,0,
00:05.9,0.001012802,-0.004365921,0.009138107,0,
00:05.9,0.001029968,-0.004354477,0.009103775,0,
00:05.9,0.001029968,-0.004360199,0.009149551,0,
00:05.9,0.001047134,-0.004360199,0.009092331,0,
00:05.9,0.001058578,-0.004354477,0.009080887,0,
00:05.9,0.001024246,-0.004348755,0.009103775,0,
00:05.9,0.00103569,-0.004348755,0.009120941,0,
00:05.9,0.001058578,-0.004354477,0.009109497,0,
00:05.9,0.001064301,-0.004343033,0.009052277,0,
00:05.9,0.001052856,-0.004343033,0.009057999,0,
00:05.9,0.001024246,-0.004348755,0.009132385,0,
00:05.9,0.001024246,-0.004360199,0.009109497,0,
00:05.9,0.001041412,-0.004360199,0.009075165,0,
00:05.9,0.001064301,-0.004331589,0.009023666,0,
00:05.9,0.00103569,-0.004337311,0.009069443,0,
00:05.9,0.001047134,-0.004337311,0.009098053,0,
00:05.9,0.001029968,-0.004354477,0.009120941,0,
00:05.9,0.001064301,-0.004343033,0.009103775,0,
00:05.9,0.00103569,-0.004348755,0.009103775,0,
00:05.9,0.001052856,-0.004354477,0.009080887,0,
00:05.9,0.001041412,-0.004371643,0.009057999,0,
00:05.9,0.001047134,-0.004365921,0.009103775,0,
00:05.9,0.001047134,-0.004354477,0.009132385,0,
00:05.9,0.001041412,-0.004354477,0.009098053,0,
00:06.0,0.001041412,-0.004360199,0.009132385,0,
00:06.0,0.001064301,-0.004348755,0.009109497,0,
00:06.0,0.001047134,-0.004348755,0.009109497,0,
00:06.0,0.001024246,-0.004337311,0.009115219,0,
00:06.0,0.001047134,-0.004331589,0.009103775,0,
00:06.0,0.001075745,-0.004331589,0.009092331,0,
00:06.0,0.001070023,-0.004337311,0.009063721,0,
00:06.0,0.001058578,-0.004348755,0.009069443,0,
00:06.0,0.001058578,-0.004348755,0.009075165,0,
00:06.0,0.001041412,-0.004348755,0.009086609,0,
00:06.0,0.001047134,-0.004343033,0.009098053,0,
00:06.0,0.001058578,-0.004325867,0.009092331,0,
00:00:06,0.001058578,-0.004320145,0.009023666,0,
00:06.0,0.001070023,-0.004314423,0.009098053,0,
00:06.0,0.001064301,-0.004325867,0.009109497,0,
00:06.0,0.001070023,-0.004337311,0.009080887,0,
00:06.0,0.001064301,-0.004343033,0.009086609,0,
00:06.0,0.001058578,-0.004331589,0.009120941,0,
00:06.0,0.001058578,-0.004348755,0.009132385,0,
00:06.0,0.001064301,-0.004348755,0.009120941,0,
00:06.0,0.001058578,-0.004343033,0.009120941,0,
00:06.0,0.001052856,-0.004343033,0.009098053,0,
00:06.0,0.001058578,-0.004331589,0.009080887,0,
00:06.0,0.001058578,-0.004325867,0.009092331,0,
00:06.0,0.001087189,-0.004320145,0.009092331,0,
00:06.1,0.001064301,-0.004331589,0.009075165,0,
00:06.1,0.001041412,-0.004331589,0.009063721,0,
00:06.1,0.001052856,-0.004337311,0.009120941,0,
00:06.1,0.001047134,-0.004337311,0.009126663,0,
00:06.1,0.001052856,-0.004337311,0.009098053,0,
00:06.1,0.001047134,-0.004314423,0.009075165,0,
00:06.1,0.001052856,-0.004308701,0.009040833,0,
00:06.1,0.001058578,-0.004337311,0.009052277,0,
00:06.1,0.001064301,-0.004337311,0.009109497,0,
00:06.1,0.001064301,-0.004354477,0.009109497,0,
00:06.1,0.001064301,-0.004360199,0.009103775,0,
00:06.1,0.001070023,-0.004337311,0.009098053,0,
00:06.1,0.001058578,-0.004314423,0.009120941,0,
00:06.1,0.001058578,-0.004331589,0.009120941,0,
00:06.1,0.001075745,-0.004343033,0.009080887,0,
00:06.1,0.001064301,-0.004337311,0.009075165,0,
00:06.1,0.001047134,-0.004308701,0.009057999,0,
00:06.1,0.001064301,-0.004314423,0.009069443,0,
00:06.1,0.001058578,-0.004331589,0.009103775,0,
00:06.1,0.001058578,-0.004331589,0.009132385,0,
00:06.1,0.001058578,-0.004337311,0.009103775,0,
00:06.1,0.00103569,-0.004360199,0.009098053,0,
00:06.1,0.001047134,-0.004348755,0.009092331,0,
00:06.1,0.001092911,-0.004314423,0.009086609,0,
00:06.1,0.001081467,-0.004325867,0.009063721,0,
00:06.2,0.001041412,-0.004325867,0.009086609,0,
00:06.2,0.001064301,-0.004331589,0.009098053,0,
00:06.2,0.001064301,-0.004348755,0.009138107,0,
00:06.2,0.001058578,-0.004343033,0.009080887,0,
00:06.2,0.001064301,-0.004337311,0.009098053,0,
00:06.2,0.001058578,-0.004325867,0.009115219,0,
00:06.2,0.001052856,-0.004331589,0.009086609,0,
00:06.2,0.001029968,-0.004354477,0.009109497,0,
00:06.2,0.001064301,-0.004343033,0.009080887,0,
00:06.2,0.001075745,-0.004331589,0.009075165,0,
00:06.2,0.001041412,-0.004348755,0.009092331,0,
00:06.2,0.00103569,-0.004354477,0.009115219,0,
00:06.2,0.001070023,-0.004343033,0.009115219,0,
00:06.2,0.001064301,-0.004354477,0.009080887,0,
00:06.2,0.001052856,-0.004325867,0.009057999,0,
00:06.2,0.001052856,-0.004314423,0.009075165,0,
00:06.2,0.001064301,-0.004325867,0.009057999,0,
00:06.2,0.001064301,-0.004343033,0.009120941,0,
00:06.2,0.001047134,-0.004337311,0.009126663,0,
00:06.2,0.001029968,-0.004337311,0.009098053,0,
00:06.2,0.00103569,-0.004360199,0.009103775,0,
00:06.2,0.001041412,-0.004343033,0.009075165,0,
00:06.2,0.001047134,-0.004343033,0.009115219,0,
00:06.2,0.001052856,-0.004348755,0.009143829,0,
00:06.2,0.001052856,-0.004354477,0.009092331,0,
00:06.3,0.001052856,-0.004348755,0.009046555,0,
00:06.3,0.001041412,-0.004331589,0.009069443,0,
00:06.3,0.001047134,-0.004320145,0.009103775,0,
00:06.3,0.001052856,-0.004331589,0.009109497,0,
00:06.3,0.001075745,-0.004325867,0.009098053,0,
00:06.3,0.001047134,-0.004325867,0.009052277,0,
00:06.3,0.001058578,-0.004320145,0.009057999,0,
00:06.3,0.001052856,-0.004325867,0.009040833,0,
00:06.3,0.00103569,-0.004337311,0.009092331,0,
00:06.3,0.00103569,-0.004331589,0.009098053,0,
00:06.3,0.001041412,-0.004325867,0.009092331,0,
00:06.3,0.001058578,-0.004325867,0.009069443,0,
00:06.3,0.001041412,-0.004331589,0.009075165,0,
00:06.3,0.00103569,-0.004331589,0.009132385,0,
00:06.3,0.00103569,-0.004343033,0.009109497,0,
00:06.3,0.00103569,-0.004343033,0.009092331,0,
00:06.3,0.00103569,-0.004354477,0.009046555,0,
00:06.3,0.001047134,-0.004337311,0.009023666,0,
00:06.3,0.001058578,-0.004320145,0.009086609,0,
00:06.3,0.001070023,-0.004320145,0.009080887,0,
00:06.3,0.001041412,-0.004354477,0.009086609,0,
00:06.3,0.001012802,-0.004371643,0.009109497,0,
00:06.3,0.001041412,-0.004348755,0.009092331,0,
00:06.3,0.001058578,-0.004337311,0.009086609,0,
00:06.3,0.001052856,-0.004337311,0.009069443,0,
00:06.4,0.001041412,-0.004354477,0.009075165,0,
00:06.4,0.00103569,-0.004331589,0.009086609,0,
00:06.4,0.001052856,-0.004343033,0.009092331,0,
00:06.4,0.001064301,-0.004331589,0.009057999,0,
00:06.4,0.001052856,-0.004343033,0.009052277,0,
00:06.4,0.001047134,-0.004360199,0.009109497,0,
00:06.4,0.001029968,-0.004343033,0.009109497,0,
00:06.4,0.001029968,-0.004331589,0.009126663,0,
00:06.4,0.001064301,-0.004325867,0.009103775,0,
00:06.4,0.001058578,-0.004331589,0.009057999,0,
00:06.4,0.001041412,-0.004365921,0.009057999,0,
00:06.4,0.001041412,-0.004371643,0.009115219,0,
00:06.4,0.001041412,-0.004348755,0.009092331,0,
00:06.4,0.001047134,-0.004337311,0.009098053,0,
00:06.4,0.001047134,-0.004331589,0.009120941,0,
00:06.4,0.001058578,-0.004331589,0.009080887,0,
00:06.4,0.001070023,-0.004343033,0.009063721,0,
00:06.4,0.001058578,-0.004337311,0.009057999,0,
00:06.4,0.001070023,-0.004325867,0.009098053,0,
00:06.4,0.001058578,-0.004337311,0.009063721,0,
00:06.4,0.001052856,-0.004343033,0.009069443,0,
00:06.4,0.001047134,-0.004343033,0.009115219,0,
00:06.4,0.001029968,-0.004348755,0.009098053,0,
00:06.4,0.00103569,-0.004343033,0.009075165,0,
00:06.4,0.001064301,-0.004331589,0.009063721,0,
00:06.5,0.001058578,-0.004337311,0.009052277,0,
00:06.5,0.001058578,-0.004348755,0.009075165,0,
00:06.5,0.001024246,-0.004354477,0.009086609,0,
00:06.5,0.001058578,-0.004360199,0.009103775,0,
00:06.5,0.00103569,-0.004371643,0.009109497,0,
00:06.5,0.001041412,-0.004348755,0.009120941,0,
00:06.5,0.001052856,-0.004337311,0.009092331,0,
00:06.5,0.001070023,-0.004325867,0.009063721,0,
00:06.5,0.001064301,-0.004302979,0.009063721,0,
00:06.5,0.001041412,-0.004320145,0.009103775,0,
00:06.5,0.00103569,-0.004331589,0.009098053,0,
00:06.5,0.001058578,-0.004331589,0.009086609,0,
00:06.5,0.001081467,-0.004331589,0.009040833,0,
00:06.5,0.001052856,-0.004337311,0.009069443,0,
00:06.5,0.00103569,-0.004343033,0.009143829,0,
00:06.5,0.001047134,-0.004354477,0.009115219,0,
00:06.5,0.001047134,-0.004354477,0.009109497,0,
00:06.5,0.001075745,-0.004343033,0.009086609,0,
00:06.5,0.001052856,-0.004325867,0.009040833,0,
00:06.5,0.001041412,-0.004314423,0.009080887,0,
00:06.5,0.001047134,-0.004325867,0.009080887,0,
00:06.5,0.001041412,-0.004354477,0.009069443,0,
00:06.5,0.001075745,-0.004337311,0.009080887,0,
00:06.5,0.001075745,-0.004331589,0.009046555,0,
00:06.5,0.001041412,-0.004337311,0.009166718,0,
00:06.6,0.001029968,-0.004331589,0.009109497,0,
00:06.6,0.001064301,-0.004325867,0.009092331,0,
00:06.6,0.001081467,-0.004331589,0.009075165,0,
00:06.6,0.001070023,-0.004337311,0.009069443,0,
00:06.6,0.001052856,-0.004348755,0.009115219,0,
00:06.6,0.001052856,-0.004348755,0.009086609,0,
00:06.6,0.001052856,-0.004360199,0.009086609,0,
00:06.6,0.001058578,-0.004337311,0.009098053,0,
00:06.6,0.001075745,-0.004308701,0.009109497,0,
00:06.6,0.001058578,-0.004331589,0.009103775,0,
00:06.6,0.001052856,-0.004331589,0.009115219,0,
00:06.6,0.001070023,-0.004343033,0.009080887,0,
00:06.6,0.001070023,-0.004325867,0.009098053,0,
00:06.6,0.001052856,-0.004331589,0.009080887,0,
00:06.6,0.001058578,-0.004331589,0.009092331,0,
00:06.6,0.001075745,-0.004331589,0.009057999,0,
00:06.6,0.001092911,-0.004331589,0.009023666,0,
00:06.6,0.001064301,-0.004343033,0.009098053,0,
00:06.6,0.001052856,-0.004337311,0.009178162,0,
00:06.6,0.001070023,-0.004325867,0.009138107,0,
00:06.6,0.001075745,-0.004331589,0.009069443,0,
00:06.6,0.001075745,-0.004331589,0.009046555,0,
00:06.6,0.001064301,-0.004337311,0.009075165,0,
00:06.6,0.00103569,-0.004325867,0.009115219,0,
00:06.6,0.001075745,-0.004320145,0.009098053,0,
00:06.7,0.001075745,-0.004325867,0.009109497,0,
00:06.7,0.001058578,-0.004331589,0.009115219,0,
00:06.7,0.001058578,-0.004320145,0.009103775,0,
00:06.7,0.001070023,-0.004320145,0.009075165,0,
00:06.7,0.001058578,-0.004337311,0.009086609,0,
00:06.7,0.001070023,-0.004331589,0.009126663,0,
00:06.7,0.001070023,-0.004331589,0.009092331,0,
00:06.7,0.001081467,-0.004320145,0.009075165,0,
00:06.7,0.001047134,-0.004325867,0.009086609,0,
00:06.7,0.001081467,-0.004308701,0.009063721,0,
00:06.7,0.001070023,-0.004320145,0.009075165,0,
00:06.7,0.001081467,-0.004320145,0.009109497,0,
00:06.7,0.001058578,-0.004314423,0.009092331,0,
00:06.7,0.001052856,-0.004314423,0.009075165,0,
00:06.7,0.001052856,-0.004325867,0.009075165,0,
00:06.7,0.001075745,-0.004331589,0.009069443,0,
00:06.7,0.001092911,-0.004325867,0.009092331,0,
00:06.7,0.001098633,-0.004325867,0.009057999,0,
00:06.7,0.001064301,-0.004308701,0.009063721,0,
00:06.7,0.001070023,-0.004302979,0.009103775,0,
00:06.7,0.001081467,-0.004308701,0.009080887,0,
00:06.7,0.001104355,-0.004314423,0.009069443,0,
00:06.7,0.001092911,-0.004308701,0.009063721,0,
00:06.7,0.001087189,-0.004314423,0.009109497,0,
00:06.7,0.001064301,-0.004320145,0.009109497,0,
00:06.8,0.001052856,-0.004314423,0.009057999,0,
00:06.8,0.001064301,-0.004314423,0.009103775,0,
00:06.8,0.001070023,-0.004320145,0.009098053,0,
00:06.8,0.001070023,-0.004302979,0.009092331,0,
00:06.8,0.001047134,-0.004314423,0.009115219,0,
00:06.8,0.001070023,-0.004320145,0.009086609,0,
00:06.8,0.001087189,-0.004314423,0.009046555,0,
00:06.8,0.001075745,-0.004291534,0.009052277,0,
00:06.8,0.001075745,-0.00428009,0.009069443,0,
00:06.8,0.001064301,-0.004308701,0.009109497,0,
00:06.8,0.001081467,-0.004314423,0.009120941,0,
00:06.8,0.001081467,-0.004308701,0.009092331,0,
00:06.8,0.001081467,-0.004308701,0.009098053,0,
00:06.8,0.001070023,-0.004302979,0.009098053,0,
00:06.8,0.001070023,-0.004297256,0.009057999,0,
00:06.8,0.001064301,-0.004302979,0.009069443,0,
00:06.8,0.001092911,-0.004314423,0.009063721,0,
00:06.8,0.001075745,-0.004314423,0.009098053,0,
00:06.8,0.001064301,-0.004297256,0.009098053,0,
00:06.8,0.001075745,-0.004291534,0.009069443,0,
00:06.8,0.001058578,-0.004285812,0.009098053,0,
00:06.8,0.001070023,-0.004302979,0.009092331,0,
00:06.8,0.001075745,-0.004302979,0.009092331,0,
00:06.8,0.001075745,-0.004308701,0.009103775,0,
00:06.8,0.001058578,-0.004308701,0.009080887,0,
00:06.9,0.001064301,-0.004308701,0.009063721,0,
00:06.9,0.001070023,-0.004302979,0.009092331,0,
00:06.9,0.001075745,-0.004285812,0.009063721,0,
00:06.9,0.001070023,-0.004274368,0.009075165,0,
00:06.9,0.001064301,-0.00428009,0.009103775,0,
00:06.9,0.001058578,-0.004291534,0.009115219,0,
00:06.9,0.001064301,-0.004291534,0.009046555,0,
00:06.9,0.001070023,-0.004291534,0.009080887,0,
00:06.9,0.001070023,-0.004297256,0.009086609,0,
00:06.9,0.001070023,-0.004285812,0.009080887,0,
00:06.9,0.001087189,-0.004285812,0.009057999,0,
00:06.9,0.001058578,-0.004285812,0.009120941,0,
00:06.9,0.001052856,-0.00428009,0.009092331,0,
00:06.9,0.001070023,-0.004285812,0.009092331,0,
00:06.9,0.001092911,-0.004274368,0.009057999,0,
00:06.9,0.001064301,-0.004285812,0.009029388,0,
00:06.9,0.001029968,-0.004302979,0.009098053,0,
00:06.9,0.001052856,-0.004291534,0.009086609,0,
00:06.9,0.001058578,-0.004291534,0.009057999,0,
00:06.9,0.001047134,-0.004285812,0.009080887,0,
00:06.9,0.001041412,-0.00428009,0.009063721,0,
00:06.9,0.001058578,-0.004268646,0.009092331,0,
00:06.9,0.001047134,-0.00428009,0.009103775,0,
00:06.9,0.001058578,-0.004274368,0.009063721,0,
00:06.9,0.001070023,-0.004257202,0.009075165,0,
00:07.0,0.001058578,-0.004274368,0.009075165,0,
00:07.0,0.001058578,-0.004291534,0.009052277,0,
00:07.0,0.001070023,-0.004285812,0.009057999,0,
00:07.0,0.001058578,-0.004291534,0.009103775,0,
00:07.0,0.001064301,-0.00428009,0.009092331,0,
00:07.0,0.001047134,-0.004274368,0.009057999,0,
00:07.0,0.001047134,-0.004274368,0.009080887,0,
00:07.0,0.001058578,-0.004285812,0.009029388,0,
00:07.0,0.001081467,-0.00428009,0.009057999,0,
00:07.0,0.001070023,-0.004297256,0.009092331,0,
00:07.0,0.001052856,-0.004291534,0.009109497,0,
00:07.0,0.001064301,-0.004268646,0.009075165,0,
00:00:07,0.001070023,-0.004262924,0.009080887,0,
00:07.0,0.001052856,-0.004291534,0.009080887,0,
00:07.0,0.001052856,-0.004297256,0.009063721,0,
00:07.0,0.001058578,-0.004285812,0.009063721,0,
00:07.0,0.001058578,-0.004285812,0.009057999,0,
00:07.0,0.001081467,-0.004291534,0.009092331,0,
00:07.0,0.001052856,-0.004297256,0.009098053,0,
00:07.0,0.001064301,-0.004285812,0.009098053,0,
00:07.0,0.001058578,-0.004262924,0.009086609,0,
00:07.0,0.001064301,-0.004268646,0.009080887,0,
00:07.0,0.001058578,-0.004268646,0.009029388,0,
00:07.0,0.001098633,-0.004274368,0.009023666,0,
00:07.0,0.001064301,-0.004291534,0.009057999,0,
00:07.1,0.00103569,-0.004308701,0.009109497,0,
00:07.1,0.00103569,-0.004314423,0.009080887,0,
00:07.1,0.001058578,-0.00428009,0.009052277,0,
00:07.1,0.001075745,-0.004257202,0.009069443,0,
00:07.1,0.001081467,-0.004274368,0.009075165,0,
00:07.1,0.001070023,-0.00428009,0.009086609,0,
00:07.1,0.001052856,-0.004285812,0.009069443,0,
00:07.1,0.001058578,-0.004274368,0.009057999,0,
00:07.1,0.001075745,-0.00428009,0.009080887,0,
00:07.1,0.001064301,-0.00428009,0.009069443,0,
00:07.1,0.001047134,-0.004291534,0.009080887,0,
00:07.1,0.001070023,-0.004274368,0.009092331,0,
00:07.1,0.001070023,-0.00428009,0.009069443,0,
00:07.1,0.001052856,-0.004297256,0.009098053,0,
00:07.1,0.001041412,-0.004314423,0.009075165,0,
00:07.1,0.001052856,-0.004291534,0.009080887,0,
00:07.1,0.001087189,-0.004262924,0.009069443,0,
00:07.1,0.001087189,-0.004240036,0.009012222,0,
00:07.1,0.001075745,-0.004245758,0.009012222,0,
00:07.1,0.001058578,-0.004274368,0.009132385,0,
00:07.1,0.001041412,-0.004308701,0.009103775,0,
00:07.1,0.001047134,-0.004308701,0.009103775,0,
00:07.1,0.001064301,-0.004291534,0.009080887,0,
00:07.1,0.001075745,-0.004268646,0.009057999,0,
00:07.1,0.001047134,-0.004285812,0.009098053,0,
00:07.2,0.001058578,-0.004285812,0.009092331,0,
00:07.2,0.001075745,-0.00428009,0.009069443,0,
00:07.2,0.001052856,-0.004291534,0.009080887,0,
00:07.2,0.001075745,-0.004274368,0.009052277,0,
00:07.2,0.001070023,-0.004268646,0.009029388,0,
00:07.2,0.001070023,-0.004268646,0.009063721,0,
00:07.2,0.001064301,-0.00428009,0.009069443,0,
00:07.2,0.001052856,-0.004274368,0.009103775,0,
00:07.2,0.001075745,-0.004268646,0.009069443,0,
00:07.2,0.001064301,-0.004274368,0.009063721,0,
00:07.2,0.001070023,-0.004274368,0.009057999,0,
00:07.2,0.001058578,-0.004285812,0.009086609,0,
00:07.2,0.001064301,-0.004291534,0.009080887,0,
00:07.2,0.001058578,-0.004291534,0.009080887,0,
00:07.2,0.001064301,-0.004285812,0.009069443,0,
00:07.2,0.001081467,-0.004268646,0.009080887,0,
00:07.2,0.001052856,-0.004257202,0.009017944,0,
00:07.2,0.001070023,-0.00425148,0.009052277,0,
00:07.2,0.001081467,-0.004262924,0.009075165,0,
00:07.2,0.001052856,-0.004285812,0.009063721,0,
00:07.2,0.001041412,-0.004285812,0.009075165,0,
00:07.2,0.001052856,-0.004268646,0.009086609,0,
00:07.2,0.001081467,-0.00425148,0.009057999,0,
00:07.2,0.001058578,-0.004257202,0.009069443,0,
00:07.2,0.001029968,-0.00428009,0.009069443,0,
00:07.3,0.001064301,-0.004274368,0.009069443,0,
00:07.3,0.001087189,-0.004268646,0.009069443,0,
00:07.3,0.001064301,-0.004257202,0.009040833,0,
00:07.3,0.001075745,-0.004245758,0.009092331,0,
00:07.3,0.001075745,-0.004257202,0.009069443,0,
00:07.3,0.001024246,-0.004291534,0.009080887,0,
00:07.3,0.001052856,-0.004274368,0.009103775,0,
00:07.3,0.001070023,-0.00425148,0.009098053,0,
00:07.3,0.001064301,-0.004245758,0.009040833,0,
00:07.3,0.001064301,-0.004245758,0.009040833,0,
00:07.3,0.001047134,-0.004257202,0.009057999,0,
00:07.3,0.001070023,-0.00425148,0.009063721,0,
00:07.3,0.001064301,-0.004257202,0.009052277,0,
00:07.3,0.001047134,-0.004257202,0.009075165,0,
00:07.3,0.001058578,-0.00425148,0.009069443,0,
00:07.3,0.001064301,-0.004257202,0.009092331,0,
00:07.3,0.001075745,-0.004285812,0.009023666,0,
00:07.3,0.001052856,-0.004291534,0.009029388,0,
00:07.3,0.001058578,-0.004274368,0.009086609,0,
00:07.3,0.001075745,-0.00425148,0.009115219,0,
00:07.3,0.001058578,-0.004240036,0.009086609,0,
00:07.3,0.001064301,-0.004234314,0.009046555,0,
00:07.3,0.001075745,-0.004245758,0.009029388,0,
00:07.3,0.001058578,-0.00425148,0.009080887,0,
00:07.3,0.001087189,-0.00425148,0.009075165,0,
00:07.4,0.001081467,-0.00425148,0.009040833,0,
00:07.4,0.001052856,-0.004257202,0.009046555,0,
00:07.4,0.001075745,-0.004245758,0.009080887,0,
00:07.4,0.001081467,-0.004257202,0.009057999,0,
00:07.4,0.001058578,-0.004268646,0.009075165,0,
00:07.4,0.001052856,-0.004257202,0.009069443,0,
00:07.4,0.001058578,-0.00425148,0.009046555,0,
00:07.4,0.001064301,-0.004245758,0.009063721,0,
00:07.4,0.001070023,-0.004257202,0.009029388,0,
00:07.4,0.001070023,-0.00425148,0.00903511,0,
00:07.4,0.001047134,-0.004257202,0.009109497,0,
00:07.4,0.001052856,-0.004257202,0.009103775,0,
00:07.4,0.001070023,-0.004262924,0.009075165,0,
00:07.4,0.001075745,-0.00425148,0.009040833,0,
00:07.4,0.001064301,-0.004240036,0.009075165,0,
00:07.4,0.001064301,-0.004240036,0.009046555,0,
00:07.4,0.001058578,-0.004245758,0.009040833,0,
00:07.4,0.001070023,-0.00425148,0.009075165,0,
00:07.4,0.001047134,-0.00425148,0.009109497,0,
00:07.4,0.001052856,-0.004228592,0.009103775,0,
00:07.4,0.001075745,-0.00422287,0.009069443,0,
00:07.4,0.001081467,-0.004228592,0.009063721,0,
00:07.4,0.001075745,-0.004245758,0.009063721,0,
00:07.4,0.001081467,-0.004234314,0.009017944,0,
00:07.4,0.001092911,-0.004228592,0.009040833,0,
00:07.5,0.001075745,-0.004228592,0.009057999,0,
00:07.5,0.001081467,-0.004228592,0.009023666,0,
00:07.5,0.001058578,-0.00425148,0.009063721,0,
00:07.5,0.001058578,-0.004240036,0.009120941,0,
00:07.5,0.001058578,-0.004234314,0.009057999,0,
00:07.5,0.001070023,-0.004240036,0.009057999,0,
00:07.5,0.001075745,-0.00425148,0.009052277,0,
00:07.5,0.001075745,-0.00425148,0.009069443,0,
00:07.5,0.001058578,-0.004245758,0.009086609,0,
00:07.5,0.001058578,-0.004240036,0.009063721,0,
00:07.5,0.001041412,-0.004262924,0.009069443,0,
00:07.5,0.001041412,-0.004268646,0.009063721,0,
00:07.5,0.001075745,-0.004245758,0.009063721,0,
00:07.5,0.001075745,-0.004234314,0.009080887,0,
00:07.5,0.001064301,-0.004234314,0.009063721,0,
00:07.5,0.001047134,-0.004245758,0.009023666,0,
00:07.5,0.001110077,-0.004228592,0.009000778,0,
00:07.5,0.001092911,-0.00425148,0.009040833,0,
00:07.5,0.001064301,-0.004262924,0.009086609,0,
00:07.5,0.001075745,-0.004257202,0.009063721,0,
00:07.5,0.001070023,-0.004234314,0.009046555,0,
00:07.5,0.001058578,-0.00422287,0.00903511,0,
00:07.5,0.001047134,-0.004240036,0.009075165,0,
00:07.5,0.001064301,-0.004245758,0.009069443,0,
00:07.5,0.001075745,-0.004234314,0.009040833,0,
00:07.6,0.001070023,-0.004228592,0.009052277,0,
00:07.6,0.001075745,-0.004234314,0.009017944,0,
00:07.6,0.001041412,-0.00425148,0.009057999,0,
00:07.6,0.001058578,-0.004234314,0.009098053,0,
00:07.6,0.001075745,-0.004234314,0.009046555,0,
00:07.6,0.001064301,-0.004245758,0.009063721,0,
00:07.6,0.001064301,-0.004234314,0.009040833,0,
00:07.6,0.001052856,-0.004240036,0.009040833,0,
00:07.6,0.001064301,-0.004240036,0.009052277,0,
00:07.6,0.001075745,-0.004245758,0.009012222,0,
00:07.6,0.00103569,-0.004245758,0.009023666,0,
00:07.6,0.001070023,-0.004240036,0.009063721,0,
00:07.6,0.001052856,-0.004262924,0.009063721,0,
00:07.6,0.001064301,-0.00425148,0.009052277,0,
00:07.6,0.001081467,-0.004228592,0.009023666,0,
00:07.6,0.001087189,-0.00422287,0.009040833,0,
00:07.6,0.001052856,-0.004228592,0.009052277,0,
00:07.6,0.001058578,-0.004234314,0.009040833,0,
00:07.6,0.001058578,-0.004240036,0.009075165,0,
00:07.6,0.001070023,-0.004240036,0.009017944,0,
00:07.6,0.001075745,-0.004240036,0.0090065,0,
00:07.6,0.001052856,-0.004234314,0.009052277,0,
00:07.6,0.001047134,-0.00425148,0.009086609,0,
00:07.6,0.001070023,-0.00425148,0.009040833,0,
00:07.6,0.001052856,-0.00425148,0.009029388,0,
00:07.7,0.001058578,-0.004245758,0.009052277,0,
00:07.7,0.001064301,-0.004228592,0.009023666,0,
00:07.7,0.001064301,-0.004228592,0.009075165,0,
00:07.7,0.001081467,-0.004228592,0.009063721,0,
00:07.7,0.001058578,-0.00422287,0.009023666,0,
00:07.7,0.001041412,-0.004234314,0.009046555,0,
00:07.7,0.001052856,-0.004228592,0.009046555,0,
00:07.7,0.001075745,-0.00422287,0.009029388,0,
00:07.7,0.001081467,-0.004205704,0.008955002,0,
00:07.7,0.001075745,-0.004217148,0.009000778,0,
00:07.7,0.001052856,-0.004234314,0.009086609,0,
00:07.7,0.001064301,-0.004240036,0.009075165,0,
00:07.7,0.001070023,-0.004234314,0.009052277,0,
00:07.7,0.001064301,-0.004240036,0.009040833,0,
00:07.7,0.001064301,-0.004240036,0.009029388,0,
00:07.7,0.001070023,-0.004228592,0.0090065,0,
00:07.7,0.001075745,-0.004211426,0.009029388,0,
00:07.7,0.001052856,-0.00422287,0.009029388,0,
00:07.7,0.001070023,-0.004245758,0.00903511,0,
00:07.7,0.001064301,-0.004234314,0.0090065,0,
00:07.7,0.001052856,-0.00422287,0.00903511,0,
00:07.7,0.001075745,-0.004211426,0.009040833,0,
00:07.7,0.001070023,-0.004217148,0.008995056,0,
00:07.7,0.001064301,-0.004217148,0.009109497,0,
00:07.7,0.001070023,-0.004217148,0.009069443,0,
00:07.8,0.001070023,-0.004217148,0.00903511,0,
00:07.8,0.001070023,-0.004211426,0.0090065,0,
00:07.8,0.001075745,-0.004205704,0.008972168,0,
00:07.8,0.001081467,-0.00419426,0.008995056,0,
00:07.8,0.001070023,-0.00419426,0.009069443,0,
00:07.8,0.001064301,-0.004211426,0.009069443,0,
00:07.8,0.001081467,-0.004217148,0.009057999,0,
00:07.8,0.001087189,-0.004211426,0.009046555,0,
00:07.8,0.001075745,-0.004211426,0.009023666,0,
00:07.8,0.001087189,-0.004211426,0.009012222,0,
00:07.8,0.001092911,-0.004228592,0.009012222,0,
00:07.8,0.001064301,-0.004234314,0.009052277,0,
00:07.8,0.001070023,-0.004240036,0.00903511,0,
00:07.8,0.001070023,-0.00422287,0.009057999,0,
00:07.8,0.001070023,-0.004205704,0.00903511,0,
00:07.8,0.001081467,-0.004211426,0.008989334,0,
00:07.8,0.001081467,-0.004205704,0.009029388,0,
00:07.8,0.001075745,-0.004199982,0.009063721,0,
00:07.8,0.001104355,-0.004188538,0.009029388,0,
00:07.8,0.001098633,-0.004217148,0.00897789,0,
00:07.8,0.001075745,-0.004234314,0.009029388,0,
00:07.8,0.001064301,-0.00422287,0.009040833,0,
00:07.8,0.001070023,-0.004205704,0.009046555,0,
00:07.8,0.001087189,-0.004188538,0.009029388,0,
00:07.8,0.001087189,-0.00419426,0.00903511,0,
00:07.9,0.001081467,-0.004211426,0.009040833,0,
00:07.9,0.001087189,-0.004217148,0.00903511,0,
00:07.9,0.001087189,-0.004217148,0.009017944,0,
00:07.9,0.001098633,-0.004205704,0.009017944,0,
00:07.9,0.001070023,-0.004199982,0.009040833,0,
00:07.9,0.001087189,-0.004182816,0.0090065,0,
00:07.9,0.001098633,-0.004177094,0.009000778,0,
00:07.9,0.001081467,-0.00419426,0.009012222,0,
00:07.9,0.001115799,-0.004188538,0.008989334,0,
00:07.9,0.001087189,-0.00419426,0.008989334,0,
00:07.9,0.001058578,-0.004205704,0.009046555,0,
00:07.9,0.001081467,-0.004199982,0.009040833,0,
00:07.9,0.001092911,-0.004188538,0.009052277,0,
00:07.9,0.001075745,-0.004199982,0.009046555,0,
00:07.9,0.001070023,-0.00419426,0.009017944,0,
00:07.9,0.001075745,-0.00419426,0.009029388,0,
00:07.9,0.001075745,-0.004199982,0.009000778,0,
00:07.9,0.001070023,-0.004211426,0.009040833,0,
00:07.9,0.001075745,-0.004188538,0.009052277,0,
00:07.9,0.001081467,-0.00419426,0.009040833,0,
00:07.9,0.001081467,-0.004199982,0.009017944,0,
00:07.9,0.001087189,-0.004182816,0.009000778,0,
00:07.9,0.001104355,-0.004165649,0.009023666,0,
00:07.9,0.001104355,-0.004165649,0.009017944,0,
00:07.9,0.001092911,-0.004188538,0.009012222,0,
00:08.0,0.001092911,-0.004177094,0.009017944,0,
00:08.0,0.001081467,-0.004177094,0.00897789,0,
00:08.0,0.001098633,-0.004177094,0.009023666,0,
00:08.0,0.001092911,-0.004188538,0.0090065,0,
00:08.0,0.001110077,-0.004171371,0.008972168,0,
00:08.0,0.001110077,-0.004159927,0.008989334,0,
00:08.0,0.001092911,-0.004159927,0.00903511,0,
00:08.0,0.001104355,-0.004159927,0.009029388,0,
00:08.0,0.001110077,-0.004154205,0.008995056,0,
00:08.0,0.001098633,-0.004148483,0.008989334,0,
00:08.0,0.001070023,-0.004171371,0.009012222,0,
00:08.0,0.001070023,-0.004171371,0.009012222,0,
00:00:08,0.001087189,-0.004171371,0.009023666,0,
00:08.0,0.001092911,-0.004171371,0.008989334,0,
00:08.0,0.001075745,-0.004177094,0.00903511,0,
00:08.0,0.001087189,-0.004182816,0.009029388,0,
00:08.0,0.001081467,-0.004171371,0.009000778,0,
00:08.0,0.001087189,-0.004159927,0.00903511,0,
00:08.0,0.001070023,-0.004171371,0.0090065,0,
00:08.0,0.001092911,-0.004159927,0.009023666,0,
00:08.0,0.001110077,-0.004154205,0.008966446,0,
00:08.0,0.001087189,-0.004165649,0.009000778,0,
00:08.0,0.001087189,-0.004159927,0.009046555,0,
00:08.0,0.001110077,-0.004159927,0.00897789,0,
00:08.0,0.001104355,-0.004154205,0.008960724,0,
00:08.1,0.001092911,-0.004154205,0.009023666,0,
00:08.1,0.001081467,-0.004142761,0.009012222,0,
00:08.1,0.001098633,-0.004131317,0.009000778,0,
00:08.1,0.001104355,-0.004142761,0.009000778,0,
00:08.1,0.001104355,-0.004142761,0.00903511,0,
00:08.1,0.001075745,-0.004154205,0.008983612,0,
00:08.1,0.001098633,-0.004148483,0.008966446,0,
00:08.1,0.001087189,-0.004142761,0.008972168,0,
00:08.1,0.001064301,-0.004154205,0.009023666,0,
00:08.1,0.001092911,-0.004159927,0.008989334,0,
00:08.1,0.001104355,-0.004154205,0.00897789,0,
00:08.1,0.001098633,-0.004142761,0.00897789,0,
00:08.1,0.001075745,-0.004142761,0.009029388,0,
00:08.1,0.001087189,-0.004137039,0.0090065,0,
00:08.1,0.001092911,-0.004137039,0.008995056,0,
00:08.1,0.001110077,-0.004131317,0.008966446,0,
00:08.1,0.001087189,-0.004142761,0.008972168,0,
00:08.1,0.001081467,-0.004142761,0.008972168,0,
00:08.1,0.001144409,-0.004131317,0.009000778,0,
00:08.1,0.001127243,-0.004131317,0.009000778,0,
00:08.1,0.001070023,-0.004148483,0.008972168,0,
00:08.1,0.001058578,-0.004137039,0.008983612,0,
00:08.1,0.001075745,-0.004137039,0.008955002,0,
00:08.1,0.001087189,-0.004142761,0.008972168,0,
00:08.1,0.001075745,-0.004137039,0.009029388,0,
00:08.2,0.001092911,-0.004114151,0.008972168,0,
00:08.2,0.001087189,-0.004119873,0.008972168,0,
00:08.2,0.001081467,-0.004131317,0.008989334,0,
00:08.2,0.001075745,-0.004142761,0.008966446,0,
00:08.2,0.001104355,-0.004137039,0.008960724,0,
00:08.2,0.001098633,-0.004131317,0.008966446,0,
00:08.2,0.001070023,-0.004154205,0.008995056,0,
00:08.2,0.001064301,-0.004154205,0.008983612,0,
00:08.2,0.001104355,-0.004119873,0.008972168,0,
00:08.2,0.001104355,-0.004131317,0.008955002,0,
00:08.2,0.001104355,-0.004137039,0.008983612,0,
00:08.2,0.001087189,-0.004142761,0.008972168,0,
00:08.2,0.001092911,-0.004142761,0.00897789,0,
00:08.2,0.001104355,-0.004125595,0.008995056,0,
00:08.2,0.001104355,-0.004114151,0.008937836,0,
00:08.2,0.001110077,-0.004125595,0.008943558,0,
00:08.2,0.001081467,-0.004125595,0.008966446,0,
00:08.2,0.001081467,-0.004125595,0.008966446,0,
00:08.2,0.001070023,-0.004131317,0.00897789,0,
00:08.2,0.001092911,-0.004131317,0.008972168,0,
00:08.2,0.001098633,-0.004137039,0.008937836,0,
00:08.2,0.001098633,-0.004131317,0.008937836,0,
00:08.2,0.001087189,-0.004125595,0.008995056,0,
00:08.2,0.001092911,-0.004131317,0.008972168,0,
00:08.2,0.001098633,-0.004131317,0.008960724,0,
00:08.3,0.001087189,-0.004131317,0.008932114,0,
00:08.3,0.001075745,-0.004148483,0.008972168,0,
00:08.3,0.001087189,-0.004142761,0.008995056,0,
00:08.3,0.001081467,-0.004137039,0.008955002,0,
00:08.3,0.001104355,-0.004114151,0.008932114,0,
00:08.3,0.001110077,-0.004119873,0.00894928,0,
00:08.3,0.001092911,-0.004142761,0.008943558,0,
00:08.3,0.001087189,-0.004142761,0.008914948,0,
00:08.3,0.001098633,-0.004137039,0.00894928,0,
00:08.3,0.001098633,-0.004142761,0.008960724,0,
00:08.3,0.001110077,-0.004131317,0.008937836,0,
00:08.3,0.001092911,-0.004137039,0.00897789,0,
00:08.3,0.001092911,-0.004137039,0.008972168,0,
00:08.3,0.001104355,-0.004125595,0.008903503,0,
00:08.3,0.001081467,-0.004114151,0.00892067,0,
00:08.3,0.001081467,-0.004131317,0.008989334,0,
00:08.3,0.001081467,-0.004148483,0.008989334,0,
00:08.3,0.001104355,-0.004137039,0.008972168,0,
00:08.3,0.001098633,-0.004137039,0.00892067,0,
00:08.3,0.001098633,-0.004131317,0.008886337,0,
00:08.3,0.001087189,-0.004125595,0.00894928,0,
00:08.3,0.001075745,-0.004142761,0.008966446,0,
00:08.3,0.001092911,-0.004142761,0.008972168,0,
00:08.3,0.001098633,-0.004137039,0.008943558,0,
00:08.3,0.001104355,-0.004108429,0.008914948,0,
00:08.4,0.001098633,-0.004108429,0.008937836,0,
00:08.4,0.001104355,-0.004108429,0.008966446,0,
00:08.4,0.001104355,-0.004108429,0.008892059,0,
00:08.4,0.001110077,-0.004102707,0.00892067,0,
00:08.4,0.001121521,-0.004108429,0.008909225,0,
00:08.4,0.001121521,-0.004125595,0.008874893,0,
00:08.4,0.001087189,-0.004137039,0.00894928,0,
00:08.4,0.001081467,-0.004142761,0.008932114,0,
00:08.4,0.001081467,-0.004137039,0.008972168,0,
00:08.4,0.001081467,-0.004131317,0.008926392,0,
00:08.4,0.001087189,-0.004125595,0.008897781,0,
00:08.4,0.001092911,-0.004114151,0.00894928,0,
00:08.4,0.001110077,-0.004119873,0.008932114,0,
00:08.4,0.001104355,-0.004125595,0.008937836,0,
00:08.4,0.001087189,-0.004137039,0.008897781,0,
00:08.4,0.001087189,-0.004125595,0.008914948,0,
00:08.4,0.001104355,-0.004108429,0.008960724,0,
00:08.4,0.001098633,-0.004108429,0.008943558,0,
00:08.4,0.001087189,-0.004119873,0.008914948,0,
00:08.4,0.001104355,-0.004114151,0.008914948,0,
00:08.4,0.001104355,-0.004114151,0.008926392,0,
00:08.4,0.001092911,-0.004096985,0.008926392,0,
00:08.4,0.001104355,-0.004102707,0.008897781,0,
00:08.4,0.001121521,-0.004108429,0.008909225,0,
00:08.4,0.001132965,-0.004114151,0.008834839,0,
00:08.5,0.001104355,-0.004125595,0.00892067,0,
00:08.5,0.001081467,-0.004119873,0.008937836,0,
00:08.5,0.001098633,-0.004108429,0.008914948,0,
00:08.5,0.001098633,-0.004108429,0.008909225,0,
00:08.5,0.001092911,-0.004102707,0.008892059,0,
00:08.5,0.001092911,-0.004108429,0.008926392,0,
00:08.5,0.001115799,-0.004108429,0.008932114,0,
00:08.5,0.001104355,-0.004114151,0.008932114,0,
00:08.5,0.001087189,-0.004108429,0.008926392,0,
00:08.5,0.001115799,-0.004096985,0.008903503,0,
00:08.5,0.001081467,-0.004108429,0.008892059,0,
00:08.5,0.001098633,-0.004108429,0.008914948,0,
00:08.5,0.001104355,-0.004108429,0.008892059,0,
00:08.5,0.001115799,-0.004108429,0.008897781,0,
00:08.5,0.001115799,-0.004102707,0.008886337,0,
00:08.5,0.001098633,-0.004114151,0.008909225,0,
00:08.5,0.001127243,-0.004108429,0.008874893,0,
00:08.5,0.001132965,-0.004096985,0.008869171,0,
00:08.5,0.001092911,-0.004102707,0.008892059,0,
00:08.5,0.001087189,-0.004102707,0.008926392,0,
00:08.5,0.001110077,-0.004096985,0.008874893,0,
00:08.5,0.001092911,-0.004102707,0.008892059,0,
00:08.5,0.001104355,-0.004091263,0.008897781,0,
00:08.5,0.001121521,-0.004079819,0.008874893,0,
00:08.5,0.001110077,-0.004074097,0.008932114,0,
00:08.6,0.001121521,-0.004085541,0.008903503,0,
00:08.6,0.001092911,-0.004096985,0.008903503,0,
00:08.6,0.001098633,-0.004102707,0.008903503,0,
00:08.6,0.001081467,-0.004096985,0.008909225,0,
00:08.6,0.001092911,-0.004091263,0.008874893,0,
00:08.6,0.001110077,-0.004085541,0.008869171,0,
00:08.6,0.001104355,-0.004096985,0.008892059,0,
00:08.6,0.001110077,-0.004091263,0.008897781,0,
00:08.6,0.001110077,-0.004091263,0.008863449,0,
00:08.6,0.001104355,-0.004096985,0.008846283,0,
00:08.6,0.001104355,-0.004091263,0.008846283,0,
00:08.6,0.001121521,-0.004091263,0.008880615,0,
00:08.6,0.001104355,-0.004079819,0.008852005,0,
00:08.6,0.001115799,-0.004074097,0.008823395,0,
00:08.6,0.001098633,-0.004096985,0.008897781,0,
00:08.6,0.001098633,-0.004079819,0.008937836,0,
00:08.6,0.001121521,-0.004079819,0.008886337,0,
00:08.6,0.001127243,-0.004074097,0.008874893,0,
00:08.6,0.001087189,-0.004068375,0.008886337,0,
00:08.6,0.001098633,-0.004074097,0.008880615,0,
00:08.6,0.001110077,-0.004091263,0.008857727,0,
00:08.6,0.001110077,-0.004096985,0.008823395,0,
00:08.6,0.001110077,-0.004085541,0.008892059,0,
00:08.6,0.001104355,-0.004062653,0.008880615,0,
00:08.6,0.001092911,-0.004074097,0.008892059,0,
00:08.7,0.001081467,-0.004085541,0.008874893,0,
00:08.7,0.001110077,-0.004068375,0.008846283,0,
00:08.7,0.001115799,-0.004062653,0.008852005,0,
00:08.7,0.001098633,-0.004056931,0.008869171,0,
00:08.7,0.001098633,-0.004068375,0.008886337,0,
00:08.7,0.001110077,-0.004068375,0.008874893,0,
00:08.7,0.001110077,-0.004074097,0.008823395,0,
00:08.7,0.001138687,-0.004068375,0.008840561,0,
00:08.7,0.001115799,-0.004062653,0.008834839,0,
00:08.7,0.001098633,-0.004062653,0.008852005,0,
00:08.7,0.001104355,-0.004062653,0.008846283,0,
00:08.7,0.001098633,-0.004074097,0.008903503,0,
00:08.7,0.001092911,-0.004068375,0.008886337,0,
00:08.7,0.001098633,-0.004062653,0.008857727,0,
00:08.7,0.001098633,-0.004068375,0.008857727,0,
00:08.7,0.001098633,-0.004074097,0.008829117,0,
00:08.7,0.001104355,-0.004079819,0.008817673,0,
00:08.7,0.001092911,-0.004096985,0.008840561,0,
00:08.7,0.001098633,-0.004085541,0.008857727,0,
00:08.7,0.001110077,-0.004068375,0.008852005,0,
00:08.7,0.001110077,-0.004074097,0.008846283,0,
00:08.7,0.001115799,-0.004068375,0.008823395,0,
00:08.7,0.001110077,-0.004091263,0.008857727,0,
00:08.7,0.001098633,-0.004085541,0.008869171,0,
00:08.7,0.001104355,-0.004056931,0.008863449,0,
00:08.8,0.001127243,-0.004051208,0.008840561,0,
00:08.8,0.001110077,-0.004068375,0.008800507,0,
00:08.8,0.001115799,-0.004068375,0.008829117,0,
00:08.8,0.001110077,-0.004062653,0.00878334,0,
00:08.8,0.001110077,-0.004074097,0.008829117,0,
00:08.8,0.001104355,-0.004079819,0.008869171,0,
00:08.8,0.001121521,-0.004074097,0.008811951,0,
00:08.8,0.001115799,-0.004074097,0.008846283,0,
00:08.8,0.001104355,-0.004085541,0.008852005,0,
00:08.8,0.001098633,-0.004091263,0.008823395,0,
00:08.8,0.001127243,-0.004079819,0.008789063,0,
00:08.8,0.001110077,-0.004074097,0.008800507,0,
00:08.8,0.001092911,-0.004079819,0.008846283,0,
00:08.8,0.001092911,-0.004079819,0.008852005,0,
00:08.8,0.001087189,-0.004102707,0.008846283,0,
00:08.8,0.001115799,-0.004091263,0.008823395,0,
00:08.8,0.001110077,-0.004079819,0.008817673,0,
00:08.8,0.001092911,-0.004085541,0.008823395,0,
00:08.8,0.001098633,-0.004074097,0.008857727,0,
00:08.8,0.001110077,-0.004068375,0.008806229,0,
00:08.8,0.001138687,-0.004068375,0.008777618,0,
00:08.8,0.001115799,-0.004079819,0.008817673,0,
00:08.8,0.001092911,-0.004085541,0.008863449,0,
00:08.8,0.001115799,-0.004068375,0.008806229,0,
00:08.8,0.001115799,-0.004068375,0.00878334,0,
00:08.9,0.001104355,-0.004085541,0.008794785,0,
00:08.9,0.001115799,-0.004062653,0.008811951,0,
00:08.9,0.001110077,-0.004074097,0.008823395,0,
00:08.9,0.001098633,-0.004085541,0.008829117,0,
00:08.9,0.001098633,-0.004091263,0.008811951,0,
00:08.9,0.001104355,-0.004091263,0.008811951,0,
00:08.9,0.001115799,-0.004068375,0.008817673,0,
00:08.9,0.001104355,-0.004068375,0.008834839,0,
00:08.9,0.001081467,-0.004074097,0.008806229,0,
00:08.9,0.001110077,-0.004068375,0.008760452,0,
00:08.9,0.001132965,-0.004045486,0.008771896,0,
00:08.9,0.001104355,-0.004062653,0.008806229,0,
00:08.9,0.001110077,-0.004068375,0.008817673,0,
00:08.9,0.001110077,-0.004074097,0.008829117,0,
00:08.9,0.001121521,-0.004074097,0.008834839,0,
00:08.9,0.001115799,-0.004068375,0.008789063,0,
00:08.9,0.001121521,-0.004068375,0.008760452,0,
00:08.9,0.001115799,-0.004074097,0.008771896,0,
00:08.9,0.001132965,-0.004068375,0.008811951,0,
00:08.9,0.001104355,-0.004079819,0.008800507,0,
00:08.9,0.001110077,-0.004056931,0.008806229,0,
00:08.9,0.001115799,-0.004039764,0.008806229,0,
00:08.9,0.001092911,-0.004045486,0.008817673,0,
00:08.9,0.001104355,-0.004068375,0.008806229,0,
00:08.9,0.001104355,-0.004074097,0.008800507,0,
00:09.0,0.001092911,-0.004085541,0.00875473,0,
00:09.0,0.001110077,-0.004062653,0.008800507,0,
00:09.0,0.001115799,-0.004062653,0.008840561,0,
00:09.0,0.001110077,-0.004039764,0.008823395,0,
00:09.0,0.001110077,-0.004051208,0.00878334,0,
00:09.0,0.001110077,-0.004056931,0.008789063,0,
00:09.0,0.001115799,-0.004045486,0.00875473,0,
00:09.0,0.001098633,-0.004062653,0.00875473,0,
00:09.0,0.001121521,-0.004051208,0.00878334,0,
00:09.0,0.001127243,-0.004051208,0.008760452,0,
00:09.0,0.001087189,-0.004068375,0.008737564,0,
00:09.0,0.001104355,-0.00402832,0.008846283,0,
00:00:09,0.001132965,-0.00402832,0.008766174,0,
00:09.0,0.001121521,-0.00402832,0.008743286,0,
00:09.0,0.001092911,-0.004034042,0.008794785,0,
00:09.0,0.001092911,-0.00402832,0.008817673,0,
00:09.0,0.001110077,-0.004022598,0.008823395,0,
00:09.0,0.001121521,-0.004022598,0.008806229,0,
00:09.0,0.001104355,-0.00402832,0.008800507,0,
00:09.0,0.001092911,-0.004045486,0.00878334,0,
00:09.0,0.001098633,-0.004045486,0.008766174,0,
00:09.0,0.001110077,-0.004039764,0.008794785,0,
00:09.0,0.001110077,-0.004022598,0.008777618,0,
00:09.0,0.001110077,-0.004016876,0.00878334,0,
00:09.0,0.001104355,-0.00402832,0.008771896,0,
00:09.1,0.001127243,-0.004034042,0.008720398,0,
00:09.1,0.001110077,-0.00402832,0.008766174,0,
00:09.1,0.001092911,-0.004022598,0.008811951,0,
00:09.1,0.001098633,-0.004022598,0.008817673,0,
00:09.1,0.001115799,-0.004022598,0.008789063,0,
00:09.1,0.001121521,-0.004011154,0.008714676,0,
00:09.1,0.001087189,-0.00402832,0.008771896,0,
00:09.1,0.001098633,-0.004039764,0.008789063,0,
00:09.1,0.001110077,-0.004034042,0.008771896,0,
00:09.1,0.001104355,-0.00402832,0.008766174,0,
00:09.1,0.001110077,-0.004022598,0.008766174,0,
00:09.1,0.001110077,-0.004011154,0.008777618,0,
00:09.1,0.001110077,-0.004005432,0.008766174,0,
00:09.1,0.001092911,-0.004011154,0.008760452,0,
00:09.1,0.001081467,-0.004016876,0.008760452,0,
00:09.1,0.001110077,-0.00399971,0.008760452,0,
00:09.1,0.001115799,-0.00399971,0.008777618,0,
00:09.1,0.001127243,-0.00399971,0.008760452,0,
00:09.1,0.001098633,-0.004011154,0.008794785,0,
00:09.1,0.001092911,-0.004016876,0.008777618,0,
00:09.1,0.001104355,-0.004011154,0.008794785,0,
00:09.1,0.001115799,-0.00399971,0.00875473,0,
00:09.1,0.001121521,-0.00399971,0.008731842,0,
00:09.1,0.001115799,-0.004016876,0.008743286,0,
00:09.1,0.001087189,-0.004022598,0.00872612,0,
00:09.2,0.001081467,-0.00402832,0.00878334,0,
00:09.2,0.001104355,-0.004022598,0.00878334,0,
00:09.2,0.001092911,-0.004011154,0.008766174,0,
00:09.2,0.001110077,-0.004005432,0.008720398,0,
00:09.2,0.001104355,-0.004005432,0.008691788,0,
00:09.2,0.001127243,-0.00399971,0.008737564,0,
00:09.2,0.001115799,-0.004011154,0.008771896,0,
00:09.2,0.001098633,-0.004022598,0.008760452,0,
00:09.2,0.001110077,-0.004011154,0.00875473,0,
00:09.2,0.001104355,-0.003988266,0.008703232,0,
00:09.2,0.001121521,-0.00399971,0.008749008,0,
00:09.2,0.001092911,-0.004005432,0.00872612,0,
00:09.2,0.001104355,-0.003993988,0.008703232,0,
00:09.2,0.001110077,-0.003993988,0.008760452,0,
00:09.2,0.001092911,-0.003993988,0.008766174,0,
00:09.2,0.001092911,-0.003988266,0.008743286,0,
00:09.2,0.001092911,-0.004005432,0.00878334,0,
00:09.2,0.001092911,-0.003993988,0.008766174,0,
00:09.2,0.001098633,-0.003993988,0.008737564,0,
00:09.2,0.001081467,-0.004022598,0.008714676,0,
00:09.2,0.001087189,-0.004016876,0.008714676,0,
00:09.2,0.001092911,-0.003988266,0.00872612,0,
00:09.2,0.001115799,-0.0039711,0.00869751,0,
00:09.2,0.001104355,-0.003988266,0.008743286,0,
00:09.2,0.001115799,-0.003993988,0.008760452,0,
00:09.3,0.001092911,-0.003993988,0.008766174,0,
00:09.3,0.001098633,-0.003982544,0.008749008,0,
00:09.3,0.001098633,-0.0039711,0.008737564,0,
00:09.3,0.001098633,-0.003982544,0.00872612,0,
00:09.3,0.001092911,-0.003988266,0.008749008,0,
00:09.3,0.001087189,-0.003988266,0.008731842,0,
00:09.3,0.001127243,-0.003988266,0.008703232,0,
00:09.3,0.001150131,-0.003993988,0.008686066,0,
00:09.3,0.001098633,-0.00399971,0.008691788,0,
00:09.3,0.001075745,-0.003993988,0.008737564,0,
00:09.3,0.001121521,-0.0039711,0.008691788,0,
00:09.3,0.001098633,-0.003982544,0.008720398,0,
00:09.3,0.001087189,-0.003988266,0.008777618,0,
00:09.3,0.001081467,-0.003982544,0.008760452,0,
00:09.3,0.001092911,-0.003982544,0.008737564,0,
00:09.3,0.001110077,-0.003982544,0.00869751,0,
00:09.3,0.001104355,-0.003988266,0.008646011,0,
00:09.3,0.001098633,-0.003993988,0.008731842,0,
00:09.3,0.001098633,-0.003993988,0.008766174,0,
00:09.3,0.001092911,-0.003976822,0.008737564,0,
00:09.3,0.001098633,-0.003965378,0.008731842,0,
00:09.3,0.001121521,-0.003959656,0.008708954,0,
00:09.3,0.001121521,-0.0039711,0.008640289,0,
00:09.3,0.001104355,-0.003982544,0.008680344,0,
00:09.3,0.001087189,-0.00399971,0.008789063,0,
00:09.4,0.001115799,-0.0039711,0.008720398,0,
00:09.4,0.001098633,-0.0039711,0.00869751,0,
00:09.4,0.001092911,-0.003982544,0.008743286,0,
00:09.4,0.001104355,-0.003982544,0.008714676,0,
00:09.4,0.001121521,-0.003976822,0.008703232,0,
00:09.4,0.001110077,-0.0039711,0.008708954,0,
00:09.4,0.001092911,-0.003965378,0.008691788,0,
00:09.4,0.001098633,-0.003976822,0.008708954,0,
00:09.4,0.001104355,-0.0039711,0.008686066,0,
00:09.4,0.001092911,-0.003976822,0.0086689,0,
00:09.4,0.001081467,-0.0039711,0.008640289,0,
00:09.4,0.001092911,-0.003965378,0.008646011,0,
00:09.4,0.001098633,-0.0039711,0.008651733,0,
00:09.4,0.001110077,-0.003976822,0.008657455,0,
00:09.4,0.001104355,-0.003982544,0.008749008,0,
00:09.4,0.001098633,-0.003976822,0.008708954,0,
00:09.4,0.001104355,-0.003953934,0.008691788,0,
00:09.4,0.001115799,-0.0039711,0.008680344,0,
00:09.4,0.001104355,-0.003988266,0.008691788,0,
00:09.4,0.001115799,-0.0039711,0.0086689,0,
00:09.4,0.001110077,-0.0039711,0.008674622,0,
00:09.4,0.001110077,-0.0039711,0.008703232,0,
00:09.4,0.001087189,-0.0039711,0.0086689,0,
00:09.4,0.001070023,-0.0039711,0.008708954,0,
00:09.4,0.001098633,-0.003959656,0.008686066,0,
00:09.5,0.001092911,-0.003965378,0.008651733,0,
00:09.5,0.001098633,-0.003976822,0.008686066,0,
00:09.5,0.001092911,-0.003976822,0.008657455,0,
00:09.5,0.001104355,-0.003965378,0.008691788,0,
00:09.5,0.001104355,-0.003953934,0.008663177,0,
00:09.5,0.001110077,-0.003948212,0.008617401,0,
00:09.5,0.001098633,-0.003953934,0.008657455,0,
00:09.5,0.001104355,-0.003965378,0.008646011,0,
00:09.5,0.001110077,-0.003959656,0.008640289,0,
00:09.5,0.001104355,-0.00394249,0.008691788,0,
00:09.5,0.001098633,-0.003948212,0.008686066,0,
00:09.5,0.001104355,-0.003965378,0.008634567,0,
00:09.5,0.001104355,-0.003959656,0.008657455,0,
00:09.5,0.001104355,-0.003953934,0.008674622,0,
00:09.5,0.001098633,-0.003959656,0.008640289,0,
00:09.5,0.001087189,-0.003988266,0.008646011,0,
00:09.5,0.001087189,-0.003988266,0.008651733,0,
00:09.5,0.001092911,-0.0039711,0.008691788,0,
00:09.5,0.001098633,-0.003948212,0.0086689,0,
00:09.5,0.001104355,-0.003953934,0.008628845,0,
00:09.5,0.001110077,-0.003948212,0.008628845,0,
00:09.5,0.001115799,-0.003936768,0.008680344,0,
00:09.5,0.001121521,-0.003931046,0.008623123,0,
00:09.5,0.001132965,-0.00394249,0.008583069,0,
00:09.5,0.001104355,-0.003953934,0.008663177,0,
00:09.6,0.001087189,-0.003953934,0.008686066,0,
00:09.6,0.001098633,-0.003959656,0.008657455,0,
00:09.6,0.001098633,-0.003965378,0.008617401,0,
00:09.6,0.001087189,-0.003959656,0.008663177,0,
00:09.6,0.001092911,-0.003948212,0.008651733,0,
00:09.6,0.001104355,-0.003936768,0.008611679,0,
00:09.6,0.001121521,-0.00394249,0.008583069,0,
00:09.6,0.001110077,-0.003953934,0.008663177,0,
00:09.6,0.001104355,-0.003948212,0.008663177,0,
00:09.6,0.001075745,-0.003948212,0.008611679,0,
00:09.6,0.001087189,-0.003953934,0.008646011,0,
00:09.6,0.001104355,-0.003936768,0.008651733,0,
00:09.6,0.001110077,-0.003936768,0.008640289,0,
00:09.6,0.001115799,-0.003919601,0.008628845,0,
00:09.6,0.001127243,-0.003936768,0.008588791,0,
00:09.6,0.001092911,-0.003953934,0.008634567,0,
00:09.6,0.001115799,-0.003953934,0.008628845,0,
00:09.6,0.001104355,-0.003959656,0.008628845,0,
00:09.6,0.001092911,-0.003953934,0.008651733,0,
00:09.6,0.001087189,-0.003953934,0.008634567,0,
00:09.6,0.001081467,-0.003936768,0.008623123,0,
00:09.6,0.001115799,-0.003925323,0.008623123,0,
00:09.6,0.001121521,-0.003931046,0.008605957,0,
00:09.6,0.001110077,-0.003925323,0.008577347,0,
00:09.6,0.001098633,-0.003925323,0.008594513,0,
00:09.7,0.001104355,-0.00394249,0.008605957,0,
00:09.7,0.001121521,-0.003936768,0.008646011,0,
00:09.7,0.001115799,-0.00394249,0.008617401,0,
00:09.7,0.001121521,-0.003925323,0.008611679,0,
00:09.7,0.001092911,-0.003936768,0.008634567,0,
00:09.7,0.001081467,-0.003953934,0.008657455,0,
00:09.7,0.001092911,-0.003953934,0.008611679,0,
00:09.7,0.001092911,-0.003948212,0.008611679,0,
00:09.7,0.001110077,-0.003948212,0.008605957,0,
00:09.7,0.001115799,-0.003948212,0.008583069,0,
00:09.7,0.001121521,-0.003948212,0.008577347,0,
00:09.7,0.001092911,-0.003948212,0.008594513,0,
00:09.7,0.001081467,-0.00394249,0.008640289,0,
00:09.7,0.001104355,-0.003913879,0.008611679,0,
00:09.7,0.001132965,-0.003925323,0.008554459,0,
00:09.7,0.001104355,-0.00394249,0.008605957,0,
00:09.7,0.001092911,-0.003936768,0.008634567,0,
00:09.7,0.001104355,-0.00394249,0.008623123,0,
00:09.7,0.001104355,-0.003925323,0.008617401,0,
00:09.7,0.001110077,-0.003919601,0.008583069,0,
00:09.7,0.001138687,-0.003931046,0.008554459,0,
00:09.7,0.001092911,-0.00394249,0.008594513,0,
00:09.7,0.001075745,-0.003948212,0.008634567,0,
00:09.7,0.001092911,-0.003953934,0.008623123,0,
00:09.7,0.001115799,-0.003936768,0.008600235,0,
00:09.8,0.001110077,-0.003931046,0.008577347,0,
00:09.8,0.001098633,-0.003936768,0.008605957,0,
00:09.8,0.001104355,-0.003948212,0.008605957,0,
00:09.8,0.001098633,-0.00394249,0.008605957,0,
00:09.8,0.001098633,-0.00394249,0.008605957,0,
00:09.8,0.001110077,-0.00394249,0.008548737,0,
00:09.8,0.001127243,-0.003925323,0.008594513,0,
00:09.8,0.001098633,-0.003931046,0.008588791,0,
00:09.8,0.001104355,-0.003948212,0.008577347,0,
00:09.8,0.001121521,-0.003948212,0.008611679,0,
00:09.8,0.001104355,-0.003948212,0.008583069,0,
00:09.8,0.001092911,-0.00394249,0.008588791,0,
00:09.8,0.001110077,-0.003931046,0.008600235,0,
00:09.8,0.001121521,-0.003913879,0.008577347,0,
00:09.8,0.001115799,-0.003913879,0.008537292,0,
00:09.8,0.001110077,-0.003931046,0.008565903,0,
00:09.8,0.001104355,-0.003936768,0.008646011,0,
00:09.8,0.001110077,-0.003931046,0.008611679,0,
00:09.8,0.001104355,-0.003925323,0.008560181,0,
00:09.8,0.001110077,-0.003925323,0.008605957,0,
00:09.8,0.001110077,-0.00394249,0.008600235,0,
00:09.8,0.001115799,-0.00394249,0.008565903,0,
00:09.8,0.001110077,-0.003936768,0.008583069,0,
00:09.8,0.001115799,-0.003925323,0.008594513,0,
00:09.8,0.001121521,-0.003913879,0.008565903,0,
00:09.9,0.001121521,-0.003908157,0.00853157,0,
00:09.9,0.001115799,-0.003931046,0.008583069,0,
00:09.9,0.001104355,-0.00394249,0.008600235,0,
00:09.9,0.001098633,-0.00394249,0.008577347,0,
00:09.9,0.001127243,-0.003919601,0.008514404,0,
00:09.9,0.001127243,-0.003896713,0.008508682,0,
00:09.9,0.001098633,-0.003919601,0.008560181,0,
00:09.9,0.001087189,-0.003925323,0.008611679,0,
00:09.9,0.001115799,-0.003913879,0.008611679,0,
00:09.9,0.001127243,-0.003931046,0.008565903,0,
00:09.9,0.001121521,-0.003931046,0.008491516,0,
00:09.9,0.001104355,-0.003925323,0.008565903,0,
00:09.9,0.001110077,-0.003925323,0.008617401,0,
00:09.9,0.001121521,-0.003919601,0.008577347,0,
00:09.9,0.001121521,-0.003919601,0.008543015,0,
00:09.9,0.001110077,-0.003936768,0.008577347,0,
00:09.9,0.001104355,-0.003953934,0.008565903,0,
00:09.9,0.001115799,-0.00394249,0.008548737,0,
00:09.9,0.001104355,-0.003919601,0.008583069,0,
00:09.9,0.001132965,-0.003908157,0.008514404,0,
00:09.9,0.001115799,-0.003913879,0.008508682,0,
00:09.9,0.001132965,-0.003913879,0.008577347,0,
00:09.9,0.001121521,-0.003913879,0.008560181,0,
00:09.9,0.001098633,-0.003919601,0.008583069,0,
00:09.9,0.001115799,-0.003913879,0.008565903,0,
00:10.0,0.001121521,-0.003908157,0.008525848,0,
00:10.0,0.001121521,-0.003908157,0.00853157,0,
00:10.0,0.001121521,-0.003913879,0.008543015,0,
00:10.0,0.001104355,-0.003919601,0.008537292,0,
00:10.0,0.001115799,-0.003908157,0.008497238,0,
00:10.0,0.001121521,-0.003902435,0.008543015,0,
00:10.0,0.001138687,-0.003902435,0.008537292,0,
00:10.0,0.001121521,-0.003890991,0.008525848,0,
00:10.0,0.001127243,-0.003885269,0.008548737,0,
00:10.0,0.001121521,-0.003902435,0.008520126,0,
00:10.0,0.001132965,-0.003913879,0.008525848,0,
00:10.0,0.001121521,-0.003925323,0.008537292,0,
00:00:10,0.001115799,-0.003913879,0.008548737,0,
00:10.0,0.001127243,-0.003908157,0.008565903,0,
00:10.0,0.001144409,-0.003908157,0.008525848,0,
00:10.0,0.001127243,-0.003913879,0.008508682,0,
00:10.0,0.001087189,-0.003925323,0.008543015,0,
00:10.0,0.001115799,-0.003908157,0.008520126,0,
00:10.0,0.001127243,-0.003896713,0.008457184,0,
00:10.0,0.001121521,-0.003902435,0.008514404,0,
00:10.0,0.001132965,-0.003896713,0.00853157,0,
00:10.0,0.001121521,-0.003908157,0.008554459,0,
00:10.0,0.001115799,-0.003908157,0.008548737,0,
00:10.0,0.001121521,-0.003919601,0.008537292,0,
00:10.0,0.001110077,-0.003913879,0.00853157,0,
