Elapsed_Time,EMG1,EMG2,EMG3,BioRadio Event,Unnamed: 5
00:00:00,-0.000944138,-0.001619339,0.007535934,0,
00:00.0,-0.000989914,-0.001665115,0.007587433,0,
00:00.0,-0.000972748,-0.001613617,0.007616043,0,
00:00.0,-0.000835419,-0.001459122,0.00769043,0,
00:00.0,-0.000898361,-0.001464844,0.007650375,0,
00:00.0,-0.000921249,-0.001567841,0.007696152,0,
00:00.0,-0.000955582,-0.001619339,0.007667542,0,
00:00.0,-0.000967026,-0.001642227,0.007627487,0,
00:00.0,-0.000938416,-0.001562119,0.007616043,0,
00:00.0,-0.000904083,-0.001487732,0.007610321,0,
00:00.0,-0.000955582,-0.001602173,0.007644653,0,
00:00.0,-0.000926971,-0.001653671,0.007593155,0,
00:00.0,-0.000892639,-0.001642227,0.007598877,0,
00:00.1,-0.000921249,-0.001573563,0.007604599,0,
00:00.1,-0.000909805,-0.001590729,0.007661819,0,
00:00.1,-0.000909805,-0.001493454,0.007730484,0,
00:00.1,-0.000972748,-0.001516342,0.007696152,0,
00:00.1,-0.000972748,-0.001567841,0.007696152,0,
00:00.1,-0.000841141,-0.001504898,0.007656097,0,
00:00.1,-0.000926971,-0.001590729,0.007587433,0,
00:00.1,-0.001041412,-0.001642227,0.007610321,0,
00:00.1,-0.000967026,-0.001602173,0.007633209,0,
00:00.1,-0.000984192,-0.001573563,0.007610321,0,
00:00.1,-0.000875473,-0.001533508,0.007558823,0,
00:00.1,-0.000864029,-0.001596451,0.007627487,0,
00:00.1,-0.000944138,-0.001653671,0.007753372,0,
00:00.1,-0.000904083,-0.001556396,0.007736206,0,
00:00.1,-0.001012802,-0.001607895,0.007753372,0,
00:00.1,-0.000967026,-0.001630783,0.00769043,0,
00:00.1,-0.000967026,-0.001579285,0.007644653,0,
00:00.1,-0.000955582,-0.001613617,0.007593155,0,
00:00.1,-0.000812531,-0.00148201,0.00771904,0,
00:00.1,-0.000944138,-0.001544952,0.00774765,0,
00:00.1,-0.001115799,-0.001722336,0.007530212,0,
00:00.1,-0.001058578,-0.001647949,0.007621765,0,
00:00.1,-0.000921249,-0.001567841,0.007616043,0,
00:00.1,-0.000921249,-0.001573563,0.007678986,0,
00:00.1,-0.000898361,-0.001613617,0.007701874,0,
00:00.2,-0.000932693,-0.001573563,0.007713318,0,
00:00.2,-0.00097847,-0.001567841,0.007713318,0,
00:00.2,-0.000984192,-0.001585007,0.007627487,0,
00:00.2,-0.000921249,-0.001556396,0.00769043,0,
00:00.2,-0.000915527,-0.001533508,0.007638931,0,
00:00.2,-0.000886917,-0.001533508,0.007707596,0,
00:00.2,-0.000835419,-0.001642227,0.00774765,0,
00:00.2,-0.000898361,-0.001653671,0.007736206,0,
00:00.2,-0.001075745,-0.001745224,0.007701874,0,
00:00.2,-0.001024246,-0.001647949,0.00769043,0,
00:00.2,-0.000944138,-0.001504898,0.00771904,0,
00:00.2,-0.000909805,-0.001504898,0.00774765,0,
00:00.2,-0.000904083,-0.001550674,0.00771904,0,
00:00.2,-0.00097847,-0.001585007,0.007764816,0,
00:00.2,-0.000989914,-0.001688004,0.007621765,0,
00:00.2,-0.00100708,-0.001693726,0.007558823,0,
00:00.2,-0.000961304,-0.001590729,0.00774765,0,
00:00.2,-0.000909805,-0.001590729,0.007759094,0,
00:00.2,-0.000926971,-0.001596451,0.007730484,0,
00:00.2,-0.000967026,-0.001590729,0.007621765,0,
00:00.2,-0.000801086,-0.001533508,0.007656097,0,
00:00.2,-0.000921249,-0.001550674,0.00777626,0,
00:00.2,-0.001029968,-0.001625061,0.007816315,0,
00:00.2,-0.001029968,-0.001607895,0.007730484,0,
00:00.2,-0.000995636,-0.00153923,0.007787704,0,
00:00.3,-0.000904083,-0.001544952,0.00769043,0,
00:00.3,-0.000921249,-0.001590729,0.00771904,0,
00:00.3,-0.000915527,-0.001602173,0.007787704,0,
00:00.3,-0.000967026,-0.001596451,0.007764816,0,
00:00.3,-0.000938416,-0.001659393,0.007770538,0,
00:00.3,-0.000926971,-0.00173378,0.007822037,0,
00:00.3,-0.00097847,-0.001710892,0.007736206,0,
00:00.3,-0.00097847,-0.001659393,0.007678986,0,
00:00.3,-0.000955582,-0.001653671,0.007753372,0,
00:00.3,-0.000932693,-0.001602173,0.007753372,0,
00:00.3,-0.000892639,-0.001590729,0.007741928,0,
00:00.3,-0.000898361,-0.001550674,0.00774765,0,
00:00.3,-0.000944138,-0.001487732,0.007638931,0,
00:00.3,-0.000938416,-0.001419067,0.007507324,0,
00:00.3,-0.000921249,-0.001573563,0.007753372,0,
00:00.3,-0.000989914,-0.001659393,0.007879257,0,
00:00.3,-0.000961304,-0.001602173,0.007879257,0,
00:00.3,-0.000909805,-0.001619339,0.007810593,0,
00:00.3,-0.000909805,-0.001625061,0.007781982,0,
00:00.3,-0.001024246,-0.001739502,0.007793427,0,
00:00.3,-0.001081467,-0.001745224,0.007707596,0,
00:00.3,-0.000967026,-0.001642227,0.007741928,0,
00:00.3,-0.000898361,-0.001596451,0.007810593,0,
00:00.3,-0.000904083,-0.001585007,0.007770538,0,
00:00.3,-0.00097847,-0.00153923,0.007759094,0,
00:00.4,-0.001024246,-0.001550674,0.007701874,0,
00:00.4,-0.000989914,-0.001619339,0.007644653,0,
00:00.4,-0.000812531,-0.001585007,0.007833481,0,
00:00.4,-0.000926971,-0.001670837,0.007816315,0,
00:00.4,-0.000961304,-0.001630783,0.007827759,0,
00:00.4,-0.000915527,-0.001579285,0.007833481,0,
00:00.4,-0.000932693,-0.001596451,0.007781982,0,
00:00.4,-0.00094986,-0.001625061,0.007793427,0,
00:00.4,-0.000967026,-0.001613617,0.007804871,0,
00:00.4,-0.000984192,-0.001636505,0.00777626,0,
00:00.4,-0.00103569,-0.001699448,0.007741928,0,
00:00.4,-0.000944138,-0.001630783,0.007770538,0,
00:00.4,-0.000915527,-0.001573563,0.007701874,0,
00:00.4,-0.000944138,-0.001625061,0.007730484,0,
00:00.4,-0.001018524,-0.001625061,0.007736206,0,
00:00.4,-0.000869751,-0.001504898,0.007839203,0,
00:00.4,-0.000915527,-0.001670837,0.007827759,0,
00:00.4,-0.000989914,-0.001676559,0.007810593,0,
00:00.4,-0.000972748,-0.001613617,0.007787704,0,
00:00.4,-0.000955582,-0.001590729,0.007724762,0,
00:00.4,-0.000932693,-0.001567841,0.007787704,0,
00:00.4,-0.000961304,-0.001630783,0.007890701,0,
00:00.4,-0.00097847,-0.001602173,0.007753372,0,
00:00.4,-0.000972748,-0.001613617,0.007753372,0,
00:00.4,-0.00094986,-0.001768112,0.007862091,0,
00:00.5,-0.000904083,-0.001688004,0.007839203,0,
00:00.5,-0.000944138,-0.001619339,0.007804871,0,
00:00.5,-0.00097847,-0.001607895,0.007833481,0,
00:00.5,-0.000995636,-0.001585007,0.007804871,0,
00:00.5,-0.000961304,-0.001647949,0.007793427,0,
00:00.5,-0.000886917,-0.001642227,0.007764816,0,
00:00.5,-0.000995636,-0.001602173,0.007644653,0,
00:00.5,-0.000932693,-0.001487732,0.00777626,0,
00:00.5,-0.000926971,-0.001688004,0.007930756,0,
00:00.5,-0.000967026,-0.001693726,0.007907867,0,
00:00.5,-0.000938416,-0.001619339,0.007890701,0,
00:00.5,-0.000944138,-0.001630783,0.007850647,0,
00:00.5,-0.000972748,-0.001659393,0.007770538,0,
00:00.5,-0.000932693,-0.001613617,0.007764816,0,
00:00.5,-0.000955582,-0.001636505,0.007759094,0,
00:00.5,-0.000915527,-0.001647949,0.007833481,0,
00:00.5,-0.000915527,-0.001636505,0.007850647,0,
00:00.5,-0.000915527,-0.001579285,0.007816315,0,
00:00.5,-0.000961304,-0.001619339,0.007810593,0,
00:00.5,-0.001047134,-0.001693726,0.007736206,0,
00:00.5,-0.000961304,-0.001653671,0.007884979,0,
00:00.5,-0.000875473,-0.001630783,0.007856369,0,
00:00.5,-0.000967026,-0.001659393,0.007764816,0,
00:00.5,-0.000972748,-0.001642227,0.007816315,0,
00:00.5,-0.000909805,-0.001556396,0.007787704,0,
00:00.6,-0.000932693,-0.001544952,0.007862091,0,
00:00.6,-0.000972748,-0.001585007,0.007890701,0,
00:00.6,-0.000938416,-0.001602173,0.007913589,0,
00:00.6,-0.000938416,-0.001653671,0.007816315,0,
00:00.6,-0.000921249,-0.001653671,0.007844925,0,
00:00.6,-0.000995636,-0.001647949,0.007781982,0,
00:00.6,-0.000955582,-0.001647949,0.007787704,0,
00:00.6,-0.000875473,-0.001590729,0.008005142,0,
00:00.6,-0.000915527,-0.001693726,0.007839203,0,
00:00.6,-0.000967026,-0.001710892,0.007764816,0,
00:00.6,-0.000926971,-0.001573563,0.007862091,0,
00:00.6,-0.001052856,-0.001716614,0.00777626,0,
00:00.6,-0.00103569,-0.001682281,0.007736206,0,
00:00.6,-0.000858307,-0.001579285,0.007947922,0,
00:00.6,-0.000972748,-0.001699448,0.007804871,0,
00:00.6,-0.001052856,-0.001642227,0.007844925,0,
00:00.6,-0.000961304,-0.001590729,0.007873535,0,
00:00.6,-0.000944138,-0.001585007,0.007799149,0,
00:00.6,-0.000886917,-0.001596451,0.007879257,0,
00:00.6,-0.000886917,-0.001607895,0.007953644,0,
00:00.6,-0.000961304,-0.001602173,0.007930756,0,
00:00.6,-0.000938416,-0.001579285,0.007902145,0,
00:00.6,-0.000944138,-0.001653671,0.007856369,0,
00:00.6,-0.000972748,-0.001745224,0.007799149,0,
00:00.6,-0.000921249,-0.001745224,0.007793427,0,
00:00.7,-0.000989914,-0.001688004,0.00777626,0,
00:00.7,-0.000932693,-0.001504898,0.007896423,0,
00:00.7,-0.000932693,-0.001493454,0.007965088,0,
00:00.7,-0.000932693,-0.001590729,0.007793427,0,
00:00.7,-0.000967026,-0.001693726,0.007781982,0,
00:00.7,-0.00103569,-0.001710892,0.007902145,0,
00:00.7,-0.000926971,-0.001659393,0.007925034,0,
00:00.7,-0.000909805,-0.001636505,0.007856369,0,
00:00.7,-0.00103569,-0.00170517,0.007862091,0,
00:00.7,-0.001081467,-0.001796722,0.007822037,0,
00:00.7,-0.001012802,-0.001728058,0.007816315,0,
00:00.7,-0.000921249,-0.001567841,0.007873535,0,
00:00.7,-0.000846863,-0.001522064,0.007959366,0,
00:00.7,-0.000932693,-0.001573563,0.007879257,0,
00:00.7,-0.000944138,-0.001556396,0.007873535,0,
00:00.7,-0.000904083,-0.001585007,0.007844925,0,
00:00.7,-0.000926971,-0.001676559,0.007879257,0,
00:00.7,-0.000926971,-0.001670837,0.007839203,0,
00:00.7,-0.00094986,-0.001659393,0.007982254,0,
00:00.7,-0.000858307,-0.001562119,0.0079422,0,
00:00.7,-0.000898361,-0.001676559,0.007867813,0,
00:00.7,-0.001001358,-0.001716614,0.007873535,0,
00:00.7,-0.001001358,-0.001625061,0.007907867,0,
00:00.7,-0.000967026,-0.001613617,0.007902145,0,
00:00.7,-0.001012802,-0.001607895,0.007804871,0,
00:00.8,-0.00097847,-0.001579285,0.007741928,0,
00:00.8,-0.000909805,-0.001722336,0.007862091,0,
00:00.8,-0.000864029,-0.00176239,0.007930756,0,
00:00.8,-0.000961304,-0.001716614,0.007925034,0,
00:00.8,-0.000904083,-0.001516342,0.007873535,0,
00:00.8,-0.000961304,-0.001556396,0.007879257,0,
00:00.8,-0.000955582,-0.001665115,0.007896423,0,
00:00.8,-0.000926971,-0.001630783,0.007993698,0,
00:00.8,-0.00097847,-0.001659393,0.007902145,0,
00:00.8,-0.000989914,-0.001607895,0.007839203,0,
00:00.8,-0.001001358,-0.001676559,0.007833481,0,
00:00.8,-0.000858307,-0.001693726,0.008022308,0,
00:00.8,-0.000989914,-0.00176239,0.007890701,0,
00:00.8,-0.001052856,-0.001716614,0.007827759,0,
00:00.8,-0.000955582,-0.001670837,0.007925034,0,
00:00.8,-0.000955582,-0.001653671,0.007902145,0,
00:00.8,-0.000904083,-0.001619339,0.007896423,0,
00:00.8,-0.000864029,-0.001527786,0.007879257,0,
00:00.8,-0.000829697,-0.001499176,0.007896423,0,
00:00.8,-0.000864029,-0.001636505,0.007884979,0,
00:00.8,-0.000944138,-0.001590729,0.007930756,0,
00:00.8,-0.000961304,-0.001636505,0.007890701,0,
00:00.8,-0.000881195,-0.001590729,0.007959366,0,
00:00.8,-0.000967026,-0.001647949,0.007879257,0,
00:00.8,-0.001024246,-0.001808167,0.007839203,0,
00:00.9,-0.000989914,-0.001722336,0.007902145,0,
00:00.9,-0.00100708,-0.001682281,0.007804871,0,
00:00.9,-0.00097847,-0.001659393,0.007844925,0,
00:00.9,-0.000881195,-0.001579285,0.007936478,0,
00:00.9,-0.000852585,-0.00153923,0.007953644,0,
00:00.9,-0.000886917,-0.001562119,0.007913589,0,
00:00.9,-0.000846863,-0.001602173,0.007810593,0,
00:00.9,-0.000944138,-0.001630783,0.007787704,0,
00:00.9,-0.000904083,-0.001636505,0.007896423,0,
00:00.9,-0.000984192,-0.001722336,0.007976532,0,
00:00.9,-0.00097847,-0.001665115,0.00799942,0,
00:00.9,-0.000967026,-0.001630783,0.0079422,0,
00:00.9,-0.000898361,-0.001550674,0.007965088,0,
00:00.9,-0.000944138,-0.001619339,0.007919312,0,
00:00.9,-0.000869751,-0.001670837,0.007890701,0,
00:00.9,-0.000881195,-0.00173378,0.007844925,0,
00:00.9,-0.000898361,-0.001756668,0.007804871,0,
00:00.9,-0.00097847,-0.001688004,0.007925034,0,
00:00.9,-0.000921249,-0.001573563,0.007947922,0,
00:00.9,-0.000967026,-0.001619339,0.007953644,0,
00:00.9,-0.000967026,-0.001625061,0.007907867,0,
00:00.9,-0.000864029,-0.001619339,0.007913589,0,
00:00.9,-0.000875473,-0.001556396,0.007925034,0,
00:00.9,-0.000926971,-0.001625061,0.007947922,0,
00:00.9,-0.000967026,-0.001653671,0.007787704,0,
00:01.0,-0.000858307,-0.001607895,0.007713318,0,
00:01.0,-0.000898361,-0.001699448,0.007936478,0,
00:01.0,-0.000995636,-0.001665115,0.008033752,0,
00:01.0,-0.000898361,-0.001522064,0.008005142,0,
00:01.0,-0.000892639,-0.001516342,0.007913589,0,
00:01.0,-0.000944138,-0.001619339,0.007953644,0,
00:01.0,-0.000972748,-0.00173378,0.007827759,0,
00:01.0,-0.000938416,-0.001670837,0.0079422,0,
00:01.0,-0.000944138,-0.001659393,0.007930756,0,
00:01.0,-0.000938416,-0.001688004,0.007884979,0,
00:01.0,-0.000875473,-0.001625061,0.007993698,0,
00:01.0,-0.000915527,-0.001596451,0.007907867,0,
00:00:01,-0.000898361,-0.001573563,0.007959366,0,
00:01.0,-0.000892639,-0.001573563,0.007982254,0,
00:01.0,-0.000932693,-0.001688004,0.007947922,0,
00:01.0,-0.000915527,-0.001722336,0.007947922,0,
00:01.0,-0.000995636,-0.001647949,0.007884979,0,
00:01.0,-0.00094986,-0.001602173,0.007930756,0,
00:01.0,-0.000921249,-0.001579285,0.007953644,0,
00:01.0,-0.000926971,-0.001676559,0.007907867,0,
00:01.0,-0.000898361,-0.001653671,0.007896423,0,
00:01.0,-0.000886917,-0.001567841,0.007867813,0,
00:01.0,-0.000898361,-0.001585007,0.007764816,0,
00:01.0,-0.000864029,-0.001607895,0.007919312,0,
00:01.0,-0.000932693,-0.001596451,0.008131027,0,
00:01.1,-0.000961304,-0.001590729,0.007959366,0,
00:01.1,-0.00097847,-0.001613617,0.007913589,0,
00:01.1,-0.000944138,-0.001613617,0.007976532,0,
00:01.1,-0.000898361,-0.001699448,0.007987976,0,
00:01.1,-0.000955582,-0.001716614,0.0079422,0,
00:01.1,-0.000881195,-0.001544952,0.007936478,0,
00:01.1,-0.000818253,-0.001499176,0.007913589,0,
00:01.1,-0.000972748,-0.001630783,0.007936478,0,
00:01.1,-0.000961304,-0.001613617,0.007959366,0,
00:01.1,-0.000852585,-0.001619339,0.0079422,0,
00:01.1,-0.000967026,-0.001699448,0.007959366,0,
00:01.1,-0.000915527,-0.001699448,0.007930756,0,
00:01.1,-0.000955582,-0.001670837,0.007907867,0,
00:01.1,-0.000944138,-0.001602173,0.00797081,0,
00:01.1,-0.000898361,-0.001550674,0.007959366,0,
00:01.1,-0.000892639,-0.001567841,0.00797081,0,
00:01.1,-0.000886917,-0.001602173,0.007913589,0,
00:01.1,-0.000932693,-0.001585007,0.007959366,0,
00:01.1,-0.000904083,-0.001573563,0.007947922,0,
00:01.1,-0.000789642,-0.001556396,0.008045197,0,
00:01.1,-0.000886917,-0.001642227,0.007936478,0,
00:01.1,-0.000967026,-0.001653671,0.007862091,0,
00:01.1,-0.000989914,-0.001619339,0.007930756,0,
00:01.1,-0.001012802,-0.001607895,0.007936478,0,
00:01.1,-0.000955582,-0.001596451,0.007959366,0,
00:01.2,-0.000984192,-0.001756668,0.007965088,0,
00:01.2,-0.000944138,-0.00176239,0.007902145,0,
00:01.2,-0.000806808,-0.001642227,0.007976532,0,
00:01.2,-0.000938416,-0.001579285,0.007965088,0,
00:01.2,-0.000915527,-0.001533508,0.007936478,0,
00:01.2,-0.000921249,-0.001544952,0.007913589,0,
00:01.2,-0.000892639,-0.001573563,0.008022308,0,
00:01.2,-0.000858307,-0.001636505,0.007913589,0,
00:01.2,-0.000898361,-0.001556396,0.007867813,0,
00:01.2,-0.00100708,-0.001590729,0.008062363,0,
00:01.2,-0.000932693,-0.001596451,0.008010864,0,
00:01.2,-0.000955582,-0.001602173,0.008016586,0,
00:01.2,-0.000915527,-0.001590729,0.0079422,0,
00:01.2,-0.000909805,-0.001579285,0.007919312,0,
00:01.2,-0.000892639,-0.001670837,0.007925034,0,
00:01.2,-0.000875473,-0.001728058,0.008016586,0,
00:01.2,-0.000909805,-0.001659393,0.008050919,0,
00:01.2,-0.000864029,-0.001527786,0.007947922,0,
00:01.2,-0.000886917,-0.001522064,0.007913589,0,
00:01.2,-0.000909805,-0.001516342,0.007913589,0,
00:01.2,-0.000967026,-0.001676559,0.007925034,0,
00:01.2,-0.001018524,-0.001693726,0.007890701,0,
00:01.2,-0.000984192,-0.001682281,0.007925034,0,
00:01.2,-0.000898361,-0.001636505,0.007907867,0,
00:01.2,-0.000801086,-0.001585007,0.008039474,0,
00:01.3,-0.00094986,-0.001613617,0.007987976,0,
00:01.3,-0.000984192,-0.001619339,0.007925034,0,
00:01.3,-0.000938416,-0.001636505,0.007890701,0,
00:01.3,-0.000886917,-0.001602173,0.007862091,0,
00:01.3,-0.000892639,-0.001585007,0.008022308,0,
00:01.3,-0.000898361,-0.001602173,0.008062363,0,
00:01.3,-0.000938416,-0.001670837,0.007936478,0,
00:01.3,-0.000875473,-0.001556396,0.007936478,0,
00:01.3,-0.000875473,-0.001504898,0.008073807,0,
00:01.3,-0.000938416,-0.001567841,0.007976532,0,
00:01.3,-0.000967026,-0.001607895,0.007890701,0,
00:01.3,-0.000967026,-0.001596451,0.007913589,0,
00:01.3,-0.000898361,-0.001619339,0.007965088,0,
00:01.3,-0.000886917,-0.001665115,0.008005142,0,
00:01.3,-0.000909805,-0.001716614,0.007873535,0,
00:01.3,-0.000909805,-0.001630783,0.007953644,0,
00:01.3,-0.000909805,-0.001579285,0.007959366,0,
00:01.3,-0.000909805,-0.001573563,0.007953644,0,
00:01.3,-0.000852585,-0.001573563,0.00802803,0,
00:01.3,-0.000886917,-0.001596451,0.007993698,0,
00:01.3,-0.000932693,-0.001567841,0.00802803,0,
00:01.3,-0.000938416,-0.001533508,0.008016586,0,
00:01.3,-0.001001358,-0.001625061,0.007993698,0,
00:01.3,-0.000852585,-0.001756668,0.007844925,0,
00:01.3,-0.000818253,-0.001590729,0.007959366,0,
00:01.4,-0.001001358,-0.001625061,0.007987976,0,
00:01.4,-0.001001358,-0.001665115,0.00797081,0,
00:01.4,-0.000938416,-0.001630783,0.007907867,0,
00:01.4,-0.000886917,-0.001579285,0.007919312,0,
00:01.4,-0.000926971,-0.001607895,0.007936478,0,
00:01.4,-0.000909805,-0.001647949,0.008022308,0,
00:01.4,-0.000864029,-0.001613617,0.008022308,0,
00:01.4,-0.000892639,-0.001585007,0.007965088,0,
00:01.4,-0.000904083,-0.001550674,0.007919312,0,
00:01.4,-0.000898361,-0.001550674,0.007987976,0,
00:01.4,-0.000898361,-0.001596451,0.007987976,0,
00:01.4,-0.000926971,-0.001647949,0.00797081,0,
00:01.4,-0.000915527,-0.001642227,0.00797081,0,
00:01.4,-0.000955582,-0.001556396,0.007936478,0,
00:01.4,-0.000864029,-0.001499176,0.007884979,0,
00:01.4,-0.000858307,-0.001693726,0.007896423,0,
00:01.4,-0.000984192,-0.001750946,0.00802803,0,
00:01.4,-0.000926971,-0.001636505,0.008079529,0,
00:01.4,-0.000926971,-0.001665115,0.007976532,0,
00:01.4,-0.000944138,-0.001630783,0.007959366,0,
00:01.4,-0.000932693,-0.001596451,0.007987976,0,
00:01.4,-0.000926971,-0.001602173,0.007965088,0,
00:01.4,-0.000886917,-0.001625061,0.008005142,0,
00:01.4,-0.000886917,-0.001567841,0.007959366,0,
00:01.4,-0.000904083,-0.001585007,0.007936478,0,
00:01.5,-0.000852585,-0.001579285,0.008005142,0,
00:01.5,-0.000921249,-0.001596451,0.00802803,0,
00:01.5,-0.000967026,-0.001562119,0.007965088,0,
00:01.5,-0.000904083,-0.001550674,0.007947922,0,
00:01.5,-0.000886917,-0.00153923,0.007976532,0,
00:01.5,-0.000869751,-0.001550674,0.007959366,0,
00:01.5,-0.000932693,-0.001722336,0.008010864,0,
00:01.5,-0.000938416,-0.00173378,0.008005142,0,
00:01.5,-0.000915527,-0.001636505,0.007902145,0,
00:01.5,-0.000904083,-0.001562119,0.007907867,0,
00:01.5,-0.000886917,-0.00153923,0.008010864,0,
00:01.5,-0.000909805,-0.001567841,0.008022308,0,
00:01.5,-0.000904083,-0.001619339,0.007987976,0,
00:01.5,-0.000921249,-0.001636505,0.007965088,0,
00:01.5,-0.000886917,-0.001682281,0.007925034,0,
00:01.5,-0.00097847,-0.001710892,0.007987976,0,
00:01.5,-0.000921249,-0.001619339,0.008039474,0,
00:01.5,-0.000869751,-0.001527786,0.008016586,0,
00:01.5,-0.000961304,-0.00151062,0.007987976,0,
00:01.5,-0.000938416,-0.001602173,0.0079422,0,
00:01.5,-0.000858307,-0.001567841,0.008010864,0,
00:01.5,-0.000823975,-0.001596451,0.007982254,0,
00:01.5,-0.00078392,-0.001573563,0.007953644,0,
00:01.5,-0.000915527,-0.001579285,0.00797081,0,
00:01.5,-0.000995636,-0.001665115,0.007947922,0,
00:01.6,-0.00097847,-0.001647949,0.007993698,0,
00:01.6,-0.000909805,-0.001590729,0.007987976,0,
00:01.6,-0.000932693,-0.001556396,0.007953644,0,
00:01.6,-0.000915527,-0.001550674,0.007982254,0,
00:01.6,-0.000961304,-0.001665115,0.007896423,0,
00:01.6,-0.000972748,-0.001653671,0.008010864,0,
00:01.6,-0.000932693,-0.001602173,0.008022308,0,
00:01.6,-0.000915527,-0.001670837,0.007947922,0,
00:01.6,-0.000852585,-0.001665115,0.007907867,0,
00:01.6,-0.000852585,-0.001573563,0.008073807,0,
00:01.6,-0.000846863,-0.00151062,0.008039474,0,
00:01.6,-0.000904083,-0.001573563,0.007953644,0,
00:01.6,-0.000904083,-0.001625061,0.00797081,0,
00:01.6,-0.000898361,-0.001607895,0.008039474,0,
00:01.6,-0.000938416,-0.001562119,0.008022308,0,
00:01.6,-0.000892639,-0.001527786,0.008005142,0,
00:01.6,-0.000921249,-0.001590729,0.00799942,0,
00:01.6,-0.000921249,-0.001613617,0.007993698,0,
00:01.6,-0.000926971,-0.001596451,0.007982254,0,
00:01.6,-0.000886917,-0.001579285,0.008016586,0,
00:01.6,-0.000898361,-0.001659393,0.007947922,0,
00:01.6,-0.000915527,-0.001665115,0.007907867,0,
00:01.6,-0.000898361,-0.001647949,0.007919312,0,
00:01.6,-0.000921249,-0.001562119,0.007993698,0,
00:01.6,-0.000886917,-0.00151062,0.008050919,0,
00:01.7,-0.000921249,-0.001613617,0.008056641,0,
00:01.7,-0.000909805,-0.001682281,0.008068085,0,
00:01.7,-0.000858307,-0.001625061,0.008050919,0,
00:01.7,-0.000881195,-0.001567841,0.007982254,0,
00:01.7,-0.000938416,-0.001567841,0.007930756,0,
00:01.7,-0.000944138,-0.001585007,0.007947922,0,
00:01.7,-0.000926971,-0.001585007,0.007982254,0,
00:01.7,-0.000921249,-0.001596451,0.007947922,0,
00:01.7,-0.000921249,-0.001579285,0.008022308,0,
00:01.7,-0.000852585,-0.001533508,0.007987976,0,
00:01.7,-0.000858307,-0.001567841,0.007976532,0,
00:01.7,-0.000875473,-0.001607895,0.008073807,0,
00:01.7,-0.000886917,-0.001625061,0.008016586,0,
00:01.7,-0.000875473,-0.001562119,0.008039474,0,
00:01.7,-0.000898361,-0.001602173,0.007982254,0,
00:01.7,-0.000898361,-0.001602173,0.007959366,0,
00:01.7,-0.000938416,-0.001585007,0.007976532,0,
00:01.7,-0.000852585,-0.001556396,0.008022308,0,
00:01.7,-0.000818253,-0.001579285,0.008010864,0,
00:01.7,-0.000915527,-0.001613617,0.007993698,0,
00:01.7,-0.000921249,-0.001579285,0.008010864,0,
00:01.7,-0.000921249,-0.001590729,0.007953644,0,
00:01.7,-0.000967026,-0.001647949,0.007930756,0,
00:01.7,-0.000921249,-0.001607895,0.008016586,0,
00:01.7,-0.000886917,-0.001596451,0.008050919,0,
00:01.8,-0.000944138,-0.001619339,0.007873535,0,
00:01.8,-0.000864029,-0.001630783,0.007925034,0,
00:01.8,-0.000812531,-0.001562119,0.008176804,0,
00:01.8,-0.000915527,-0.001579285,0.008090973,0,
00:01.8,-0.000944138,-0.001642227,0.00797081,0,
00:01.8,-0.000909805,-0.001699448,0.007993698,0,
00:01.8,-0.000892639,-0.001613617,0.008022308,0,
00:01.8,-0.000881195,-0.00151062,0.00802803,0,
00:01.8,-0.000886917,-0.001493454,0.008016586,0,
00:01.8,-0.000955582,-0.001562119,0.007930756,0,
00:01.8,-0.000892639,-0.001573563,0.007976532,0,
00:01.8,-0.000898361,-0.001567841,0.007987976,0,
00:01.8,-0.000881195,-0.00153923,0.008050919,0,
00:01.8,-0.000852585,-0.001567841,0.008073807,0,
00:01.8,-0.000852585,-0.001607895,0.008090973,0,
00:01.8,-0.00094986,-0.001625061,0.00802803,0,
00:01.8,-0.000909805,-0.00153923,0.00797081,0,
00:01.8,-0.000795364,-0.001527786,0.007993698,0,
00:01.8,-0.000904083,-0.001619339,0.007965088,0,
00:01.8,-0.000915527,-0.001670837,0.007993698,0,
00:01.8,-0.000915527,-0.001579285,0.008068085,0,
00:01.8,-0.000852585,-0.001544952,0.008050919,0,
00:01.8,-0.000904083,-0.001716614,0.007993698,0,
00:01.8,-0.00097847,-0.001693726,0.0079422,0,
00:01.8,-0.000989914,-0.001602173,0.007919312,0,
00:01.9,-0.000864029,-0.001590729,0.007953644,0,
00:01.9,-0.000858307,-0.001567841,0.008050919,0,
00:01.9,-0.000818253,-0.001499176,0.008090973,0,
00:01.9,-0.000892639,-0.001522064,0.008045197,0,
00:01.9,-0.000864029,-0.001522064,0.008062363,0,
00:01.9,-0.000869751,-0.001636505,0.008022308,0,
00:01.9,-0.000904083,-0.001670837,0.008056641,0,
00:01.9,-0.000864029,-0.001544952,0.008073807,0,
00:01.9,-0.000869751,-0.001550674,0.00799942,0,
00:01.9,-0.000926971,-0.001619339,0.007959366,0,
00:01.9,-0.000875473,-0.001607895,0.008005142,0,
00:01.9,-0.000858307,-0.001544952,0.008050919,0,
00:01.9,-0.000869751,-0.001516342,0.008022308,0,
00:01.9,-0.000864029,-0.001562119,0.007982254,0,
00:01.9,-0.000869751,-0.001642227,0.007993698,0,
00:01.9,-0.000881195,-0.001665115,0.008045197,0,
00:01.9,-0.000875473,-0.001579285,0.008010864,0,
00:01.9,-0.000841141,-0.001487732,0.008073807,0,
00:01.9,-0.000898361,-0.001550674,0.008050919,0,
00:01.9,-0.000921249,-0.001567841,0.008010864,0,
00:01.9,-0.000795364,-0.001636505,0.008016586,0,
00:01.9,-0.000789642,-0.001579285,0.008039474,0,
00:01.9,-0.000841141,-0.001625061,0.007987976,0,
00:01.9,-0.000835419,-0.001579285,0.008073807,0,
00:01.9,-0.00094986,-0.001602173,0.007965088,0,
00:02.0,-0.000938416,-0.00153923,0.00797081,0,
00:02.0,-0.000881195,-0.001585007,0.00802803,0,
00:02.0,-0.000892639,-0.001642227,0.008045197,0,
00:02.0,-0.000881195,-0.001613617,0.00802803,0,
00:02.0,-0.000881195,-0.001596451,0.007987976,0,
00:02.0,-0.000841141,-0.001533508,0.007982254,0,
00:02.0,-0.000841141,-0.001516342,0.008050919,0,
00:02.0,-0.000875473,-0.001567841,0.008073807,0,
00:02.0,-0.000864029,-0.001590729,0.008039474,0,
00:02.0,-0.000829697,-0.001573563,0.008005142,0,
00:02.0,-0.000881195,-0.001573563,0.007953644,0,
00:02.0,-0.000806808,-0.001516342,0.008010864,0,
00:00:02,-0.000795364,-0.001522064,0.008125305,0,
00:02.0,-0.000915527,-0.001682281,0.008016586,0,
00:02.0,-0.000869751,-0.001647949,0.007987976,0,
00:02.0,-0.000852585,-0.001550674,0.008016586,0,
00:02.0,-0.000904083,-0.0014534,0.008079529,0,
00:02.0,-0.000881195,-0.001556396,0.008119583,0,
00:02.0,-0.000955582,-0.00173378,0.007982254,0,
00:02.0,-0.000938416,-0.001688004,0.007930756,0,
00:02.0,-0.000875473,-0.001613617,0.007953644,0,
00:02.0,-0.000898361,-0.001607895,0.007976532,0,
00:02.0,-0.000852585,-0.001596451,0.008062363,0,
00:02.0,-0.000841141,-0.00153923,0.008016586,0,
00:02.0,-0.000858307,-0.00151062,0.008010864,0,
00:02.1,-0.000864029,-0.001527786,0.008068085,0,
00:02.1,-0.000864029,-0.001590729,0.008073807,0,
00:02.1,-0.000852585,-0.001625061,0.008068085,0,
00:02.1,-0.000864029,-0.001602173,0.008062363,0,
00:02.1,-0.000841141,-0.001544952,0.00802803,0,
00:02.1,-0.000841141,-0.001596451,0.00802803,0,
00:02.1,-0.000886917,-0.001585007,0.008010864,0,
00:02.1,-0.000886917,-0.001567841,0.007976532,0,
00:02.1,-0.000772476,-0.001516342,0.007993698,0,
00:02.1,-0.000852585,-0.001499176,0.008165359,0,
00:02.1,-0.000892639,-0.001567841,0.008010864,0,
00:02.1,-0.000823975,-0.00151062,0.007987976,0,
00:02.1,-0.000886917,-0.001562119,0.008079529,0,
00:02.1,-0.000898361,-0.001596451,0.008085251,0,
00:02.1,-0.000898361,-0.001682281,0.008039474,0,
00:02.1,-0.000904083,-0.001613617,0.008045197,0,
00:02.1,-0.000886917,-0.001562119,0.008090973,0,
00:02.1,-0.000892639,-0.001647949,0.007987976,0,
00:02.1,-0.000909805,-0.001670837,0.007953644,0,
00:02.1,-0.000858307,-0.001562119,0.00802803,0,
00:02.1,-0.000869751,-0.001590729,0.008062363,0,
00:02.1,-0.000858307,-0.001613617,0.008050919,0,
00:02.1,-0.000852585,-0.001585007,0.008039474,0,
00:02.1,-0.000846863,-0.00153923,0.008045197,0,
00:02.1,-0.000812531,-0.001499176,0.008039474,0,
00:02.2,-0.000835419,-0.001487732,0.008005142,0,
00:02.2,-0.000841141,-0.001544952,0.008039474,0,
00:02.2,-0.000892639,-0.001590729,0.008176804,0,
00:02.2,-0.000944138,-0.001659393,0.008056641,0,
00:02.2,-0.000909805,-0.001619339,0.007965088,0,
00:02.2,-0.000892639,-0.001585007,0.007947922,0,
00:02.2,-0.000898361,-0.001590729,0.007993698,0,
00:02.2,-0.000886917,-0.001585007,0.008079529,0,
00:02.2,-0.000858307,-0.001533508,0.008056641,0,
00:02.2,-0.000806808,-0.001550674,0.008062363,0,
00:02.2,-0.000823975,-0.00153923,0.008068085,0,
00:02.2,-0.000881195,-0.001533508,0.007993698,0,
00:02.2,-0.000898361,-0.001585007,0.00802803,0,
00:02.2,-0.000961304,-0.001607895,0.008096695,0,
00:02.2,-0.000875473,-0.001659393,0.008102417,0,
00:02.2,-0.000864029,-0.001653671,0.00802803,0,
00:02.2,-0.000875473,-0.001590729,0.008062363,0,
00:02.2,-0.000869751,-0.001636505,0.008073807,0,
00:02.2,-0.000881195,-0.001653671,0.007993698,0,
00:02.2,-0.000944138,-0.001590729,0.007959366,0,
00:02.2,-0.000864029,-0.001487732,0.008016586,0,
00:02.2,-0.000778198,-0.001447678,0.008102417,0,
00:02.2,-0.000864029,-0.001522064,0.008056641,0,
00:02.2,-0.000892639,-0.001636505,0.007965088,0,
00:02.2,-0.000944138,-0.001625061,0.00799942,0,
00:02.3,-0.000898361,-0.001567841,0.008096695,0,
00:02.3,-0.000852585,-0.001550674,0.008159637,0,
00:02.3,-0.000812531,-0.00148201,0.008142471,0,
00:02.3,-0.000852585,-0.001527786,0.008045197,0,
00:02.3,-0.001018524,-0.001642227,0.007959366,0,
00:02.3,-0.000944138,-0.001596451,0.0079422,0,
00:02.3,-0.000864029,-0.001625061,0.007907867,0,
00:02.3,-0.000869751,-0.001739502,0.008119583,0,
00:02.3,-0.000955582,-0.001745224,0.007982254,0,
00:02.3,-0.000921249,-0.001647949,0.008010864,0,
00:02.3,-0.000915527,-0.001562119,0.008131027,0,
00:02.3,-0.000881195,-0.001487732,0.008062363,0,
00:02.3,-0.000881195,-0.001527786,0.008119583,0,
00:02.3,-0.000858307,-0.001527786,0.008090973,0,
00:02.3,-0.000823975,-0.00151062,0.008108139,0,
00:02.3,-0.00075531,-0.001487732,0.008165359,0,
00:02.3,-0.000898361,-0.001607895,0.008079529,0,
00:02.3,-0.000955582,-0.001630783,0.007925034,0,
00:02.3,-0.000875473,-0.001596451,0.0079422,0,
00:02.3,-0.000835419,-0.001487732,0.00799942,0,
00:02.3,-0.000886917,-0.001619339,0.008085251,0,
00:02.3,-0.000984192,-0.001670837,0.008039474,0,
00:02.3,-0.000909805,-0.001619339,0.008085251,0,
00:02.3,-0.000846863,-0.001527786,0.008136749,0,
00:02.3,-0.000829697,-0.001476288,0.008108139,0,
00:02.4,-0.000852585,-0.001567841,0.008050919,0,
00:02.4,-0.000829697,-0.001573563,0.008062363,0,
00:02.4,-0.000875473,-0.001573563,0.008068085,0,
00:02.4,-0.000921249,-0.001619339,0.008010864,0,
00:02.4,-0.000823975,-0.00151062,0.008045197,0,
00:02.4,-0.000806808,-0.00151062,0.008056641,0,
00:02.4,-0.000932693,-0.001636505,0.008119583,0,
00:02.4,-0.000875473,-0.001630783,0.008119583,0,
00:02.4,-0.000875473,-0.001642227,0.008062363,0,
00:02.4,-0.000852585,-0.001567841,0.008022308,0,
00:02.4,-0.000829697,-0.001487732,0.008142471,0,
00:02.4,-0.000835419,-0.00148201,0.00822258,0,
00:02.4,-0.000898361,-0.001613617,0.008125305,0,
00:02.4,-0.000926971,-0.001533508,0.008068085,0,
00:02.4,-0.000915527,-0.00153923,0.008068085,0,
00:02.4,-0.000864029,-0.001579285,0.008073807,0,
00:02.4,-0.000864029,-0.001625061,0.008062363,0,
00:02.4,-0.000926971,-0.001602173,0.008033752,0,
00:02.4,-0.000846863,-0.001579285,0.008062363,0,
00:02.4,-0.000881195,-0.001630783,0.008108139,0,
00:02.4,-0.000915527,-0.001573563,0.008119583,0,
00:02.4,-0.000841141,-0.001504898,0.008090973,0,
00:02.4,-0.000835419,-0.00153923,0.008045197,0,
00:02.4,-0.000823975,-0.001556396,0.008119583,0,
00:02.4,-0.000909805,-0.001567841,0.008119583,0,
00:02.5,-0.000829697,-0.001533508,0.008056641,0,
00:02.5,-0.000835419,-0.001562119,0.008165359,0,
00:02.5,-0.000886917,-0.001590729,0.008131027,0,
00:02.5,-0.000761032,-0.001562119,0.008079529,0,
00:02.5,-0.000852585,-0.001556396,0.008090973,0,
00:02.5,-0.000909805,-0.001562119,0.008085251,0,
00:02.5,-0.000812531,-0.001436234,0.008188248,0,
00:02.5,-0.000852585,-0.001550674,0.008153915,0,
00:02.5,-0.000904083,-0.001728058,0.008068085,0,
00:02.5,-0.000892639,-0.001688004,0.007993698,0,
00:02.5,-0.000915527,-0.001562119,0.008056641,0,
00:02.5,-0.000921249,-0.00153923,0.008159637,0,
00:02.5,-0.000938416,-0.001579285,0.008176804,0,
00:02.5,-0.000892639,-0.001556396,0.008119583,0,
00:02.5,-0.00078392,-0.001470566,0.008125305,0,
00:02.5,-0.000778198,-0.001407623,0.008119583,0,
00:02.5,-0.000881195,-0.001567841,0.008108139,0,
00:02.5,-0.000944138,-0.001693726,0.008096695,0,
00:02.5,-0.000898361,-0.001682281,0.008113861,0,
00:02.5,-0.000869751,-0.001647949,0.008102417,0,
00:02.5,-0.000778198,-0.00148201,0.008102417,0,
00:02.5,-0.000675201,-0.001321793,0.008199692,0,
00:02.5,-0.000909805,-0.001567841,0.008090973,0,
00:02.5,-0.001024246,-0.001676559,0.008010864,0,
00:02.5,-0.000932693,-0.001642227,0.008131027,0,
00:02.6,-0.000818253,-0.00151062,0.008199692,0,
00:02.6,-0.000852585,-0.001470566,0.008148193,0,
00:02.6,-0.000846863,-0.001567841,0.008068085,0,
00:02.6,-0.000864029,-0.001556396,0.008050919,0,
00:02.6,-0.000841141,-0.001562119,0.008085251,0,
00:02.6,-0.000812531,-0.001562119,0.008113861,0,
00:02.6,-0.000926971,-0.001625061,0.008119583,0,
00:02.6,-0.000944138,-0.001625061,0.008176804,0,
00:02.6,-0.000812531,-0.001607895,0.008188248,0,
00:02.6,-0.000772476,-0.00148201,0.008125305,0,
00:02.6,-0.000795364,-0.001430511,0.008182526,0,
00:02.6,-0.000904083,-0.001642227,0.008119583,0,
00:02.6,-0.000898361,-0.001676559,0.008102417,0,
00:02.6,-0.000829697,-0.001579285,0.008188248,0,
00:02.6,-0.000852585,-0.001487732,0.008159637,0,
00:02.6,-0.00078392,-0.001401901,0.008171082,0,
00:02.6,-0.000789642,-0.001424789,0.008136749,0,
00:02.6,-0.000932693,-0.001602173,0.008016586,0,
00:02.6,-0.000932693,-0.001625061,0.008085251,0,
00:02.6,-0.000892639,-0.001579285,0.008136749,0,
00:02.6,-0.000926971,-0.001630783,0.008142471,0,
00:02.6,-0.000869751,-0.001636505,0.008176804,0,
00:02.6,-0.000881195,-0.001647949,0.008102417,0,
00:02.6,-0.000829697,-0.001573563,0.008085251,0,
00:02.6,-0.000720978,-0.00148201,0.008125305,0,
00:02.7,-0.000749588,-0.001390457,0.008176804,0,
00:02.7,-0.000886917,-0.001504898,0.008079529,0,
00:02.7,-0.000904083,-0.001550674,0.008079529,0,
00:02.7,-0.000869751,-0.001522064,0.008085251,0,
00:02.7,-0.000858307,-0.001596451,0.00819397,0,
00:02.7,-0.000864029,-0.001602173,0.008211136,0,
00:02.7,-0.000841141,-0.001585007,0.008182526,0,
00:02.7,-0.000852585,-0.001590729,0.008142471,0,
00:02.7,-0.000835419,-0.001516342,0.008153915,0,
00:02.7,-0.000898361,-0.001527786,0.008142471,0,
00:02.7,-0.000875473,-0.001516342,0.008131027,0,
00:02.7,-0.000864029,-0.001562119,0.008159637,0,
00:02.7,-0.000892639,-0.001699448,0.008050919,0,
00:02.7,-0.000909805,-0.00176239,0.008073807,0,
00:02.7,-0.000852585,-0.001585007,0.008165359,0,
00:02.7,-0.000766754,-0.001316071,0.008136749,0,
00:02.7,-0.000709534,-0.001384735,0.008171082,0,
00:02.7,-0.000875473,-0.001590729,0.008108139,0,
00:02.7,-0.000932693,-0.001596451,0.007993698,0,
00:02.7,-0.000869751,-0.001619339,0.008119583,0,
00:02.7,-0.000921249,-0.001585007,0.008159637,0,
00:02.7,-0.000766754,-0.001516342,0.008239746,0,
00:02.7,-0.000766754,-0.001396179,0.0082798,0,
00:02.7,-0.000795364,-0.001476288,0.008205414,0,
00:02.7,-0.000892639,-0.001585007,0.008096695,0,
00:02.8,-0.000881195,-0.001585007,0.008113861,0,
00:02.8,-0.000926971,-0.001653671,0.008079529,0,
00:02.8,-0.000846863,-0.001613617,0.008113861,0,
00:02.8,-0.000801086,-0.001590729,0.008245468,0,
00:02.8,-0.000892639,-0.001607895,0.008131027,0,
00:02.8,-0.000858307,-0.001550674,0.008085251,0,
00:02.8,-0.000812531,-0.001527786,0.008113861,0,
00:02.8,-0.000875473,-0.001499176,0.008176804,0,
00:02.8,-0.000886917,-0.001499176,0.008125305,0,
00:02.8,-0.000789642,-0.001470566,0.008268356,0,
00:02.8,-0.000921249,-0.001745224,0.00802803,0,
00:02.8,-0.000921249,-0.001699448,0.00802803,0,
00:02.8,-0.000881195,-0.001630783,0.008073807,0,
00:02.8,-0.000823975,-0.00153923,0.008216858,0,
00:02.8,-0.000818253,-0.001396179,0.008239746,0,
00:02.8,-0.000743866,-0.001310349,0.008268356,0,
00:02.8,-0.000829697,-0.001550674,0.008176804,0,
00:02.8,-0.000852585,-0.001602173,0.008113861,0,
00:02.8,-0.000875473,-0.001602173,0.008136749,0,
00:02.8,-0.000801086,-0.001504898,0.008228302,0,
00:02.8,-0.00075531,-0.001527786,0.008245468,0,
00:02.8,-0.000852585,-0.001544952,0.007987976,0,
00:02.8,-0.000961304,-0.001602173,0.008176804,0,
00:02.8,-0.000909805,-0.001585007,0.008142471,0,
00:02.8,-0.000846863,-0.001585007,0.008108139,0,
00:02.9,-0.000886917,-0.001607895,0.008056641,0,
00:02.9,-0.000881195,-0.001602173,0.008148193,0,
00:02.9,-0.000789642,-0.001556396,0.008245468,0,
00:02.9,-0.000841141,-0.001487732,0.008239746,0,
00:02.9,-0.000812531,-0.001447678,0.008216858,0,
00:02.9,-0.000663757,-0.001544952,0.008125305,0,
00:02.9,-0.000886917,-0.001619339,0.008171082,0,
00:02.9,-0.000898361,-0.001630783,0.008176804,0,
00:02.9,-0.000932693,-0.001579285,0.008148193,0,
00:02.9,-0.000818253,-0.001499176,0.008176804,0,
00:02.9,-0.00078392,-0.001470566,0.008153915,0,
00:02.9,-0.000778198,-0.001487732,0.008171082,0,
00:02.9,-0.000972748,-0.001642227,0.008176804,0,
00:02.9,-0.000875473,-0.001653671,0.008188248,0,
00:02.9,-0.000823975,-0.001607895,0.008205414,0,
00:02.9,-0.000841141,-0.001499176,0.008182526,0,
00:02.9,-0.000829697,-0.001516342,0.008096695,0,
00:02.9,-0.000778198,-0.001556396,0.008176804,0,
00:02.9,-0.000795364,-0.001544952,0.008153915,0,
00:02.9,-0.000881195,-0.00148201,0.008142471,0,
00:02.9,-0.000875473,-0.001533508,0.008068085,0,
00:02.9,-0.000806808,-0.001544952,0.008245468,0,
00:02.9,-0.000926971,-0.001636505,0.008234024,0,
00:02.9,-0.000892639,-0.001573563,0.008153915,0,
00:02.9,-0.000846863,-0.00153923,0.008159637,0,
00:03.0,-0.000852585,-0.001556396,0.008079529,0,
00:03.0,-0.000852585,-0.001590729,0.008125305,0,
00:03.0,-0.00078392,-0.001516342,0.00825119,0,
00:03.0,-0.000829697,-0.001556396,0.008228302,0,
00:03.0,-0.000806808,-0.001556396,0.008211136,0,
00:03.0,-0.000761032,-0.001556396,0.008188248,0,
00:03.0,-0.000806808,-0.001493454,0.008245468,0,
00:03.0,-0.000789642,-0.001436234,0.008314133,0,
00:03.0,-0.000818253,-0.0014534,0.008176804,0,
00:03.0,-0.000892639,-0.001544952,0.008165359,0,
00:03.0,-0.00094986,-0.001682281,0.008068085,0,
00:03.0,-0.000818253,-0.001636505,0.008016586,0,
00:00:03,-0.000875473,-0.001642227,0.008216858,0,
00:03.0,-0.000938416,-0.001567841,0.008274078,0,
00:03.0,-0.000944138,-0.001550674,0.008119583,0,
00:03.0,-0.000881195,-0.00151062,0.008125305,0,
00:03.0,-0.000772476,-0.001504898,0.008165359,0,
00:03.0,-0.000738144,-0.001619339,0.008159637,0,
00:03.0,-0.000864029,-0.001602173,0.008188248,0,
00:03.0,-0.000915527,-0.001567841,0.008216858,0,
00:03.0,-0.000926971,-0.001504898,0.008136749,0,
00:03.0,-0.000749588,-0.001396179,0.008171082,0,
00:03.0,-0.000629425,-0.001350403,0.008325577,0,
00:03.0,-0.000720978,-0.001562119,0.008331299,0,
00:03.0,-0.000995636,-0.001653671,0.008108139,0,
00:03.1,-0.000921249,-0.001590729,0.008073807,0,
00:03.1,-0.000795364,-0.001516342,0.008216858,0,
00:03.1,-0.000846863,-0.001499176,0.008211136,0,
00:03.1,-0.000801086,-0.001567841,0.008142471,0,
00:03.1,-0.000795364,-0.001487732,0.008296967,0,
00:03.1,-0.000904083,-0.001567841,0.008216858,0,
00:03.1,-0.001001358,-0.001813889,0.007925034,0,
00:03.1,-0.000926971,-0.00176239,0.008136749,0,
00:03.1,-0.000858307,-0.001596451,0.008148193,0,
00:03.1,-0.000841141,-0.001522064,0.008205414,0,
00:03.1,-0.000789642,-0.001459122,0.008228302,0,
00:03.1,-0.000715256,-0.001367569,0.008153915,0,
00:03.1,-0.000743866,-0.001413345,0.008165359,0,
00:03.1,-0.000738144,-0.001487732,0.008274078,0,
00:03.1,-0.001018524,-0.001682281,0.008079529,0,
00:03.1,-0.000955582,-0.001522064,0.008211136,0,
00:03.1,-0.000864029,-0.00151062,0.008171082,0,
00:03.1,-0.000846863,-0.001516342,0.00819397,0,
00:03.1,-0.0007267,-0.001487732,0.00819397,0,
00:03.1,-0.000738144,-0.001636505,0.008142471,0,
00:03.1,-0.000915527,-0.001653671,0.008142471,0,
00:03.1,-0.000881195,-0.001533508,0.008216858,0,
00:03.1,-0.000886917,-0.001556396,0.008176804,0,
00:03.1,-0.000881195,-0.001567841,0.008153915,0,
00:03.1,-0.000898361,-0.001562119,0.008188248,0,
00:03.2,-0.000904083,-0.001602173,0.00822258,0,
00:03.2,-0.000852585,-0.001613617,0.008199692,0,
00:03.2,-0.000778198,-0.001596451,0.008176804,0,
00:03.2,-0.000778198,-0.001447678,0.008234024,0,
00:03.2,-0.000806808,-0.001430511,0.008239746,0,
00:03.2,-0.000772476,-0.001470566,0.008165359,0,
00:03.2,-0.000898361,-0.001710892,0.008102417,0,
00:03.2,-0.000846863,-0.001579285,0.008153915,0,
00:03.2,-0.000898361,-0.001579285,0.008142471,0,
00:03.2,-0.000869751,-0.001522064,0.008016586,0,
00:03.2,-0.000881195,-0.001424789,0.008182526,0,
00:03.2,-0.000818253,-0.001470566,0.008211136,0,
00:03.2,-0.000955582,-0.001573563,0.008148193,0,
00:03.2,-0.000858307,-0.001504898,0.008079529,0,
00:03.2,-0.000795364,-0.001590729,0.008136749,0,
00:03.2,-0.00069809,-0.001499176,0.008296967,0,
00:03.2,-0.000801086,-0.001625061,0.008119583,0,
00:03.2,-0.000995636,-0.001653671,0.00802803,0,
00:03.2,-0.000898361,-0.001527786,0.008136749,0,
00:03.2,-0.000938416,-0.001459122,0.008314133,0,
00:03.2,-0.000801086,-0.001464844,0.008245468,0,
00:03.2,-0.000823975,-0.001625061,0.008062363,0,
00:03.2,-0.000846863,-0.001625061,0.008068085,0,
00:03.2,-0.000852585,-0.001636505,0.00825119,0,
00:03.2,-0.000812531,-0.001607895,0.008188248,0,
00:03.3,-0.000818253,-0.001556396,0.008176804,0,
00:03.3,-0.000761032,-0.001476288,0.008153915,0,
00:03.3,-0.000772476,-0.001499176,0.008108139,0,
00:03.3,-0.000875473,-0.001567841,0.008108139,0,
00:03.3,-0.000720978,-0.001470566,0.008108139,0,
00:03.3,-0.000738144,-0.001441956,0.008010864,0,
00:03.3,-0.000932693,-0.001596451,0.008153915,0,
00:03.3,-0.000955582,-0.001544952,0.008165359,0,
00:03.3,-0.000864029,-0.001407623,0.008159637,0,
00:03.3,-0.000686646,-0.001396179,0.008325577,0,
00:03.3,-0.000944138,-0.001665115,0.008050919,0,
00:03.3,-0.00097847,-0.001682281,0.008039474,0,
00:03.3,-0.000806808,-0.001550674,0.008102417,0,
00:03.3,-0.000778198,-0.001602173,0.008068085,0,
00:03.3,-0.000812531,-0.001602173,0.008131027,0,
00:03.3,-0.000858307,-0.001567841,0.008039474,0,
00:03.3,-0.00075531,-0.00148201,0.008045197,0,
00:03.3,-0.000789642,-0.001493454,0.00822258,0,
00:03.3,-0.000818253,-0.001424789,0.008405685,0,
00:03.3,-0.00078392,-0.001544952,0.008148193,0,
00:03.3,-0.000806808,-0.001436234,0.008142471,0,
00:03.3,-0.000829697,-0.00148201,0.008165359,0,
00:03.3,-0.000921249,-0.001613617,0.008119583,0,
00:03.3,-0.000875473,-0.001527786,0.008022308,0,
00:03.3,-0.000720978,-0.001470566,0.008096695,0,
00:03.4,-0.000875473,-0.001647949,0.008142471,0,
00:03.4,-0.000864029,-0.00170517,0.00819397,0,
00:03.4,-0.000852585,-0.001625061,0.008119583,0,
00:03.4,-0.000818253,-0.001470566,0.008068085,0,
00:03.4,-0.000823975,-0.001522064,0.008045197,0,
00:03.4,-0.000926971,-0.001464844,0.008125305,0,
00:03.4,-0.000898361,-0.001430511,0.008188248,0,
00:03.4,-0.000818253,-0.00148201,0.008142471,0,
00:03.4,-0.000812531,-0.001527786,0.008131027,0,
00:03.4,-0.000846863,-0.00153923,0.00802803,0,
00:03.4,-0.000772476,-0.001556396,0.008119583,0,
00:03.4,-0.000818253,-0.001550674,0.008096695,0,
00:03.4,-0.000909805,-0.00148201,0.008136749,0,
00:03.4,-0.000766754,-0.001533508,0.008136749,0,
00:03.4,-0.000795364,-0.001647949,0.008108139,0,
00:03.4,-0.000955582,-0.001739502,0.008102417,0,
00:03.4,-0.000858307,-0.001585007,0.008113861,0,
00:03.4,-0.000749588,-0.001344681,0.008142471,0,
00:03.4,-0.000743866,-0.001264572,0.008274078,0,
00:03.4,-0.000972748,-0.001808167,0.008090973,0,
00:03.4,-0.000938416,-0.001699448,0.008010864,0,
00:03.4,-0.000801086,-0.001396179,0.008102417,0,
00:03.4,-0.000761032,-0.001459122,0.008050919,0,
00:03.4,-0.000841141,-0.001487732,0.008010864,0,
00:03.4,-0.000852585,-0.0014534,0.008033752,0,
00:03.5,-0.000738144,-0.001441956,0.008079529,0,
00:03.5,-0.000795364,-0.001556396,0.008182526,0,
00:03.5,-0.000967026,-0.001573563,0.008211136,0,
00:03.5,-0.000932693,-0.001499176,0.008234024,0,
00:03.5,-0.000818253,-0.001522064,0.008016586,0,
00:03.5,-0.000686646,-0.001459122,0.008096695,0,
00:03.5,-0.000852585,-0.001522064,0.008050919,0,
00:03.5,-0.000806808,-0.001527786,0.008090973,0,
00:03.5,-0.000818253,-0.001499176,0.008136749,0,
00:03.5,-0.000749588,-0.00148201,0.008153915,0,
00:03.5,-0.000829697,-0.001619339,0.008159637,0,
00:03.5,-0.000795364,-0.001579285,0.008228302,0,
00:03.5,-0.000892639,-0.001630783,0.008153915,0,
00:03.5,-0.000995636,-0.001619339,0.007965088,0,
00:03.5,-0.000806808,-0.001493454,0.008022308,0,
00:03.5,-0.000663757,-0.001304626,0.008131027,0,
00:03.5,-0.000875473,-0.001464844,0.00799942,0,
00:03.5,-0.000846863,-0.001464844,0.008085251,0,
00:03.5,-0.000852585,-0.001470566,0.008211136,0,
00:03.5,-0.000772476,-0.001613617,0.008096695,0,
00:03.5,-0.000886917,-0.001665115,0.008045197,0,
00:03.5,-0.000944138,-0.001590729,0.008073807,0,
00:03.5,-0.000852585,-0.001487732,0.008073807,0,
00:03.5,-0.000720978,-0.001321793,0.008096695,0,
00:03.5,-0.000749588,-0.001436234,0.008188248,0,
00:03.6,-0.000881195,-0.001585007,0.008005142,0,
00:03.6,-0.000898361,-0.001504898,0.008090973,0,
00:03.6,-0.000909805,-0.001550674,0.008125305,0,
00:03.6,-0.000766754,-0.001590729,0.008165359,0,
00:03.6,-0.000749588,-0.001504898,0.008153915,0,
00:03.6,-0.000743866,-0.001401901,0.008142471,0,
00:03.6,-0.000892639,-0.001487732,0.008113861,0,
00:03.6,-0.001012802,-0.001625061,0.008022308,0,
00:03.6,-0.00075531,-0.001573563,0.008073807,0,
00:03.6,-0.000801086,-0.001625061,0.008062363,0,
00:03.6,-0.000818253,-0.001579285,0.008085251,0,
00:03.6,-0.000898361,-0.001602173,0.008142471,0,
00:03.6,-0.000846863,-0.001476288,0.008045197,0,
00:03.6,-0.000675201,-0.001373291,0.008073807,0,
00:03.6,-0.000766754,-0.00148201,0.008131027,0,
00:03.6,-0.000898361,-0.0014534,0.00797081,0,
00:03.6,-0.000829697,-0.001464844,0.008142471,0,
00:03.6,-0.000846863,-0.001533508,0.008090973,0,
00:03.6,-0.000829697,-0.001533508,0.007965088,0,
00:03.6,-0.000846863,-0.001493454,0.008062363,0,
00:03.6,-0.000703812,-0.00148201,0.008325577,0,
00:03.6,-0.000915527,-0.001625061,0.007982254,0,
00:03.6,-0.000875473,-0.001493454,0.007925034,0,
00:03.6,-0.000841141,-0.001522064,0.007965088,0,
00:03.6,-0.000743866,-0.001464844,0.00825119,0,
00:03.7,-0.000881195,-0.001573563,0.008182526,0,
00:03.7,-0.000738144,-0.001476288,0.008131027,0,
00:03.7,-0.000738144,-0.001470566,0.008062363,0,
00:03.7,-0.000749588,-0.001522064,0.008159637,0,
00:03.7,-0.000972748,-0.001693726,0.007993698,0,
00:03.7,-0.000869751,-0.001590729,0.008039474,0,
00:03.7,-0.00078392,-0.001441956,0.008016586,0,
00:03.7,-0.000789642,-0.001464844,0.008022308,0,
00:03.7,-0.00075531,-0.001527786,0.008188248,0,
00:03.7,-0.000938416,-0.001607895,0.008085251,0,
00:03.7,-0.001064301,-0.001710892,0.007896423,0,
00:03.7,-0.000875473,-0.001625061,0.007976532,0,
00:03.7,-0.000686646,-0.001241684,0.008148193,0,
00:03.7,-0.00069809,-0.001367569,0.008165359,0,
00:03.7,-0.000812531,-0.001447678,0.008056641,0,
00:03.7,-0.000738144,-0.001413345,0.008010864,0,
00:03.7,-0.000703812,-0.00151062,0.008068085,0,
00:03.7,-0.000823975,-0.001527786,0.008136749,0,
00:03.7,-0.00100708,-0.001625061,0.008022308,0,
00:03.7,-0.000898361,-0.001550674,0.008096695,0,
00:03.7,-0.00069809,-0.001441956,0.008056641,0,
00:03.7,-0.000743866,-0.001550674,0.008010864,0,
00:03.7,-0.000823975,-0.001579285,0.008119583,0,
00:03.7,-0.000738144,-0.001499176,0.00819397,0,
00:03.7,-0.000795364,-0.00151062,0.008085251,0,
00:03.8,-0.000915527,-0.001522064,0.008039474,0,
00:03.8,-0.000858307,-0.001476288,0.007936478,0,
00:03.8,-0.00075531,-0.001504898,0.008050919,0,
00:03.8,-0.000926971,-0.00170517,0.007919312,0,
00:03.8,-0.0007267,-0.001579285,0.00797081,0,
00:03.8,-0.000669479,-0.001379013,0.008159637,0,
00:03.8,-0.000749588,-0.001436234,0.008102417,0,
00:03.8,-0.000926971,-0.001619339,0.007965088,0,
00:03.8,-0.00097847,-0.001573563,0.008090973,0,
00:03.8,-0.00078392,-0.001304626,0.008079529,0,
00:03.8,-0.000606537,-0.001338959,0.008188248,0,
00:03.8,-0.000846863,-0.001590729,0.0079422,0,
00:03.8,-0.000984192,-0.001636505,0.007936478,0,
00:03.8,-0.000938416,-0.001596451,0.008033752,0,
00:03.8,-0.000709534,-0.001527786,0.008056641,0,
00:03.8,-0.000652313,-0.001527786,0.008102417,0,
00:03.8,-0.000669479,-0.001401901,0.008102417,0,
00:03.8,-0.000835419,-0.001476288,0.008050919,0,
00:03.8,-0.000926971,-0.001573563,0.008033752,0,
00:03.8,-0.000938416,-0.001527786,0.007936478,0,
00:03.8,-0.000818253,-0.001430511,0.007833481,0,
00:03.8,-0.000766754,-0.001447678,0.00819397,0,
00:03.8,-0.000743866,-0.001550674,0.008090973,0,
00:03.8,-0.000555038,-0.001338959,0.008005142,0,
00:03.8,-0.000738144,-0.001459122,0.008050919,0,
00:03.9,-0.000801086,-0.001384735,0.008125305,0,
00:03.9,-0.000766754,-0.001293182,0.008131027,0,
00:03.9,-0.00078392,-0.001527786,0.008148193,0,
00:03.9,-0.000944138,-0.001808167,0.007827759,0,
00:03.9,-0.000909805,-0.001813889,0.007959366,0,
00:03.9,-0.000892639,-0.001693726,0.008045197,0,
00:03.9,-0.000720978,-0.001356125,0.008005142,0,
00:03.9,-0.000709534,-0.00120163,0.008022308,0,
00:03.9,-0.000806808,-0.001304626,0.008102417,0,
00:03.9,-0.000646591,-0.001321793,0.008010864,0,
00:03.9,-0.000629425,-0.001333237,0.008079529,0,
00:03.9,-0.000801086,-0.001470566,0.008113861,0,
00:03.9,-0.000818253,-0.00153923,0.008062363,0,
00:03.9,-0.000892639,-0.001670837,0.007770538,0,
00:03.9,-0.000806808,-0.001613617,0.008005142,0,
00:03.9,-0.000761032,-0.001396179,0.008073807,0,
00:03.9,-0.000795364,-0.001344681,0.008016586,0,
00:03.9,-0.000680923,-0.001379013,0.008234024,0,
00:03.9,-0.000846863,-0.001522064,0.008016586,0,
00:03.9,-0.000869751,-0.001647949,0.0079422,0,
00:03.9,-0.000549316,-0.001602173,0.00799942,0,
00:03.9,-0.000812531,-0.001533508,0.008136749,0,
00:03.9,-0.000898361,-0.001361847,0.008056641,0,
00:03.9,-0.000864029,-0.001373291,0.007982254,0,
00:03.9,-0.000766754,-0.001464844,0.007953644,0,
00:04.0,-0.000646591,-0.001361847,0.008079529,0,
00:04.0,-0.000606537,-0.001373291,0.007965088,0,
00:04.0,-0.000766754,-0.001424789,0.007770538,0,
00:04.0,-0.000789642,-0.001379013,0.008199692,0,
00:04.0,-0.000864029,-0.001590729,0.008022308,0,
00:04.0,-0.000761032,-0.001562119,0.007982254,0,
00:04.0,-0.00069809,-0.00153923,0.008005142,0,
00:04.0,-0.000732422,-0.001493454,0.008039474,0,
00:04.0,-0.00075531,-0.001384735,0.008010864,0,
00:04.0,-0.000692368,-0.001304626,0.008182526,0,
00:04.0,-0.000778198,-0.001384735,0.008153915,0,
00:04.0,-0.00094986,-0.001567841,0.00797081,0,
00:00:04,-0.000875473,-0.001567841,0.00797081,0,
00:04.0,-0.000457764,-0.00148201,0.0079422,0,
00:04.0,-0.000778198,-0.00153923,0.007953644,0,
00:04.0,-0.000812531,-0.001384735,0.00799942,0,
00:04.0,-0.000761032,-0.001350403,0.007833481,0,
00:04.0,-0.000629425,-0.001384735,0.007827759,0,
00:04.0,-0.000818253,-0.001401901,0.00802803,0,
00:04.0,-0.000909805,-0.001567841,0.008205414,0,
00:04.0,-0.0007267,-0.001493454,0.008199692,0,
00:04.0,-0.000572205,-0.001344681,0.008205414,0,
00:04.0,-0.000944138,-0.001441956,0.0079422,0,
00:04.0,-0.001012802,-0.001441956,0.007862091,0,
00:04.0,-0.000509262,-0.001361847,0.007896423,0,
00:04.1,-0.000555038,-0.001390457,0.007965088,0,
00:04.1,-0.000806808,-0.001384735,0.008022308,0,
00:04.1,-0.0007267,-0.00151062,0.008016586,0,
00:04.1,-0.000812531,-0.001636505,0.008039474,0,
00:04.1,-0.000743866,-0.001533508,0.007987976,0,
00:04.1,-0.00075531,-0.001447678,0.008045197,0,
00:04.1,-0.000761032,-0.001447678,0.00802803,0,
00:04.1,-0.0007267,-0.001344681,0.008050919,0,
00:04.1,-0.000606537,-0.00125885,0.008131027,0,
00:04.1,-0.000841141,-0.001544952,0.007844925,0,
00:04.1,-0.000761032,-0.001596451,0.007947922,0,
00:04.1,-0.000801086,-0.001476288,0.008005142,0,
00:04.1,-0.000732422,-0.001407623,0.007936478,0,
00:04.1,-0.000617981,-0.001316071,0.007965088,0,
00:04.1,-0.000675201,-0.001379013,0.008062363,0,
00:04.1,-0.000898361,-0.0014534,0.007936478,0,
00:04.1,-0.000812531,-0.001390457,0.007987976,0,
00:04.1,-0.000686646,-0.001401901,0.008073807,0,
00:04.1,-0.000743866,-0.001470566,0.008022308,0,
00:04.1,-0.000703812,-0.001304626,0.007976532,0,
00:04.1,-0.000617981,-0.001270294,0.008039474,0,
00:04.1,-0.00078392,-0.001550674,0.007959366,0,
00:04.1,-0.000858307,-0.001556396,0.007936478,0,
00:04.1,-0.000715256,-0.001413345,0.007987976,0,
00:04.1,-0.00069809,-0.001424789,0.007850647,0,
00:04.2,-0.000778198,-0.001419067,0.008010864,0,
00:04.2,-0.0007267,-0.001504898,0.008033752,0,
00:04.2,-0.000692368,-0.001590729,0.008039474,0,
00:04.2,-0.00075531,-0.001544952,0.008005142,0,
00:04.2,-0.00069809,-0.0014534,0.007976532,0,
00:04.2,-0.000772476,-0.001493454,0.008005142,0,
00:04.2,-0.000789642,-0.001487732,0.007947922,0,
00:04.2,-0.000686646,-0.001401901,0.008079529,0,
00:04.2,-0.000761032,-0.001338959,0.007947922,0,
00:04.2,-0.000761032,-0.001293182,0.007930756,0,
00:04.2,-0.000715256,-0.001281738,0.007947922,0,
00:04.2,-0.000852585,-0.001344681,0.007844925,0,
00:04.2,-0.000663757,-0.001321793,0.008045197,0,
00:04.2,-0.000766754,-0.001533508,0.008016586,0,
00:04.2,-0.0007267,-0.001436234,0.007902145,0,
00:04.2,-0.000680923,-0.001384735,0.007850647,0,
00:04.2,-0.000686646,-0.001361847,0.007936478,0,
00:04.2,-0.000686646,-0.001367569,0.008119583,0,
00:04.2,-0.000646591,-0.001447678,0.008062363,0,
00:04.2,-0.000658035,-0.00153923,0.008079529,0,
00:04.2,-0.000967026,-0.001653671,0.00799942,0,
00:04.2,-0.000881195,-0.001665115,0.007804871,0,
00:04.2,-0.000640869,-0.001470566,0.007827759,0,
00:04.2,-0.000606537,-0.001356125,0.007833481,0,
00:04.2,-0.000795364,-0.001350403,0.008090973,0,
00:04.3,-0.000812531,-0.001413345,0.008090973,0,
00:04.3,-0.000669479,-0.001396179,0.008062363,0,
00:04.3,-0.000864029,-0.001493454,0.007810593,0,
00:04.3,-0.000761032,-0.001338959,0.007850647,0,
00:04.3,-0.0007267,-0.001338959,0.007953644,0,
00:04.3,-0.000669479,-0.001333237,0.007982254,0,
00:04.3,-0.000743866,-0.001476288,0.007919312,0,
00:04.3,-0.000680923,-0.001516342,0.008010864,0,
00:04.3,-0.000646591,-0.001379013,0.008056641,0,
00:04.3,-0.000709534,-0.001344681,0.007953644,0,
00:04.3,-0.000663757,-0.001310349,0.007982254,0,
00:04.3,-0.000703812,-0.001361847,0.008050919,0,
00:04.3,-0.000772476,-0.001459122,0.007947922,0,
00:04.3,-0.000841141,-0.001544952,0.007873535,0,
00:04.3,-0.000652313,-0.001522064,0.007936478,0,
00:04.3,-0.0007267,-0.001573563,0.007993698,0,
00:04.3,-0.000795364,-0.001499176,0.007993698,0,
00:04.3,-0.000858307,-0.001464844,0.007844925,0,
00:04.3,-0.000709534,-0.001338959,0.007827759,0,
00:04.3,-0.000703812,-0.001436234,0.00797081,0,
00:04.3,-0.000715256,-0.001556396,0.007913589,0,
00:04.3,-0.000646591,-0.001407623,0.007982254,0,
00:04.3,-0.000715256,-0.001264572,0.007907867,0,
00:04.3,-0.000692368,-0.001321793,0.007925034,0,
00:04.3,-0.000761032,-0.001379013,0.00802803,0,
00:04.4,-0.00069809,-0.001373291,0.008010864,0,
00:04.4,-0.000623703,-0.001367569,0.007850647,0,
00:04.4,-0.000658035,-0.001413345,0.007879257,0,
00:04.4,-0.000932693,-0.00151062,0.007936478,0,
00:04.4,-0.000789642,-0.001390457,0.007982254,0,
00:04.4,-0.000658035,-0.001384735,0.007993698,0,
00:04.4,-0.000640869,-0.001407623,0.007987976,0,
00:04.4,-0.00075531,-0.001556396,0.008056641,0,
00:04.4,-0.000841141,-0.001585007,0.00797081,0,
00:04.4,-0.000709534,-0.001464844,0.007873535,0,
00:04.4,-0.000680923,-0.001401901,0.007844925,0,
00:04.4,-0.000732422,-0.001350403,0.007850647,0,
00:04.4,-0.000692368,-0.001493454,0.007844925,0,
00:04.4,-0.000675201,-0.001504898,0.007982254,0,
00:04.4,-0.000732422,-0.001424789,0.00797081,0,
00:04.4,-0.000680923,-0.001401901,0.007925034,0,
00:04.4,-0.000635147,-0.001384735,0.007993698,0,
00:04.4,-0.00056076,-0.001281738,0.007976532,0,
00:04.4,-0.000732422,-0.001247406,0.007919312,0,
00:04.4,-0.000761032,-0.001316071,0.007810593,0,
00:04.4,-0.000692368,-0.001327515,0.007896423,0,
00:04.4,-0.000749588,-0.001413345,0.007925034,0,
00:04.4,-0.000789642,-0.001533508,0.007919312,0,
00:04.4,-0.000772476,-0.001493454,0.007953644,0,
00:04.4,-0.000675201,-0.00153923,0.007947922,0,
00:04.5,-0.000835419,-0.001579285,0.007913589,0,
00:04.5,-0.000778198,-0.001459122,0.007850647,0,
00:04.5,-0.000583649,-0.001253128,0.008016586,0,
00:04.5,-0.00075531,-0.001401901,0.007987976,0,
00:04.5,-0.000886917,-0.001464844,0.007799149,0,
00:04.5,-0.000577927,-0.001401901,0.007953644,0,
00:04.5,-0.000720978,-0.001419067,0.007993698,0,
00:04.5,-0.000692368,-0.001464844,0.007913589,0,
00:04.5,-0.000623703,-0.001367569,0.007976532,0,
00:04.5,-0.000692368,-0.001390457,0.008033752,0,
00:04.5,-0.000715256,-0.001459122,0.007890701,0,
00:04.5,-0.000715256,-0.001487732,0.007867813,0,
00:04.5,-0.000663757,-0.001424789,0.007930756,0,
00:04.5,-0.000623703,-0.001276016,0.007959366,0,
00:04.5,-0.000635147,-0.001373291,0.007976532,0,
00:04.5,-0.000738144,-0.001396179,0.007947922,0,
00:04.5,-0.000823975,-0.001390457,0.007810593,0,
00:04.5,-0.000801086,-0.001522064,0.007764816,0,
00:04.5,-0.000686646,-0.001550674,0.007736206,0,
00:04.5,-0.000732422,-0.001344681,0.008010864,0,
00:04.5,-0.000795364,-0.001270294,0.008033752,0,
00:04.5,-0.000577927,-0.001264572,0.007982254,0,
00:04.5,-0.000686646,-0.001424789,0.007930756,0,
00:04.5,-0.000852585,-0.001493454,0.007930756,0,
00:04.5,-0.000658035,-0.001316071,0.007930756,0,
00:04.6,-0.000658035,-0.001401901,0.007724762,0,
00:04.6,-0.000709534,-0.001499176,0.007844925,0,
00:04.6,-0.000652313,-0.001436234,0.00802803,0,
00:04.6,-0.000743866,-0.001493454,0.008096695,0,
00:04.6,-0.00078392,-0.001522064,0.007930756,0,
00:04.6,-0.000778198,-0.001504898,0.007804871,0,
00:04.6,-0.0007267,-0.001447678,0.007827759,0,
00:04.6,-0.000743866,-0.001533508,0.007959366,0,
00:04.6,-0.000743866,-0.00151062,0.007965088,0,
00:04.6,-0.000646591,-0.00128746,0.007890701,0,
00:04.6,-0.000600815,-0.001190186,0.007965088,0,
00:04.6,-0.000680923,-0.00120163,0.007902145,0,
00:04.6,-0.000566483,-0.001235962,0.007913589,0,
00:04.6,-0.000549316,-0.001310349,0.008073807,0,
00:04.6,-0.000646591,-0.001476288,0.00797081,0,
00:04.6,-0.000886917,-0.001487732,0.007701874,0,
00:04.6,-0.000789642,-0.001316071,0.007781982,0,
00:04.6,-0.000715256,-0.001379013,0.007844925,0,
00:04.6,-0.000795364,-0.001441956,0.007799149,0,
00:04.6,-0.000749588,-0.001487732,0.008016586,0,
00:04.6,-0.000577927,-0.00148201,0.007959366,0,
00:04.6,-0.000715256,-0.0014534,0.007884979,0,
00:04.6,-0.000732422,-0.001407623,0.007896423,0,
00:04.6,-0.000749588,-0.00148201,0.007919312,0,
00:04.6,-0.000720978,-0.001447678,0.008010864,0,
00:04.7,-0.000583649,-0.001281738,0.008079529,0,
00:04.7,-0.000514984,-0.001213074,0.007936478,0,
00:04.7,-0.000600815,-0.00120163,0.007890701,0,
00:04.7,-0.000829697,-0.001619339,0.007764816,0,
00:04.7,-0.000720978,-0.001499176,0.007753372,0,
00:04.7,-0.000795364,-0.001447678,0.007913589,0,
00:04.7,-0.000703812,-0.001321793,0.00797081,0,
00:04.7,-0.000555038,-0.001253128,0.007862091,0,
00:04.7,-0.000663757,-0.001356125,0.007982254,0,
00:04.7,-0.000789642,-0.001441956,0.007947922,0,
00:04.7,-0.000795364,-0.001441956,0.007844925,0,
00:04.7,-0.000623703,-0.001413345,0.007736206,0,
00:04.7,-0.000669479,-0.001144409,0.007993698,0,
00:04.7,-0.000738144,-0.001247406,0.007930756,0,
00:04.7,-0.000617981,-0.001321793,0.007930756,0,
00:04.7,-0.000623703,-0.001361847,0.007936478,0,
00:04.7,-0.000715256,-0.001573563,0.007764816,0,
00:04.7,-0.000680923,-0.001562119,0.007781982,0,
00:04.7,-0.000680923,-0.001476288,0.008096695,0,
00:04.7,-0.00069809,-0.001321793,0.007982254,0,
00:04.7,-0.000658035,-0.001213074,0.007959366,0,
00:04.7,-0.000600815,-0.001350403,0.007982254,0,
00:04.7,-0.000829697,-0.001642227,0.00777626,0,
00:04.7,-0.000720978,-0.001316071,0.007736206,0,
00:04.7,-0.000818253,-0.001384735,0.007816315,0,
00:04.8,-0.000703812,-0.001396179,0.007925034,0,
00:04.8,-0.000629425,-0.001350403,0.0079422,0,
00:04.8,-0.000623703,-0.001447678,0.007907867,0,
00:04.8,-0.000572205,-0.001350403,0.007919312,0,
00:04.8,-0.000589371,-0.001270294,0.007810593,0,
00:04.8,-0.000778198,-0.001447678,0.007793427,0,
00:04.8,-0.000852585,-0.001430511,0.007862091,0,
00:04.8,-0.000646591,-0.001350403,0.007907867,0,
00:04.8,-0.00078392,-0.001401901,0.00774765,0,
00:04.8,-0.000457764,-0.001276016,0.007953644,0,
00:04.8,-0.000663757,-0.001430511,0.007873535,0,
00:04.8,-0.000720978,-0.001373291,0.007965088,0,
00:04.8,-0.000669479,-0.001333237,0.007976532,0,
00:04.8,-0.000663757,-0.001350403,0.007913589,0,
00:04.8,-0.000732422,-0.001327515,0.007890701,0,
00:04.8,-0.000669479,-0.001270294,0.007833481,0,
00:04.8,-0.000640869,-0.001413345,0.007810593,0,
00:04.8,-0.000680923,-0.001562119,0.007982254,0,
00:04.8,-0.000680923,-0.001401901,0.007902145,0,
00:04.8,-0.000658035,-0.001316071,0.007913589,0,
00:04.8,-0.000617981,-0.001350403,0.007902145,0,
00:04.8,-0.000566483,-0.001207352,0.007827759,0,
00:04.8,-0.000549316,-0.001213074,0.007833481,0,
00:04.8,-0.000658035,-0.00148201,0.007965088,0,
00:04.8,-0.000778198,-0.001562119,0.007959366,0,
00:04.9,-0.000812531,-0.00151062,0.007753372,0,
00:04.9,-0.000720978,-0.001361847,0.00777626,0,
00:04.9,-0.000738144,-0.001333237,0.007793427,0,
00:04.9,-0.000789642,-0.001396179,0.007884979,0,
00:04.9,-0.000623703,-0.00128746,0.007862091,0,
00:04.9,-0.000572205,-0.001327515,0.007896423,0,
00:04.9,-0.000675201,-0.001373291,0.007907867,0,
00:04.9,-0.000663757,-0.001310349,0.007896423,0,
00:04.9,-0.000669479,-0.001390457,0.007896423,0,
00:04.9,-0.000537872,-0.001373291,0.007930756,0,
00:04.9,-0.000572205,-0.001321793,0.007896423,0,
00:04.9,-0.000629425,-0.001253128,0.007787704,0,
00:04.9,-0.00075531,-0.001361847,0.007879257,0,
00:04.9,-0.000589371,-0.001304626,0.007965088,0,
00:04.9,-0.000583649,-0.001310349,0.007982254,0,
00:04.9,-0.000623703,-0.0014534,0.007856369,0,
00:04.9,-0.000635147,-0.001487732,0.007799149,0,
00:04.9,-0.000589371,-0.001316071,0.007919312,0,
00:04.9,-0.000635147,-0.001390457,0.007947922,0,
00:04.9,-0.000709534,-0.001407623,0.007873535,0,
00:04.9,-0.00069809,-0.001327515,0.007816315,0,
00:04.9,-0.000738144,-0.001407623,0.007799149,0,
00:04.9,-0.000686646,-0.001316071,0.007827759,0,
00:04.9,-0.000720978,-0.00125885,0.007867813,0,
00:04.9,-0.000606537,-0.00120163,0.007959366,0,
00:05.0,-0.000555038,-0.001338959,0.007781982,0,
00:05.0,-0.000675201,-0.001493454,0.007741928,0,
00:05.0,-0.000732422,-0.001424789,0.007925034,0,
00:05.0,-0.000629425,-0.001184464,0.00797081,0,
00:05.0,-0.0007267,-0.001367569,0.007925034,0,
00:05.0,-0.000715256,-0.001384735,0.007804871,0,
00:05.0,-0.000606537,-0.001350403,0.007936478,0,
00:05.0,-0.000640869,-0.001424789,0.007879257,0,
00:05.0,-0.000675201,-0.00153923,0.007850647,0,
00:05.0,-0.000669479,-0.001436234,0.007884979,0,
00:05.0,-0.000629425,-0.001361847,0.007799149,0,
00:05.0,-0.000543594,-0.001424789,0.007741928,0,
00:00:05,-0.00069809,-0.001487732,0.007965088,0,
00:05.0,-0.00078392,-0.001338959,0.007930756,0,
00:05.0,-0.000703812,-0.001241684,0.007896423,0,
00:05.0,-0.000606537,-0.001241684,0.007850647,0,
00:05.0,-0.000629425,-0.001281738,0.007827759,0,
00:05.0,-0.000658035,-0.001213074,0.007799149,0,
00:05.0,-0.000749588,-0.001367569,0.007919312,0,
00:05.0,-0.000663757,-0.001447678,0.007925034,0,
00:05.0,-0.000652313,-0.0014534,0.007781982,0,
00:05.0,-0.000675201,-0.001367569,0.007764816,0,
00:05.0,-0.000680923,-0.001373291,0.007862091,0,
00:05.0,-0.000600815,-0.001424789,0.007844925,0,
00:05.0,-0.000600815,-0.001401901,0.007839203,0,
00:05.1,-0.000577927,-0.00128746,0.007987976,0,
00:05.1,-0.000663757,-0.001356125,0.007856369,0,
00:05.1,-0.000743866,-0.001419067,0.007793427,0,
00:05.1,-0.000732422,-0.001344681,0.00777626,0,
00:05.1,-0.000566483,-0.00128746,0.007930756,0,
00:05.1,-0.000572205,-0.001321793,0.007839203,0,
00:05.1,-0.00069809,-0.001356125,0.007822037,0,
00:05.1,-0.000703812,-0.001373291,0.007890701,0,
00:05.1,-0.000743866,-0.001327515,0.007850647,0,
00:05.1,-0.000549316,-0.001316071,0.007907867,0,
00:05.1,-0.000583649,-0.001356125,0.00799942,0,
00:05.1,-0.000801086,-0.001562119,0.007741928,0,
00:05.1,-0.000732422,-0.001459122,0.00777626,0,
00:05.1,-0.000617981,-0.001281738,0.007804871,0,
00:05.1,-0.000629425,-0.001361847,0.007873535,0,
00:05.1,-0.000555038,-0.001304626,0.007953644,0,
00:05.1,-0.000686646,-0.001413345,0.007724762,0,
00:05.1,-0.00069809,-0.0014534,0.007661819,0,
00:05.1,-0.000629425,-0.001338959,0.007907867,0,
00:05.1,-0.000629425,-0.001338959,0.007947922,0,
00:05.1,-0.000606537,-0.001333237,0.007862091,0,
00:05.1,-0.000778198,-0.001293182,0.007799149,0,
00:05.1,-0.000555038,-0.001304626,0.007793427,0,
00:05.1,-0.000606537,-0.001379013,0.007947922,0,
00:05.1,-0.000600815,-0.001367569,0.00797081,0,
00:05.2,-0.000669479,-0.001419067,0.007856369,0,
00:05.2,-0.000738144,-0.001344681,0.007730484,0,
00:05.2,-0.000589371,-0.001304626,0.007873535,0,
00:05.2,-0.00069809,-0.001350403,0.007833481,0,
00:05.2,-0.000709534,-0.001356125,0.007799149,0,
00:05.2,-0.000686646,-0.001384735,0.007770538,0,
00:05.2,-0.000595093,-0.001413345,0.007879257,0,
00:05.2,-0.000612259,-0.001424789,0.007936478,0,
00:05.2,-0.000658035,-0.001333237,0.007844925,0,
00:05.2,-0.000703812,-0.001270294,0.007781982,0,
00:05.2,-0.000692368,-0.001281738,0.007844925,0,
00:05.2,-0.000652313,-0.001356125,0.007822037,0,
00:05.2,-0.000497818,-0.001493454,0.007862091,0,
00:05.2,-0.000652313,-0.001419067,0.007839203,0,
00:05.2,-0.000709534,-0.001276016,0.00769043,0,
00:05.2,-0.000577927,-0.001304626,0.007787704,0,
00:05.2,-0.000635147,-0.001464844,0.008050919,0,
00:05.2,-0.000720978,-0.001493454,0.007793427,0,
00:05.2,-0.000606537,-0.001293182,0.007822037,0,
00:05.2,-0.000583649,-0.001298904,0.007925034,0,
00:05.2,-0.000778198,-0.001333237,0.007839203,0,
00:05.2,-0.00069809,-0.001270294,0.007793427,0,
00:05.2,-0.000537872,-0.001247406,0.007936478,0,
00:05.2,-0.00069809,-0.001441956,0.007810593,0,
00:05.2,-0.000658035,-0.001441956,0.007770538,0,
00:05.3,-0.000606537,-0.001367569,0.007844925,0,
00:05.3,-0.000492096,-0.001264572,0.007896423,0,
00:05.3,-0.000623703,-0.001401901,0.007884979,0,
00:05.3,-0.000823975,-0.001430511,0.007724762,0,
00:05.3,-0.000635147,-0.001293182,0.007810593,0,
00:05.3,-0.000680923,-0.001321793,0.007816315,0,
00:05.3,-0.000663757,-0.001367569,0.007770538,0,
00:05.3,-0.000520706,-0.001293182,0.007873535,0,
00:05.3,-0.000617981,-0.001276016,0.007902145,0,
00:05.3,-0.000606537,-0.001356125,0.007982254,0,
00:05.3,-0.00075531,-0.001533508,0.007810593,0,
00:05.3,-0.000652313,-0.00153923,0.007770538,0,
00:05.3,-0.000703812,-0.001367569,0.007713318,0,
00:05.3,-0.00047493,-0.001115799,0.007713318,0,
00:05.3,-0.000617981,-0.001224518,0.007890701,0,
00:05.3,-0.000692368,-0.001361847,0.007879257,0,
00:05.3,-0.000543594,-0.001333237,0.007850647,0,
00:05.3,-0.000646591,-0.001390457,0.007867813,0,
00:05.3,-0.000635147,-0.001424789,0.007844925,0,
00:05.3,-0.000595093,-0.001350403,0.007879257,0,
00:05.3,-0.000583649,-0.001298904,0.007827759,0,
00:05.3,-0.000652313,-0.001361847,0.007816315,0,
00:05.3,-0.000686646,-0.001361847,0.007793427,0,
00:05.3,-0.000658035,-0.001298904,0.007793427,0,
00:05.3,-0.000772476,-0.001424789,0.00777626,0,
00:05.4,-0.000743866,-0.001441956,0.007770538,0,
00:05.4,-0.000566483,-0.001419067,0.007810593,0,
00:05.4,-0.000652313,-0.001356125,0.007759094,0,
00:05.4,-0.000640869,-0.001247406,0.007793427,0,
00:05.4,-0.000509262,-0.001253128,0.007930756,0,
00:05.4,-0.000577927,-0.001356125,0.007827759,0,
00:05.4,-0.000686646,-0.001401901,0.007793427,0,
00:05.4,-0.000640869,-0.001298904,0.007753372,0,
00:05.4,-0.000549316,-0.001241684,0.007816315,0,
00:05.4,-0.000600815,-0.001327515,0.007781982,0,
00:05.4,-0.000629425,-0.001384735,0.007833481,0,
00:05.4,-0.000652313,-0.001407623,0.007850647,0,
00:05.4,-0.000669479,-0.001338959,0.007804871,0,
00:05.4,-0.000720978,-0.00128746,0.007799149,0,
00:05.4,-0.000732422,-0.001298904,0.007753372,0,
00:05.4,-0.000583649,-0.001447678,0.007759094,0,
00:05.4,-0.000492096,-0.001464844,0.007839203,0,
00:05.4,-0.000852585,-0.001413345,0.007696152,0,
00:05.4,-0.000961304,-0.00128746,0.007724762,0,
00:05.4,-0.000509262,-0.001333237,0.007804871,0,
00:05.4,-0.000680923,-0.001556396,0.007667542,0,
00:05.4,-0.000801086,-0.001464844,0.007678986,0,
00:05.4,-0.000715256,-0.001419067,0.007713318,0,
00:05.4,-0.000715256,-0.001441956,0.007696152,0,
00:05.4,-0.000555038,-0.001361847,0.00771904,0,
00:05.5,-0.00053215,-0.001338959,0.007713318,0,
00:05.5,-0.00056076,-0.001224518,0.007844925,0,
00:05.5,-0.000577927,-0.001293182,0.007879257,0,
00:05.5,-0.0007267,-0.001436234,0.007713318,0,
00:05.5,-0.000595093,-0.001333237,0.007638931,0,
00:05.5,-0.000606537,-0.001304626,0.007839203,0,
00:05.5,-0.000617981,-0.001356125,0.007896423,0,
00:05.5,-0.000629425,-0.001407623,0.007770538,0,
00:05.5,-0.000543594,-0.001333237,0.007862091,0,
00:05.5,-0.000629425,-0.00125885,0.007879257,0,
00:05.5,-0.00056076,-0.001321793,0.00771904,0,
00:05.5,-0.00069809,-0.001304626,0.00774765,0,
00:05.5,-0.000703812,-0.001333237,0.007713318,0,
00:05.5,-0.000663757,-0.001316071,0.007764816,0,
00:05.5,-0.000640869,-0.001316071,0.007741928,0,
00:05.5,-0.00053215,-0.001361847,0.007736206,0,
00:05.5,-0.000549316,-0.001476288,0.007867813,0,
00:05.5,-0.000675201,-0.001550674,0.007844925,0,
00:05.5,-0.00075531,-0.001579285,0.007673264,0,
00:05.5,-0.000577927,-0.001304626,0.007810593,0,
00:05.5,-0.000715256,-0.001247406,0.007856369,0,
00:05.5,-0.000778198,-0.001373291,0.00771904,0,
00:05.5,-0.000680923,-0.001390457,0.007707596,0,
00:05.5,-0.000663757,-0.001241684,0.00777626,0,
00:05.5,-0.000486374,-0.001161575,0.007741928,0,
00:05.6,-0.000526428,-0.001235962,0.007879257,0,
00:05.6,-0.000583649,-0.00128746,0.007867813,0,
00:05.6,-0.000658035,-0.001413345,0.007822037,0,
00:05.6,-0.000703812,-0.001390457,0.007736206,0,
00:05.6,-0.000675201,-0.001384735,0.007667542,0,
00:05.6,-0.000635147,-0.001384735,0.00771904,0,
00:05.6,-0.000612259,-0.001379013,0.007764816,0,
00:05.6,-0.000555038,-0.001356125,0.007810593,0,
00:05.6,-0.000509262,-0.001207352,0.007902145,0,
00:05.6,-0.000680923,-0.001384735,0.00771904,0,
00:05.6,-0.00078392,-0.00148201,0.007667542,0,
00:05.6,-0.000835419,-0.001493454,0.007724762,0,
00:05.6,-0.000692368,-0.001390457,0.007673264,0,
00:05.6,-0.000486374,-0.001350403,0.007827759,0,
00:05.6,-0.000514984,-0.001327515,0.007833481,0,
00:05.6,-0.000577927,-0.001356125,0.007713318,0,
00:05.6,-0.000606537,-0.001338959,0.007804871,0,
00:05.6,-0.000583649,-0.001270294,0.007770538,0,
00:05.6,-0.000589371,-0.001173019,0.00771904,0,
00:05.6,-0.000526428,-0.00120163,0.007713318,0,
00:05.6,-0.000526428,-0.00128746,0.007919312,0,
00:05.6,-0.000646591,-0.001350403,0.007919312,0,
00:05.6,-0.000749588,-0.001441956,0.007701874,0,
00:05.6,-0.000675201,-0.001470566,0.007667542,0,
00:05.6,-0.00069809,-0.001401901,0.00771904,0,
00:05.7,-0.000617981,-0.001281738,0.007701874,0,
00:05.7,-0.00056076,-0.001190186,0.00774765,0,
00:05.7,-0.000543594,-0.00123024,0.007833481,0,
00:05.7,-0.000583649,-0.001424789,0.007713318,0,
00:05.7,-0.000658035,-0.001396179,0.007770538,0,
00:05.7,-0.000646591,-0.001441956,0.00771904,0,
00:05.7,-0.000663757,-0.001562119,0.007684708,0,
00:05.7,-0.000663757,-0.001350403,0.007759094,0,
00:05.7,-0.000577927,-0.001184464,0.007816315,0,
00:05.7,-0.000555038,-0.001241684,0.007810593,0,
00:05.7,-0.000635147,-0.001470566,0.00774765,0,
00:05.7,-0.000675201,-0.001441956,0.007644653,0,
00:05.7,-0.000572205,-0.001281738,0.007764816,0,
00:05.7,-0.000509262,-0.001293182,0.007770538,0,
00:05.7,-0.000514984,-0.001241684,0.007684708,0,
00:05.7,-0.000555038,-0.001144409,0.007736206,0,
00:05.7,-0.000537872,-0.001098633,0.007713318,0,
00:05.7,-0.000583649,-0.001241684,0.007913589,0,
00:05.7,-0.000926971,-0.001573563,0.007593155,0,
00:05.7,-0.000864029,-0.001487732,0.007598877,0,
00:05.7,-0.000543594,-0.001373291,0.007793427,0,
00:05.7,-0.000629425,-0.001367569,0.00771904,0,
00:05.7,-0.00053215,-0.001218796,0.007713318,0,
00:05.7,-0.000520706,-0.001293182,0.007575989,0,
00:05.7,-0.000555038,-0.001350403,0.007764816,0,
00:05.8,-0.000617981,-0.001424789,0.007844925,0,
00:05.8,-0.000703812,-0.001550674,0.007741928,0,
00:05.8,-0.000640869,-0.001407623,0.007764816,0,
00:05.8,-0.000703812,-0.001344681,0.007684708,0,
00:05.8,-0.000640869,-0.001270294,0.007701874,0,
00:05.8,-0.00056076,-0.00120163,0.007753372,0,
00:05.8,-0.000577927,-0.001235962,0.007736206,0,
00:05.8,-0.000629425,-0.001338959,0.00771904,0,
00:05.8,-0.000663757,-0.001487732,0.007638931,0,
00:05.8,-0.000680923,-0.001356125,0.007684708,0,
00:05.8,-0.000617981,-0.001333237,0.007713318,0,
00:05.8,-0.000514984,-0.001121521,0.007724762,0,
00:05.8,-0.000452042,-0.001161575,0.00774765,0,
00:05.8,-0.000686646,-0.001470566,0.007610321,0,
00:05.8,-0.000703812,-0.00148201,0.007553101,0,
00:05.8,-0.000612259,-0.001304626,0.007673264,0,
00:05.8,-0.000617981,-0.001190186,0.007822037,0,
00:05.8,-0.000640869,-0.001310349,0.007781982,0,
00:05.8,-0.000589371,-0.001281738,0.007759094,0,
00:05.8,-0.000635147,-0.001276016,0.007781982,0,
00:05.8,-0.000778198,-0.001464844,0.007616043,0,
00:05.8,-0.000669479,-0.001493454,0.007610321,0,
00:05.8,-0.000589371,-0.001413345,0.007707596,0,
00:05.8,-0.000572205,-0.001379013,0.007627487,0,
00:05.8,-0.000572205,-0.001247406,0.007684708,0,
00:05.9,-0.000595093,-0.001247406,0.007724762,0,
00:05.9,-0.000612259,-0.001447678,0.007616043,0,
00:05.9,-0.000429153,-0.001241684,0.007684708,0,
00:05.9,-0.000537872,-0.00123024,0.007822037,0,
00:05.9,-0.000789642,-0.001356125,0.007678986,0,
00:05.9,-0.000680923,-0.001235962,0.007667542,0,
00:05.9,-0.000635147,-0.001281738,0.007661819,0,
00:05.9,-0.000583649,-0.001253128,0.007713318,0,
00:05.9,-0.000623703,-0.001367569,0.00769043,0,
00:05.9,-0.000680923,-0.001401901,0.00769043,0,
00:05.9,-0.000652313,-0.001344681,0.007730484,0,
00:05.9,-0.00050354,-0.001344681,0.00771904,0,
00:05.9,-0.000589371,-0.001356125,0.007633209,0,
00:05.9,-0.000583649,-0.00125885,0.007667542,0,
00:05.9,-0.000566483,-0.001167297,0.007770538,0,
00:05.9,-0.000623703,-0.001281738,0.00774765,0,
00:05.9,-0.000623703,-0.00128746,0.007673264,0,
00:05.9,-0.000703812,-0.001407623,0.007564545,0,
00:05.9,-0.000675201,-0.001379013,0.007656097,0,
00:05.9,-0.000617981,-0.001333237,0.007673264,0,
00:05.9,-0.000566483,-0.00125885,0.007701874,0,
00:05.9,-0.000572205,-0.001293182,0.007741928,0,
00:05.9,-0.000640869,-0.001373291,0.007638931,0,
00:05.9,-0.000715256,-0.001436234,0.007621765,0,
00:05.9,-0.000629425,-0.001356125,0.007644653,0,
00:06.0,-0.00056076,-0.00128746,0.007558823,0,
00:06.0,-0.000555038,-0.001253128,0.007575989,0,
00:06.0,-0.00056076,-0.001293182,0.007764816,0,
00:06.0,-0.000577927,-0.00123024,0.007816315,0,
00:06.0,-0.000549316,-0.001270294,0.007707596,0,
00:06.0,-0.000612259,-0.001218796,0.007701874,0,
00:06.0,-0.000623703,-0.001207352,0.007650375,0,
00:06.0,-0.00056076,-0.00123024,0.007730484,0,
00:06.0,-0.000589371,-0.001207352,0.007707596,0,
00:06.0,-0.000492096,-0.001184464,0.007781982,0,
00:06.0,-0.000652313,-0.001499176,0.007656097,0,
00:06.0,-0.000743866,-0.001533508,0.007604599,0,
00:00:06,-0.000812531,-0.001562119,0.007501602,0,
00:06.0,-0.000732422,-0.001459122,0.007558823,0,
00:06.0,-0.000583649,-0.00125885,0.007593155,0,
00:06.0,-0.000617981,-0.001235962,0.007684708,0,
00:06.0,-0.00056076,-0.00125885,0.007707596,0,
00:06.0,-0.000566483,-0.001247406,0.007701874,0,
00:06.0,-0.000600815,-0.001207352,0.007644653,0,
00:06.0,-0.000600815,-0.001327515,0.007587433,0,
00:06.0,-0.000623703,-0.001304626,0.007644653,0,
00:06.0,-0.00044632,-0.00120163,0.007810593,0,
00:06.0,-0.00069809,-0.001333237,0.007604599,0,
00:06.0,-0.000846863,-0.001390457,0.007575989,0,
00:06.0,-0.000675201,-0.001379013,0.007621765,0,
00:06.1,-0.00056076,-0.001344681,0.007644653,0,
00:06.1,-0.000652313,-0.001276016,0.007587433,0,
00:06.1,-0.000612259,-0.00123024,0.00749588,0,
00:06.1,-0.000549316,-0.001293182,0.007627487,0,
00:06.1,-0.000537872,-0.001281738,0.007793427,0,
00:06.1,-0.000526428,-0.001218796,0.007781982,0,
00:06.1,-0.000640869,-0.001281738,0.007661819,0,
00:06.1,-0.000692368,-0.00128746,0.007593155,0,
00:06.1,-0.000629425,-0.001281738,0.007650375,0,
00:06.1,-0.000675201,-0.001241684,0.007656097,0,
00:06.1,-0.000617981,-0.001379013,0.007587433,0,
00:06.1,-0.000589371,-0.00151062,0.007535934,0,
00:06.1,-0.000612259,-0.001316071,0.007673264,0,
00:06.1,-0.000646591,-0.001195908,0.007621765,0,
00:06.1,-0.000646591,-0.00128746,0.007627487,0,
00:06.1,-0.000640869,-0.001338959,0.007541656,0,
00:06.1,-0.000612259,-0.001178741,0.007724762,0,
00:06.1,-0.000623703,-0.001293182,0.007627487,0,
00:06.1,-0.000686646,-0.001356125,0.007535934,0,
00:06.1,-0.000680923,-0.001298904,0.007564545,0,
00:06.1,-0.000646591,-0.001293182,0.007587433,0,
00:06.1,-0.000520706,-0.001310349,0.007661819,0,
00:06.1,-0.000595093,-0.001361847,0.007644653,0,
00:06.1,-0.000612259,-0.001327515,0.00752449,0,
00:06.1,-0.000635147,-0.00128746,0.007558823,0,
00:06.2,-0.000652313,-0.001144409,0.007661819,0,
00:06.2,-0.000549316,-0.001138687,0.007616043,0,
00:06.2,-0.000577927,-0.001310349,0.007621765,0,
00:06.2,-0.000658035,-0.001321793,0.007644653,0,
00:06.2,-0.000612259,-0.001276016,0.007661819,0,
00:06.2,-0.000617981,-0.001298904,0.007673264,0,
00:06.2,-0.00056076,-0.001310349,0.007541656,0,
00:06.2,-0.000612259,-0.001333237,0.00746727,0,
00:06.2,-0.000537872,-0.001304626,0.007553101,0,
00:06.2,-0.000617981,-0.001247406,0.007713318,0,
00:06.2,-0.000589371,-0.001138687,0.007793427,0,
00:06.2,-0.000623703,-0.001281738,0.007678986,0,
00:06.2,-0.000806808,-0.001413345,0.007450104,0,
00:06.2,-0.000738144,-0.001379013,0.007541656,0,
00:06.2,-0.000583649,-0.001367569,0.007593155,0,
00:06.2,-0.000589371,-0.001264572,0.007564545,0,
00:06.2,-0.000658035,-0.001247406,0.007575989,0,
00:06.2,-0.000595093,-0.00120163,0.007633209,0,
00:06.2,-0.000572205,-0.001276016,0.007507324,0,
00:06.2,-0.000692368,-0.001361847,0.007570267,0,
00:06.2,-0.000629425,-0.001293182,0.007530212,0,
00:06.2,-0.000606537,-0.001310349,0.007598877,0,
00:06.2,-0.000600815,-0.00128746,0.007667542,0,
00:06.2,-0.000612259,-0.001304626,0.007633209,0,
00:06.2,-0.000652313,-0.00125885,0.007564545,0,
00:06.3,-0.00053215,-0.001138687,0.007610321,0,
00:06.3,-0.000555038,-0.001178741,0.007673264,0,
00:06.3,-0.000583649,-0.001195908,0.007587433,0,
00:06.3,-0.000543594,-0.001115799,0.007575989,0,
00:06.3,-0.000663757,-0.001327515,0.007507324,0,
00:06.3,-0.000732422,-0.001407623,0.007490158,0,
00:06.3,-0.000646591,-0.001327515,0.007575989,0,
00:06.3,-0.000612259,-0.001321793,0.007518768,0,
00:06.3,-0.000658035,-0.00128746,0.007564545,0,
00:06.3,-0.000583649,-0.001195908,0.007575989,0,
00:06.3,-0.000703812,-0.001304626,0.007535934,0,
00:06.3,-0.000658035,-0.001413345,0.007547379,0,
00:06.3,-0.000577927,-0.001344681,0.007547379,0,
00:06.3,-0.000640869,-0.001321793,0.007547379,0,
00:06.3,-0.000600815,-0.001316071,0.007610321,0,
00:06.3,-0.000589371,-0.00123024,0.007621765,0,
00:06.3,-0.000595093,-0.001127243,0.007570267,0,
00:06.3,-0.000686646,-0.001155853,0.007490158,0,
00:06.3,-0.000686646,-0.001321793,0.007598877,0,
00:06.3,-0.000675201,-0.00148201,0.007593155,0,
00:06.3,-0.000595093,-0.001333237,0.007570267,0,
00:06.3,-0.000566483,-0.001110077,0.007513046,0,
00:06.3,-0.000526428,-0.001121521,0.007513046,0,
00:06.3,-0.000680923,-0.001338959,0.007444382,0,
00:06.3,-0.000680923,-0.001327515,0.007547379,0,
00:06.4,-0.000617981,-0.001235962,0.007610321,0,
00:06.4,-0.000623703,-0.001235962,0.007575989,0,
00:06.4,-0.000606537,-0.001298904,0.007564545,0,
00:06.4,-0.000589371,-0.001293182,0.007638931,0,
00:06.4,-0.000617981,-0.00128746,0.007518768,0,
00:06.4,-0.000572205,-0.001161575,0.007535934,0,
00:06.4,-0.000640869,-0.001253128,0.007598877,0,
00:06.4,-0.000669479,-0.001356125,0.007472992,0,
00:06.4,-0.000600815,-0.001316071,0.007507324,0,
00:06.4,-0.000566483,-0.00128746,0.007553101,0,
00:06.4,-0.000669479,-0.00125885,0.007547379,0,
00:06.4,-0.000761032,-0.001235962,0.00746727,0,
00:06.4,-0.000595093,-0.00123024,0.007381439,0,
00:06.4,-0.000595093,-0.00128746,0.007558823,0,
00:06.4,-0.000640869,-0.00128746,0.007633209,0,
00:06.4,-0.000640869,-0.001298904,0.007547379,0,
00:06.4,-0.000623703,-0.00125885,0.007541656,0,
00:06.4,-0.000577927,-0.001150131,0.007593155,0,
00:06.4,-0.000549316,-0.001138687,0.007558823,0,
00:06.4,-0.000577927,-0.001173019,0.007558823,0,
00:06.4,-0.000612259,-0.001218796,0.007564545,0,
00:06.4,-0.000577927,-0.001310349,0.007558823,0,
00:06.4,-0.000589371,-0.001401901,0.007455826,0,
00:06.4,-0.000600815,-0.00128746,0.00749588,0,
00:06.4,-0.000652313,-0.001356125,0.007513046,0,
00:06.5,-0.000789642,-0.001430511,0.007455826,0,
00:06.5,-0.000680923,-0.001247406,0.007501602,0,
00:06.5,-0.000623703,-0.001110077,0.007553101,0,
00:06.5,-0.000595093,-0.001178741,0.007518768,0,
00:06.5,-0.000646591,-0.001310349,0.007444382,0,
00:06.5,-0.000715256,-0.001424789,0.007518768,0,
00:06.5,-0.000640869,-0.001327515,0.007455826,0,
00:06.5,-0.000612259,-0.001241684,0.007444382,0,
00:06.5,-0.000600815,-0.001338959,0.007415771,0,
00:06.5,-0.000543594,-0.001293182,0.007513046,0,
00:06.5,-0.000703812,-0.001190186,0.007507324,0,
00:06.5,-0.000543594,-0.001121521,0.007501602,0,
00:06.5,-0.000658035,-0.001298904,0.007598877,0,
00:06.5,-0.000663757,-0.001270294,0.007604599,0,
00:06.5,-0.00069809,-0.001281738,0.007553101,0,
00:06.5,-0.000709534,-0.001316071,0.007461548,0,
00:06.5,-0.000520706,-0.00120163,0.007530212,0,
00:06.5,-0.000577927,-0.001218796,0.007501602,0,
00:06.5,-0.000675201,-0.00123024,0.007392883,0,
00:06.5,-0.000686646,-0.001293182,0.007398605,0,
00:06.5,-0.000612259,-0.001384735,0.007513046,0,
00:06.5,-0.000520706,-0.00128746,0.007558823,0,
00:06.5,-0.000640869,-0.001207352,0.00752449,0,
00:06.5,-0.000652313,-0.001235962,0.007484436,0,
00:06.5,-0.000715256,-0.00128746,0.007513046,0,
00:06.6,-0.000589371,-0.001241684,0.007484436,0,
00:06.6,-0.000629425,-0.001127243,0.007518768,0,
00:06.6,-0.000595093,-0.00120163,0.007553101,0,
00:06.6,-0.00069809,-0.001384735,0.007398605,0,
00:06.6,-0.000675201,-0.001373291,0.007513046,0,
00:06.6,-0.000606537,-0.001310349,0.007415771,0,
00:06.6,-0.000549316,-0.001213074,0.007421494,0,
00:06.6,-0.000646591,-0.001253128,0.007604599,0,
00:06.6,-0.000623703,-0.00128746,0.007575989,0,
00:06.6,-0.000566483,-0.00123024,0.007570267,0,
00:06.6,-0.000566483,-0.001218796,0.007541656,0,
00:06.6,-0.000623703,-0.001270294,0.007472992,0,
00:06.6,-0.000612259,-0.001298904,0.007518768,0,
00:06.6,-0.000623703,-0.001270294,0.007490158,0,
00:06.6,-0.000612259,-0.001184464,0.007444382,0,
00:06.6,-0.00053215,-0.001132965,0.007427216,0,
00:06.6,-0.000555038,-0.001155853,0.007570267,0,
00:06.6,-0.000720978,-0.001270294,0.007604599,0,
00:06.6,-0.000761032,-0.001218796,0.007398605,0,
00:06.6,-0.000520706,-0.001144409,0.007507324,0,
00:06.6,-0.000577927,-0.001304626,0.007455826,0,
00:06.6,-0.000732422,-0.001373291,0.007432938,0,
00:06.6,-0.000766754,-0.001407623,0.007375717,0,
00:06.6,-0.000629425,-0.001304626,0.007461548,0,
00:06.6,-0.000555038,-0.00120163,0.007558823,0,
00:06.7,-0.000549316,-0.001293182,0.007593155,0,
00:06.7,-0.000583649,-0.001281738,0.007570267,0,
00:06.7,-0.000589371,-0.001173019,0.007518768,0,
00:06.7,-0.000589371,-0.001178741,0.007518768,0,
00:06.7,-0.000692368,-0.001310349,0.007455826,0,
00:06.7,-0.000589371,-0.001190186,0.007513046,0,
00:06.7,-0.000600815,-0.001224518,0.007484436,0,
00:06.7,-0.000663757,-0.001281738,0.00746727,0,
00:06.7,-0.000612259,-0.001316071,0.007432938,0,
00:06.7,-0.000589371,-0.001338959,0.007490158,0,
00:06.7,-0.000606537,-0.001144409,0.007501602,0,
00:06.7,-0.000623703,-0.001098633,0.00749588,0,
00:06.7,-0.000669479,-0.001235962,0.007507324,0,
00:06.7,-0.000600815,-0.00128746,0.007581711,0,
00:06.7,-0.000617981,-0.001384735,0.007507324,0,
00:06.7,-0.000720978,-0.001344681,0.007352829,0,
00:06.7,-0.000680923,-0.001132965,0.007472992,0,
00:06.7,-0.000469208,-0.001161575,0.007478714,0,
00:06.7,-0.00053215,-0.001155853,0.00743866,0,
00:06.7,-0.000675201,-0.001293182,0.007484436,0,
00:06.7,-0.000669479,-0.001241684,0.007518768,0,
00:06.7,-0.000623703,-0.001184464,0.007535934,0,
00:06.7,-0.000629425,-0.001213074,0.007541656,0,
00:06.7,-0.000583649,-0.00123024,0.00749588,0,
00:06.7,-0.000595093,-0.001321793,0.007450104,0,
00:06.8,-0.000623703,-0.001367569,0.007530212,0,
00:06.8,-0.000589371,-0.001316071,0.007547379,0,
00:06.8,-0.000589371,-0.001150131,0.007484436,0,
00:06.8,-0.000635147,-0.001127243,0.007421494,0,
00:06.8,-0.000606537,-0.00120163,0.00743866,0,
00:06.8,-0.000606537,-0.00123024,0.007541656,0,
00:06.8,-0.000606537,-0.00120163,0.007564545,0,
00:06.8,-0.000623703,-0.001293182,0.00749588,0,
00:06.8,-0.000600815,-0.001304626,0.007444382,0,
00:06.8,-0.000549316,-0.001235962,0.007535934,0,
00:06.8,-0.000635147,-0.001241684,0.007478714,0,
00:06.8,-0.000652313,-0.001304626,0.007501602,0,
00:06.8,-0.000646591,-0.001384735,0.007415771,0,
00:06.8,-0.000600815,-0.001224518,0.007410049,0,
00:06.8,-0.000600815,-0.001127243,0.00752449,0,
00:06.8,-0.000663757,-0.001241684,0.007558823,0,
00:06.8,-0.000692368,-0.00128746,0.007484436,0,
00:06.8,-0.000686646,-0.00120163,0.007461548,0,
00:06.8,-0.000549316,-0.001184464,0.007535934,0,
00:06.8,-0.000646591,-0.001235962,0.007530212,0,
00:06.8,-0.000583649,-0.001195908,0.007518768,0,
00:06.8,-0.000606537,-0.001224518,0.007478714,0,
00:06.8,-0.000623703,-0.001224518,0.007455826,0,
00:06.8,-0.00056076,-0.00125885,0.00743866,0,
00:06.8,-0.000583649,-0.001218796,0.007530212,0,
00:06.9,-0.000595093,-0.001173019,0.007518768,0,
00:06.9,-0.00056076,-0.001235962,0.007478714,0,
00:06.9,-0.000629425,-0.00128746,0.007455826,0,
00:06.9,-0.000715256,-0.001235962,0.007570267,0,
00:06.9,-0.000555038,-0.00123024,0.007535934,0,
00:06.9,-0.000457764,-0.001121521,0.007553101,0,
00:06.9,-0.000543594,-0.00120163,0.007518768,0,
00:06.9,-0.000675201,-0.001298904,0.00746727,0,
00:06.9,-0.000640869,-0.001195908,0.007484436,0,
00:06.9,-0.000600815,-0.001207352,0.007450104,0,
00:06.9,-0.000606537,-0.001218796,0.007404327,0,
00:06.9,-0.000612259,-0.001270294,0.007404327,0,
00:06.9,-0.000577927,-0.001178741,0.007616043,0,
00:06.9,-0.000743866,-0.00123024,0.007547379,0,
00:06.9,-0.000629425,-0.001224518,0.007352829,0,
00:06.9,-0.000589371,-0.001270294,0.007553101,0,
00:06.9,-0.000646591,-0.001316071,0.007553101,0,
00:06.9,-0.000612259,-0.001218796,0.007518768,0,
00:06.9,-0.000572205,-0.001178741,0.00752449,0,
00:06.9,-0.000583649,-0.001235962,0.007530212,0,
00:06.9,-0.000595093,-0.001304626,0.007507324,0,
00:06.9,-0.000497818,-0.00123024,0.00749588,0,
00:06.9,-0.000537872,-0.001121521,0.007472992,0,
00:06.9,-0.000675201,-0.001121521,0.007541656,0,
00:06.9,-0.000589371,-0.001155853,0.007530212,0,
00:07.0,-0.000680923,-0.001276016,0.007387161,0,
00:07.0,-0.000686646,-0.001281738,0.007432938,0,
00:07.0,-0.000652313,-0.001281738,0.007513046,0,
00:07.0,-0.000692368,-0.001356125,0.00752449,0,
00:07.0,-0.000703812,-0.001419067,0.007427216,0,
00:07.0,-0.000537872,-0.001264572,0.007564545,0,
00:07.0,-0.000520706,-0.001144409,0.007535934,0,
00:07.0,-0.000589371,-0.001138687,0.007530212,0,
00:07.0,-0.000640869,-0.001207352,0.007501602,0,
00:07.0,-0.000640869,-0.001235962,0.007461548,0,
00:07.0,-0.000555038,-0.001121521,0.007444382,0,
00:07.0,-0.000555038,-0.001155853,0.007535934,0,
00:00:07,-0.000617981,-0.001235962,0.007530212,0,
00:07.0,-0.000612259,-0.00120163,0.00749588,0,
00:07.0,-0.000692368,-0.001276016,0.007415771,0,
00:07.0,-0.000686646,-0.001281738,0.007450104,0,
00:07.0,-0.00050354,-0.001270294,0.007598877,0,
00:07.0,-0.000583649,-0.001276016,0.007547379,0,
00:07.0,-0.000606537,-0.001253128,0.007484436,0,
00:07.0,-0.000629425,-0.001384735,0.007450104,0,
00:07.0,-0.000566483,-0.001207352,0.007564545,0,
00:07.0,-0.000629425,-0.001132965,0.007541656,0,
00:07.0,-0.000715256,-0.00123024,0.007432938,0,
00:07.0,-0.000675201,-0.001310349,0.007427216,0,
00:07.0,-0.000549316,-0.001115799,0.007461548,0,
00:07.1,-0.000543594,-0.001070023,0.007541656,0,
00:07.1,-0.000640869,-0.001161575,0.007484436,0,
00:07.1,-0.000658035,-0.001247406,0.007461548,0,
00:07.1,-0.000709534,-0.001281738,0.007450104,0,
00:07.1,-0.000583649,-0.00128746,0.007404327,0,
00:07.1,-0.000640869,-0.001241684,0.007484436,0,
00:07.1,-0.000623703,-0.001224518,0.007535934,0,
00:07.1,-0.000577927,-0.001247406,0.007513046,0,
00:07.1,-0.000595093,-0.001247406,0.00749588,0,
00:07.1,-0.000589371,-0.001190186,0.007530212,0,
00:07.1,-0.000583649,-0.001247406,0.007472992,0,
00:07.1,-0.000623703,-0.001218796,0.007455826,0,
00:07.1,-0.000732422,-0.001304626,0.007450104,0,
00:07.1,-0.000686646,-0.001333237,0.007484436,0,
00:07.1,-0.000669479,-0.001241684,0.00749588,0,
00:07.1,-0.000612259,-0.001178741,0.007484436,0,
00:07.1,-0.000509262,-0.001161575,0.007444382,0,
00:07.1,-0.000640869,-0.001281738,0.007427216,0,
00:07.1,-0.00069809,-0.001298904,0.007455826,0,
00:07.1,-0.000692368,-0.001218796,0.007450104,0,
00:07.1,-0.000629425,-0.001276016,0.007410049,0,
00:07.1,-0.000658035,-0.001361847,0.007427216,0,
00:07.1,-0.000612259,-0.001241684,0.007513046,0,
00:07.1,-0.000549316,-0.001058578,0.007564545,0,
00:07.1,-0.000629425,-0.001121521,0.007530212,0,
00:07.2,-0.000680923,-0.001293182,0.007410049,0,
00:07.2,-0.000646591,-0.001344681,0.007484436,0,
00:07.2,-0.000617981,-0.001316071,0.007501602,0,
00:07.2,-0.000623703,-0.001241684,0.00743866,0,
00:07.2,-0.000646591,-0.001127243,0.007461548,0,
00:07.2,-0.00053215,-0.001052856,0.007564545,0,
00:07.2,-0.000703812,-0.001327515,0.007369995,0,
00:07.2,-0.000703812,-0.001298904,0.007404327,0,
00:07.2,-0.000686646,-0.001235962,0.007450104,0,
00:07.2,-0.000635147,-0.00125885,0.007484436,0,
00:07.2,-0.000572205,-0.001253128,0.007398605,0,
00:07.2,-0.000555038,-0.001150131,0.007461548,0,
00:07.2,-0.000566483,-0.001121521,0.007535934,0,
00:07.2,-0.000526428,-0.00123024,0.007513046,0,
00:07.2,-0.000732422,-0.001459122,0.007329941,0,
00:07.2,-0.000858307,-0.001396179,0.007312775,0,
00:07.2,-0.000732422,-0.001224518,0.007507324,0,
00:07.2,-0.000635147,-0.001247406,0.007484436,0,
00:07.2,-0.000595093,-0.001241684,0.00752449,0,
00:07.2,-0.000583649,-0.001144409,0.007535934,0,
00:07.2,-0.000617981,-0.001195908,0.007490158,0,
00:07.2,-0.000646591,-0.001379013,0.007450104,0,
00:07.2,-0.000583649,-0.00148201,0.00749588,0,
00:07.2,-0.000549316,-0.00125885,0.007530212,0,
00:07.2,-0.00053215,-0.00100708,0.00749588,0,
00:07.3,-0.000600815,-0.00100708,0.007461548,0,
00:07.3,-0.000543594,-0.001070023,0.007455826,0,
00:07.3,-0.000526428,-0.001127243,0.007513046,0,
00:07.3,-0.000617981,-0.001190186,0.00749588,0,
00:07.3,-0.000646591,-0.001241684,0.007450104,0,
00:07.3,-0.000583649,-0.001173019,0.007507324,0,
00:07.3,-0.000623703,-0.001247406,0.007547379,0,
00:07.3,-0.000675201,-0.001321793,0.007427216,0,
00:07.3,-0.000658035,-0.001327515,0.00743866,0,
00:07.3,-0.000675201,-0.001321793,0.007461548,0,
00:07.3,-0.000577927,-0.001184464,0.007530212,0,
00:07.3,-0.000612259,-0.001247406,0.007513046,0,
00:07.3,-0.000629425,-0.001241684,0.007478714,0,
00:07.3,-0.000537872,-0.001087189,0.007427216,0,
00:07.3,-0.00050354,-0.001150131,0.007547379,0,
00:07.3,-0.000675201,-0.00125885,0.007450104,0,
00:07.3,-0.000778198,-0.001333237,0.007415771,0,
00:07.3,-0.000658035,-0.001276016,0.007398605,0,
00:07.3,-0.000606537,-0.001190186,0.00743866,0,
00:07.3,-0.000612259,-0.001144409,0.00743866,0,
00:07.3,-0.000612259,-0.001127243,0.007490158,0,
00:07.3,-0.000652313,-0.001247406,0.007513046,0,
00:07.3,-0.000669479,-0.001304626,0.007472992,0,
00:07.3,-0.00053215,-0.00128746,0.007570267,0,
00:07.3,-0.000526428,-0.001247406,0.007513046,0,
00:07.4,-0.000612259,-0.001184464,0.007461548,0,
00:07.4,-0.000549316,-0.001081467,0.007518768,0,
00:07.4,-0.000600815,-0.001173019,0.007478714,0,
00:07.4,-0.000629425,-0.001207352,0.00746727,0,
00:07.4,-0.000583649,-0.001235962,0.007478714,0,
00:07.4,-0.000566483,-0.001264572,0.007518768,0,
00:07.4,-0.000600815,-0.001281738,0.00743866,0,
00:07.4,-0.000640869,-0.001207352,0.00743866,0,
00:07.4,-0.000555038,-0.001104355,0.007427216,0,
00:07.4,-0.000623703,-0.001173019,0.007415771,0,
00:07.4,-0.000692368,-0.001184464,0.007415771,0,
00:07.4,-0.000623703,-0.001127243,0.007541656,0,
00:07.4,-0.000572205,-0.001207352,0.007564545,0,
00:07.4,-0.000612259,-0.001155853,0.00752449,0,
00:07.4,-0.000509262,-0.001132965,0.007593155,0,
00:07.4,-0.000658035,-0.001407623,0.007455826,0,
00:07.4,-0.000738144,-0.001413345,0.007392883,0,
00:07.4,-0.000652313,-0.001253128,0.007444382,0,
00:07.4,-0.00069809,-0.001293182,0.007472992,0,
00:07.4,-0.000663757,-0.001373291,0.007484436,0,
00:07.4,-0.00053215,-0.001207352,0.00749588,0,
00:07.4,-0.000612259,-0.001110077,0.007507324,0,
00:07.4,-0.000680923,-0.001167297,0.007375717,0,
00:07.4,-0.000526428,-0.001029968,0.007461548,0,
00:07.4,-0.00053215,-0.001138687,0.007541656,0,
00:07.5,-0.000617981,-0.001224518,0.007450104,0,
00:07.5,-0.000692368,-0.001310349,0.007398605,0,
00:07.5,-0.000646591,-0.001247406,0.007415771,0,
00:07.5,-0.000555038,-0.001127243,0.007518768,0,
00:07.5,-0.00050354,-0.001047134,0.007581711,0,
00:07.5,-0.000686646,-0.001218796,0.007404327,0,
00:07.5,-0.000738144,-0.001333237,0.007238388,0,
00:07.5,-0.0007267,-0.001310349,0.007410049,0,
00:07.5,-0.000703812,-0.001270294,0.007501602,0,
00:07.5,-0.000629425,-0.00120163,0.00746727,0,
00:07.5,-0.000600815,-0.001235962,0.007421494,0,
00:07.5,-0.000595093,-0.001356125,0.007404327,0,
00:07.5,-0.000600815,-0.001281738,0.007513046,0,
00:07.5,-0.000629425,-0.00128746,0.007518768,0,
00:07.5,-0.000583649,-0.001161575,0.007421494,0,
00:07.5,-0.000577927,-0.00100708,0.007450104,0,
00:07.5,-0.000640869,-0.001161575,0.00749588,0,
00:07.5,-0.000612259,-0.001213074,0.007461548,0,
00:07.5,-0.000623703,-0.001184464,0.007455826,0,
00:07.5,-0.000635147,-0.001213074,0.007472992,0,
00:07.5,-0.000646591,-0.001155853,0.00746727,0,
00:07.5,-0.000658035,-0.001150131,0.007444382,0,
00:07.5,-0.000514984,-0.001173019,0.007444382,0,
00:07.5,-0.000549316,-0.001247406,0.007507324,0,
00:07.5,-0.000646591,-0.00123024,0.007404327,0,
00:07.6,-0.000606537,-0.001132965,0.007398605,0,
00:07.6,-0.000640869,-0.001178741,0.007461548,0,
00:07.6,-0.000658035,-0.001298904,0.007513046,0,
00:07.6,-0.000583649,-0.001235962,0.007530212,0,
00:07.6,-0.000577927,-0.001161575,0.00746727,0,
00:07.6,-0.000606537,-0.001132965,0.00746727,0,
00:07.6,-0.000629425,-0.001155853,0.007478714,0,
00:07.6,-0.000600815,-0.001178741,0.007455826,0,
00:07.6,-0.000595093,-0.001247406,0.00746727,0,
00:07.6,-0.000623703,-0.001298904,0.007472992,0,
00:07.6,-0.000612259,-0.001127243,0.007432938,0,
00:07.6,-0.000566483,-0.001127243,0.00746727,0,
00:07.6,-0.00053215,-0.00128746,0.007461548,0,
00:07.6,-0.00053215,-0.001224518,0.007472992,0,
00:07.6,-0.000600815,-0.001087189,0.007535934,0,
00:07.6,-0.000743866,-0.001224518,0.007352829,0,
00:07.6,-0.000663757,-0.00125885,0.007329941,0,
00:07.6,-0.00047493,-0.001058578,0.007587433,0,
00:07.6,-0.00069809,-0.001235962,0.007421494,0,
00:07.6,-0.000680923,-0.001218796,0.007324219,0,
00:07.6,-0.000652313,-0.001167297,0.007415771,0,
00:07.6,-0.00056076,-0.001127243,0.007472992,0,
00:07.6,-0.000583649,-0.001178741,0.007484436,0,
00:07.6,-0.000617981,-0.001218796,0.00746727,0,
00:07.6,-0.000583649,-0.001195908,0.00743866,0,
00:07.7,-0.000555038,-0.001207352,0.007404327,0,
00:07.7,-0.000600815,-0.001247406,0.007415771,0,
00:07.7,-0.000623703,-0.001207352,0.007472992,0,
00:07.7,-0.000595093,-0.00120163,0.007501602,0,
00:07.7,-0.000669479,-0.001213074,0.007381439,0,
00:07.7,-0.000555038,-0.001058578,0.007404327,0,
00:07.7,-0.000629425,-0.001224518,0.007564545,0,
00:07.7,-0.000686646,-0.001241684,0.007404327,0,
00:07.7,-0.000635147,-0.001150131,0.007410049,0,
00:07.7,-0.000589371,-0.001115799,0.007455826,0,
00:07.7,-0.000600815,-0.001155853,0.007450104,0,
00:07.7,-0.000583649,-0.001167297,0.007450104,0,
00:07.7,-0.000514984,-0.001121521,0.007513046,0,
00:07.7,-0.000640869,-0.001316071,0.007398605,0,
00:07.7,-0.000658035,-0.001293182,0.007387161,0,
00:07.7,-0.000680923,-0.001253128,0.007335663,0,
00:07.7,-0.000720978,-0.001184464,0.007312775,0,
00:07.7,-0.000658035,-0.001195908,0.007381439,0,
00:07.7,-0.000635147,-0.001235962,0.007398605,0,
00:07.7,-0.000617981,-0.001235962,0.007444382,0,
00:07.7,-0.000595093,-0.001155853,0.007450104,0,
00:07.7,-0.000606537,-0.001110077,0.007455826,0,
00:07.7,-0.000617981,-0.001138687,0.007381439,0,
00:07.7,-0.000555038,-0.001138687,0.007358551,0,
00:07.7,-0.000600815,-0.001150131,0.007490158,0,
00:07.8,-0.000680923,-0.001224518,0.007450104,0,
00:07.8,-0.000663757,-0.00120163,0.007410049,0,
00:07.8,-0.000589371,-0.001184464,0.007444382,0,
00:07.8,-0.000600815,-0.00120163,0.007450104,0,
00:07.8,-0.000589371,-0.001195908,0.007455826,0,
00:07.8,-0.000583649,-0.001184464,0.007421494,0,
00:07.8,-0.000612259,-0.001195908,0.007415771,0,
00:07.8,-0.000646591,-0.001235962,0.007381439,0,
00:07.8,-0.000566483,-0.001184464,0.007398605,0,
00:07.8,-0.000595093,-0.001127243,0.007484436,0,
00:07.8,-0.000526428,-0.000995636,0.007455826,0,
00:07.8,-0.000623703,-0.001098633,0.007461548,0,
00:07.8,-0.000600815,-0.001195908,0.007375717,0,
00:07.8,-0.000640869,-0.001247406,0.007421494,0,
00:07.8,-0.000732422,-0.001304626,0.007392883,0,
00:07.8,-0.00069809,-0.001298904,0.007381439,0,
00:07.8,-0.000686646,-0.001270294,0.007398605,0,
00:07.8,-0.000589371,-0.001115799,0.007387161,0,
00:07.8,-0.000480652,-0.001052856,0.007404327,0,
00:07.8,-0.000589371,-0.001127243,0.007455826,0,
00:07.8,-0.000600815,-0.001184464,0.007461548,0,
00:07.8,-0.000612259,-0.001167297,0.007444382,0,
00:07.8,-0.000595093,-0.001115799,0.007444382,0,
00:07.8,-0.000595093,-0.001155853,0.007432938,0,
00:07.8,-0.000600815,-0.001224518,0.007427216,0,
00:07.9,-0.000600815,-0.001241684,0.007410049,0,
00:07.9,-0.000703812,-0.001235962,0.007421494,0,
00:07.9,-0.000652313,-0.001121521,0.007347107,0,
00:07.9,-0.000440598,-0.001092911,0.007450104,0,
00:07.9,-0.000686646,-0.00125885,0.007347107,0,
00:07.9,-0.000692368,-0.001167297,0.007358551,0,
00:07.9,-0.000640869,-0.001115799,0.007387161,0,
00:07.9,-0.000589371,-0.001121521,0.007398605,0,
00:07.9,-0.000606537,-0.001155853,0.007387161,0,
00:07.9,-0.000652313,-0.001178741,0.007387161,0,
00:07.9,-0.000572205,-0.001132965,0.007484436,0,
00:07.9,-0.000595093,-0.001213074,0.007432938,0,
00:07.9,-0.000629425,-0.001207352,0.007375717,0,
00:07.9,-0.000595093,-0.001173019,0.007387161,0,
00:07.9,-0.000583649,-0.001173019,0.007398605,0,
00:07.9,-0.000589371,-0.001161575,0.007421494,0,
00:07.9,-0.000617981,-0.001167297,0.007398605,0,
00:07.9,-0.000635147,-0.001235962,0.007301331,0,
00:07.9,-0.000520706,-0.001195908,0.007398605,0,
00:07.9,-0.000520706,-0.001155853,0.007461548,0,
00:07.9,-0.000583649,-0.001161575,0.007432938,0,
00:07.9,-0.000743866,-0.00120163,0.007410049,0,
00:07.9,-0.00069809,-0.001161575,0.007392883,0,
00:07.9,-0.000635147,-0.001155853,0.007329941,0,
00:07.9,-0.000526428,-0.001110077,0.007387161,0,
00:08.0,-0.000543594,-0.001127243,0.007432938,0,
00:08.0,-0.000635147,-0.001190186,0.007450104,0,
00:08.0,-0.000600815,-0.001144409,0.007444382,0,
00:08.0,-0.000577927,-0.001110077,0.007415771,0,
00:08.0,-0.000589371,-0.001104355,0.007415771,0,
00:08.0,-0.000595093,-0.001132965,0.007410049,0,
00:08.0,-0.000577927,-0.001167297,0.007375717,0,
00:08.0,-0.000646591,-0.001195908,0.007341385,0,
00:08.0,-0.000606537,-0.001121521,0.007358551,0,
00:08.0,-0.000555038,-0.001138687,0.007461548,0,
00:08.0,-0.000612259,-0.001247406,0.007415771,0,
00:08.0,-0.000600815,-0.001224518,0.007375717,0,
00:00:08,-0.000629425,-0.00123024,0.007318497,0,
00:08.0,-0.000583649,-0.001087189,0.007369995,0,
00:08.0,-0.000612259,-0.001155853,0.007455826,0,
00:08.0,-0.000680923,-0.00120163,0.007410049,0,
00:08.0,-0.000675201,-0.001144409,0.007387161,0,
00:08.0,-0.000589371,-0.001098633,0.007329941,0,
00:08.0,-0.000452042,-0.001081467,0.007347107,0,
00:08.0,-0.000572205,-0.001195908,0.007404327,0,
00:08.0,-0.000686646,-0.001224518,0.007444382,0,
00:08.0,-0.000692368,-0.001213074,0.007364273,0,
00:08.0,-0.000635147,-0.001161575,0.007347107,0,
00:08.0,-0.000600815,-0.001132965,0.007381439,0,
00:08.0,-0.000600815,-0.001104355,0.007369995,0,
00:08.1,-0.000583649,-0.001092911,0.007387161,0,
00:08.1,-0.000583649,-0.001127243,0.007398605,0,
00:08.1,-0.000595093,-0.001224518,0.007392883,0,
00:08.1,-0.000600815,-0.001298904,0.007387161,0,
00:08.1,-0.000589371,-0.001195908,0.007387161,0,
00:08.1,-0.000549316,-0.001041412,0.007375717,0,
00:08.1,-0.000543594,-0.001024246,0.007398605,0,
00:08.1,-0.000555038,-0.001064301,0.007398605,0,
00:08.1,-0.000595093,-0.001161575,0.007387161,0,
00:08.1,-0.000629425,-0.001241684,0.007358551,0,
00:08.1,-0.000732422,-0.00120163,0.007284164,0,
00:08.1,-0.000589371,-0.001075745,0.007204056,0,
00:08.1,-0.00047493,-0.001058578,0.00746727,0,
00:08.1,-0.000675201,-0.001207352,0.007421494,0,
00:08.1,-0.000715256,-0.001247406,0.007284164,0,
00:08.1,-0.000663757,-0.001293182,0.007364273,0,
00:08.1,-0.000669479,-0.00128746,0.007398605,0,
00:08.1,-0.000617981,-0.00120163,0.007381439,0,
00:08.1,-0.000600815,-0.001144409,0.007352829,0,
00:08.1,-0.000635147,-0.001138687,0.007318497,0,
00:08.1,-0.000537872,-0.001178741,0.007432938,0,
00:08.1,-0.000514984,-0.001167297,0.007410049,0,
00:08.1,-0.000640869,-0.001161575,0.007375717,0,
00:08.1,-0.000658035,-0.001115799,0.007335663,0,
00:08.1,-0.000595093,-0.001029968,0.007358551,0,
00:08.2,-0.000572205,-0.001064301,0.007392883,0,
00:08.2,-0.000577927,-0.001138687,0.007381439,0,
00:08.2,-0.000577927,-0.001121521,0.007381439,0,
00:08.2,-0.000577927,-0.001092911,0.007381439,0,
00:08.2,-0.000572205,-0.001092911,0.007375717,0,
00:08.2,-0.000566483,-0.001132965,0.007358551,0,
00:08.2,-0.000566483,-0.001155853,0.007335663,0,
00:08.2,-0.000600815,-0.001167297,0.007387161,0,
00:08.2,-0.000635147,-0.001150131,0.007352829,0,
00:08.2,-0.000640869,-0.001098633,0.007261276,0,
00:08.2,-0.000537872,-0.00100708,0.007364273,0,
00:08.2,-0.000595093,-0.001144409,0.007421494,0,
00:08.2,-0.000583649,-0.001213074,0.007381439,0,
00:08.2,-0.000566483,-0.001218796,0.007352829,0,
00:08.2,-0.000635147,-0.001213074,0.007358551,0,
00:08.2,-0.000629425,-0.001110077,0.007381439,0,
00:08.2,-0.000543594,-0.001052856,0.007415771,0,
00:08.2,-0.000623703,-0.00123024,0.007369995,0,
00:08.2,-0.000738144,-0.001276016,0.007284164,0,
00:08.2,-0.000663757,-0.001144409,0.007249832,0,
00:08.2,-0.000520706,-0.001092911,0.007387161,0,
00:08.2,-0.000566483,-0.001161575,0.007358551,0,
00:08.2,-0.000589371,-0.001092911,0.007364273,0,
00:08.2,-0.000606537,-0.001058578,0.007387161,0,
00:08.2,-0.000595093,-0.001110077,0.007358551,0,
00:08.3,-0.000600815,-0.001224518,0.007387161,0,
00:08.3,-0.000589371,-0.001218796,0.007375717,0,
00:08.3,-0.000566483,-0.001110077,0.007358551,0,
00:08.3,-0.000555038,-0.00100708,0.007352829,0,
00:08.3,-0.00056076,-0.001052856,0.007347107,0,
00:08.3,-0.000583649,-0.001121521,0.007358551,0,
00:08.3,-0.000589371,-0.001104355,0.007307053,0,
00:08.3,-0.000589371,-0.001098633,0.007341385,0,
00:08.3,-0.000635147,-0.001115799,0.007358551,0,
00:08.3,-0.00056076,-0.001127243,0.007398605,0,
00:08.3,-0.000583649,-0.001178741,0.007375717,0,
00:08.3,-0.000629425,-0.001178741,0.007307053,0,
00:08.3,-0.000629425,-0.001155853,0.007289886,0,
00:08.3,-0.000612259,-0.001092911,0.007329941,0,
00:08.3,-0.000549316,-0.001104355,0.007375717,0,
00:08.3,-0.000577927,-0.001167297,0.007410049,0,
00:08.3,-0.000629425,-0.001167297,0.007312775,0,
00:08.3,-0.000623703,-0.001155853,0.007324219,0,
00:08.3,-0.000600815,-0.001184464,0.007329941,0,
00:08.3,-0.000577927,-0.001098633,0.007347107,0,
00:08.3,-0.000617981,-0.001075745,0.007318497,0,
00:08.3,-0.000566483,-0.001075745,0.007381439,0,
00:08.3,-0.000600815,-0.001178741,0.007358551,0,
00:08.3,-0.000595093,-0.00123024,0.00727272,0,
00:08.3,-0.000543594,-0.001087189,0.007369995,0,
00:08.4,-0.000600815,-0.001047134,0.007398605,0,
00:08.4,-0.000595093,-0.001121521,0.007392883,0,
00:08.4,-0.000577927,-0.001150131,0.007347107,0,
00:08.4,-0.000583649,-0.001132965,0.007324219,0,
00:08.4,-0.000623703,-0.001092911,0.007341385,0,
00:08.4,-0.000566483,-0.001070023,0.007352829,0,
00:08.4,-0.000555038,-0.001104355,0.007352829,0,
00:08.4,-0.000589371,-0.001144409,0.007324219,0,
00:08.4,-0.000686646,-0.001213074,0.007329941,0,
00:08.4,-0.000692368,-0.00120163,0.007238388,0,
00:08.4,-0.00056076,-0.001132965,0.007318497,0,
00:08.4,-0.000555038,-0.001104355,0.007450104,0,
00:08.4,-0.000595093,-0.001058578,0.007392883,0,
00:08.4,-0.000595093,-0.001047134,0.007352829,0,
00:08.4,-0.000600815,-0.001110077,0.007352829,0,
00:08.4,-0.000583649,-0.001132965,0.007301331,0,
00:08.4,-0.000617981,-0.001110077,0.007307053,0,
00:08.4,-0.000583649,-0.001098633,0.007341385,0,
00:08.4,-0.00056076,-0.001132965,0.007352829,0,
00:08.4,-0.000583649,-0.001132965,0.007347107,0,
00:08.4,-0.000566483,-0.001092911,0.007329941,0,
00:08.4,-0.000555038,-0.001098633,0.007312775,0,
00:08.4,-0.000646591,-0.001173019,0.007249832,0,
00:08.4,-0.000577927,-0.001150131,0.007266998,0,
00:08.4,-0.000635147,-0.001190186,0.007444382,0,
00:08.5,-0.000686646,-0.001213074,0.007341385,0,
00:08.5,-0.000635147,-0.001127243,0.007335663,0,
00:08.5,-0.000617981,-0.001121521,0.007335663,0,
00:08.5,-0.000537872,-0.001075745,0.007358551,0,
00:08.5,-0.000623703,-0.001127243,0.007324219,0,
00:08.5,-0.000606537,-0.001092911,0.007347107,0,
00:08.5,-0.000583649,-0.001121521,0.007312775,0,
00:08.5,-0.000583649,-0.001241684,0.007312775,0,
00:08.5,-0.000658035,-0.001190186,0.007318497,0,
00:08.5,-0.000658035,-0.001064301,0.007295609,0,
00:08.5,-0.000537872,-0.001029968,0.007261276,0,
00:08.5,-0.000520706,-0.001070023,0.007307053,0,
00:08.5,-0.000595093,-0.001121521,0.007387161,0,
00:08.5,-0.000652313,-0.001144409,0.007347107,0,
00:08.5,-0.000577927,-0.001098633,0.007324219,0,
00:08.5,-0.000595093,-0.001087189,0.007261276,0,
00:08.5,-0.000663757,-0.001161575,0.007307053,0,
00:08.5,-0.000600815,-0.001190186,0.007364273,0,
00:08.5,-0.000543594,-0.001052856,0.007329941,0,
00:08.5,-0.00056076,-0.001058578,0.007232666,0,
00:08.5,-0.000612259,-0.001087189,0.007221222,0,
00:08.5,-0.000623703,-0.001075745,0.007295609,0,
00:08.5,-0.000663757,-0.00123024,0.007427216,0,
00:08.5,-0.000686646,-0.001304626,0.007312775,0,
00:08.5,-0.000640869,-0.001127243,0.007249832,0,
00:08.6,-0.000577927,-0.001024246,0.007301331,0,
00:08.6,-0.000549316,-0.00103569,0.007301331,0,
00:08.6,-0.000629425,-0.001081467,0.007301331,0,
00:08.6,-0.000617981,-0.001110077,0.007301331,0,
00:08.6,-0.000583649,-0.001138687,0.007318497,0,
00:08.6,-0.000589371,-0.001155853,0.007295609,0,
00:08.6,-0.000600815,-0.001173019,0.007312775,0,
00:08.6,-0.000595093,-0.001173019,0.007301331,0,
00:08.6,-0.000623703,-0.001115799,0.007266998,0,
00:08.6,-0.000629425,-0.001058578,0.007175446,0,
00:08.6,-0.000526428,-0.001029968,0.007278442,0,
00:08.6,-0.000572205,-0.001184464,0.007375717,0,
00:08.6,-0.000635147,-0.00120163,0.007324219,0,
00:08.6,-0.000623703,-0.001138687,0.007324219,0,
00:08.6,-0.000617981,-0.001132965,0.007301331,0,
00:08.6,-0.000606537,-0.001121521,0.007261276,0,
00:08.6,-0.000617981,-0.001144409,0.007289886,0,
00:08.6,-0.000600815,-0.001098633,0.007284164,0,
00:08.6,-0.000583649,-0.001041412,0.007278442,0,
00:08.6,-0.000566483,-0.000995636,0.007278442,0,
00:08.6,-0.00056076,-0.001018524,0.007289886,0,
00:08.6,-0.000555038,-0.001058578,0.007249832,0,
00:08.6,-0.000583649,-0.001098633,0.007278442,0,
00:08.6,-0.000612259,-0.001110077,0.007318497,0,
00:08.6,-0.000663757,-0.001104355,0.007278442,0,
00:08.7,-0.000743866,-0.001092911,0.007158279,0,
00:08.7,-0.000555038,-0.001098633,0.007289886,0,
00:08.7,-0.00050354,-0.00120163,0.007392883,0,
00:08.7,-0.000623703,-0.001235962,0.007261276,0,
00:08.7,-0.000658035,-0.001213074,0.007284164,0,
00:08.7,-0.000635147,-0.001110077,0.007307053,0,
00:08.7,-0.000589371,-0.001041412,0.007249832,0,
00:08.7,-0.000537872,-0.001070023,0.007249832,0,
00:08.7,-0.000623703,-0.001115799,0.007289886,0,
00:08.7,-0.000680923,-0.001138687,0.007307053,0,
00:08.7,-0.000623703,-0.00120163,0.007255554,0,
00:08.7,-0.000583649,-0.001178741,0.007278442,0,
00:08.7,-0.000572205,-0.001092911,0.007324219,0,
00:08.7,-0.000583649,-0.001012802,0.00727272,0,
00:08.7,-0.000577927,-0.000995636,0.007266998,0,
00:08.7,-0.000595093,-0.001018524,0.007301331,0,
00:08.7,-0.000658035,-0.001104355,0.007284164,0,
00:08.7,-0.000617981,-0.001213074,0.007266998,0,
00:08.7,-0.000600815,-0.001190186,0.00724411,0,
00:08.7,-0.000600815,-0.001070023,0.007209778,0,
00:08.7,-0.000595093,-0.001041412,0.00727272,0,
00:08.7,-0.000617981,-0.001070023,0.007312775,0,
00:08.7,-0.000617981,-0.001098633,0.007261276,0,
00:08.7,-0.000566483,-0.001070023,0.00724411,0,
00:08.7,-0.000589371,-0.001092911,0.007284164,0,
00:08.8,-0.000555038,-0.001075745,0.007278442,0,
00:08.8,-0.000583649,-0.001121521,0.007226944,0,
00:08.8,-0.000658035,-0.001115799,0.007232666,0,
00:08.8,-0.000612259,-0.001041412,0.00724411,0,
00:08.8,-0.000612259,-0.001104355,0.007266998,0,
00:08.8,-0.000606537,-0.001161575,0.007301331,0,
00:08.8,-0.000549316,-0.001138687,0.007289886,0,
00:08.8,-0.000595093,-0.001121521,0.007261276,0,
00:08.8,-0.000663757,-0.001115799,0.007278442,0,
00:08.8,-0.000640869,-0.001115799,0.007266998,0,
00:08.8,-0.000617981,-0.001070023,0.007226944,0,
00:08.8,-0.000595093,-0.001104355,0.007255554,0,
00:08.8,-0.000617981,-0.001213074,0.007295609,0,
00:08.8,-0.000623703,-0.001138687,0.007226944,0,
00:08.8,-0.000595093,-0.00103569,0.007238388,0,
00:08.8,-0.00056076,-0.001029968,0.007266998,0,
00:08.8,-0.000623703,-0.001110077,0.007266998,0,
00:08.8,-0.000635147,-0.001127243,0.007204056,0,
00:08.8,-0.000606537,-0.001081467,0.0072155,0,
00:08.8,-0.000663757,-0.001075745,0.007249832,0,
00:08.8,-0.000635147,-0.001127243,0.007204056,0,
00:08.8,-0.000549316,-0.001087189,0.007232666,0,
00:08.8,-0.000577927,-0.001070023,0.007278442,0,
00:08.8,-0.000663757,-0.001144409,0.007255554,0,
00:08.8,-0.000658035,-0.001138687,0.007249832,0,
00:08.9,-0.000583649,-0.001075745,0.00724411,0,
00:08.9,-0.000572205,-0.00103569,0.007209778,0,
00:08.9,-0.000629425,-0.001070023,0.007204056,0,
00:08.9,-0.000692368,-0.001104355,0.0072155,0,
00:08.9,-0.000623703,-0.001098633,0.007278442,0,
00:08.9,-0.000566483,-0.001190186,0.00724411,0,
00:08.9,-0.000629425,-0.001178741,0.007232666,0,
00:08.9,-0.000623703,-0.001087189,0.007295609,0,
00:08.9,-0.000577927,-0.001018524,0.007266998,0,
00:08.9,-0.000640869,-0.001052856,0.007112503,0,
00:08.9,-0.000606537,-0.001041412,0.007169724,0,
00:08.9,-0.000589371,-0.001087189,0.007192612,0,
00:08.9,-0.000635147,-0.001150131,0.00724411,0,
00:08.9,-0.000629425,-0.001104355,0.007255554,0,
00:08.9,-0.000623703,-0.001155853,0.007238388,0,
00:08.9,-0.000629425,-0.001161575,0.007232666,0,
00:08.9,-0.000595093,-0.001110077,0.007209778,0,
00:08.9,-0.000606537,-0.001081467,0.007204056,0,
00:08.9,-0.000663757,-0.001058578,0.007209778,0,
00:08.9,-0.000669479,-0.001098633,0.007169724,0,
00:08.9,-0.000675201,-0.001167297,0.007226944,0,
00:08.9,-0.000646591,-0.001115799,0.00724411,0,
00:08.9,-0.000566483,-0.001064301,0.00724411,0,
00:08.9,-0.00050354,-0.001029968,0.007238388,0,
00:08.9,-0.000555038,-0.000995636,0.007204056,0,
00:09.0,-0.000640869,-0.000995636,0.007198334,0,
00:09.0,-0.000635147,-0.001064301,0.007181168,0,
00:09.0,-0.000617981,-0.001127243,0.007238388,0,
00:09.0,-0.000612259,-0.001155853,0.00718689,0,
00:09.0,-0.000572205,-0.001127243,0.007164001,0,
00:09.0,-0.000669479,-0.001087189,0.007164001,0,
00:09.0,-0.000720978,-0.001127243,0.007066727,0,
00:09.0,-0.000646591,-0.001115799,0.007141113,0,
00:09.0,-0.000543594,-0.001070023,0.007284164,0,
00:09.0,-0.000623703,-0.001161575,0.007301331,0,
00:09.0,-0.000658035,-0.001144409,0.007226944,0,
00:09.0,-0.000658035,-0.001144409,0.007226944,0,
00:00:09,-0.000612259,-0.001115799,0.007209778,0,
00:09.0,-0.000589371,-0.00103569,0.007198334,0,
00:09.0,-0.000595093,-0.001024246,0.007209778,0,
00:09.0,-0.000600815,-0.001058578,0.007221222,0,
00:09.0,-0.000514984,-0.001024246,0.007198334,0,
00:09.0,-0.00053215,-0.001058578,0.007209778,0,
00:09.0,-0.000612259,-0.001092911,0.007209778,0,
00:09.0,-0.000663757,-0.001081467,0.007181168,0,
00:09.0,-0.000652313,-0.001075745,0.007181168,0,
00:09.0,-0.000640869,-0.001052856,0.007198334,0,
00:09.0,-0.00069809,-0.001047134,0.007146835,0,
00:09.0,-0.000635147,-0.001075745,0.007192612,0,
00:09.0,-0.000623703,-0.001270294,0.007255554,0,
00:09.1,-0.000663757,-0.001264572,0.007129669,0,
00:09.1,-0.000617981,-0.001132965,0.007146835,0,
00:09.1,-0.000572205,-0.001024246,0.007192612,0,
00:09.1,-0.000606537,-0.000984192,0.007209778,0,
00:09.1,-0.000635147,-0.001041412,0.007198334,0,
00:09.1,-0.000606537,-0.001087189,0.007152557,0,
00:09.1,-0.000555038,-0.001052856,0.00718689,0,
00:09.1,-0.000600815,-0.001121521,0.007209778,0,
00:09.1,-0.000652313,-0.001167297,0.007164001,0,
00:09.1,-0.000652313,-0.001127243,0.007198334,0,
00:09.1,-0.000623703,-0.001041412,0.0072155,0,
00:09.1,-0.000612259,-0.001047134,0.007198334,0,
00:09.1,-0.000600815,-0.001052856,0.007181168,0,
00:09.1,-0.000595093,-0.001058578,0.007198334,0,
00:09.1,-0.000617981,-0.001087189,0.007181168,0,
00:09.1,-0.000640869,-0.001155853,0.007198334,0,
00:09.1,-0.000703812,-0.00123024,0.007146835,0,
00:09.1,-0.000640869,-0.001075745,0.007129669,0,
00:09.1,-0.000520706,-0.000984192,0.007175446,0,
00:09.1,-0.000589371,-0.000995636,0.007209778,0,
00:09.1,-0.000600815,-0.001001358,0.007204056,0,
00:09.1,-0.000566483,-0.001024246,0.007232666,0,
00:09.1,-0.000686646,-0.001087189,0.007181168,0,
00:09.1,-0.00069809,-0.001087189,0.007175446,0,
00:09.1,-0.000675201,-0.001138687,0.007198334,0,
00:09.2,-0.000675201,-0.001235962,0.007141113,0,
00:09.2,-0.000629425,-0.001264572,0.007043839,0,
00:09.2,-0.000537872,-0.001092911,0.007209778,0,
00:09.2,-0.000617981,-0.001041412,0.0072155,0,
00:09.2,-0.000623703,-0.001070023,0.007175446,0,
00:09.2,-0.000629425,-0.001047134,0.007192612,0,
00:09.2,-0.000612259,-0.001001358,0.007204056,0,
00:09.2,-0.000589371,-0.00097847,0.00718689,0,
00:09.2,-0.000600815,-0.001024246,0.00718689,0,
00:09.2,-0.000623703,-0.001075745,0.007175446,0,
00:09.2,-0.000549316,-0.001092911,0.007158279,0,
00:09.2,-0.000537872,-0.001104355,0.007152557,0,
00:09.2,-0.000686646,-0.001184464,0.007135391,0,
00:09.2,-0.000675201,-0.001132965,0.007141113,0,
00:09.2,-0.000663757,-0.001070023,0.007198334,0,
00:09.2,-0.000629425,-0.00103569,0.007209778,0,
00:09.2,-0.000612259,-0.001041412,0.00718689,0,
00:09.2,-0.000612259,-0.001029968,0.007192612,0,
00:09.2,-0.000629425,-0.00103569,0.007164001,0,
00:09.2,-0.000577927,-0.001075745,0.007066727,0,
00:09.2,-0.000600815,-0.001121521,0.007123947,0,
00:09.2,-0.000640869,-0.001110077,0.007238388,0,
00:09.2,-0.000612259,-0.001087189,0.007175446,0,
00:09.2,-0.000623703,-0.001064301,0.007146835,0,
00:09.2,-0.000612259,-0.001064301,0.007169724,0,
00:09.3,-0.000595093,-0.001081467,0.007164001,0,
00:09.3,-0.000635147,-0.001058578,0.007152557,0,
00:09.3,-0.000635147,-0.001104355,0.007141113,0,
00:09.3,-0.000566483,-0.001167297,0.007141113,0,
00:09.3,-0.000617981,-0.001087189,0.007123947,0,
00:09.3,-0.0007267,-0.000995636,0.007101059,0,
00:09.3,-0.000646591,-0.001029968,0.007164001,0,
00:09.3,-0.000589371,-0.001081467,0.007129669,0,
00:09.3,-0.000600815,-0.001075745,0.007135391,0,
00:09.3,-0.000606537,-0.001064301,0.007204056,0,
00:09.3,-0.000612259,-0.001058578,0.007226944,0,
00:09.3,-0.000595093,-0.001047134,0.007192612,0,
00:09.3,-0.000589371,-0.001024246,0.007181168,0,
00:09.3,-0.000600815,-0.001087189,0.007175446,0,
00:09.3,-0.000623703,-0.001207352,0.007123947,0,
00:09.3,-0.000646591,-0.001110077,0.007083893,0,
00:09.3,-0.000612259,-0.000989914,0.007146835,0,
00:09.3,-0.000606537,-0.000984192,0.007164001,0,
00:09.3,-0.000652313,-0.001064301,0.007141113,0,
00:09.3,-0.000669479,-0.001132965,0.007118225,0,
00:09.3,-0.000583649,-0.001121521,0.007158279,0,
00:09.3,-0.000589371,-0.001092911,0.007181168,0,
00:09.3,-0.000646591,-0.001098633,0.007141113,0,
00:09.3,-0.000635147,-0.001024246,0.007135391,0,
00:09.3,-0.000583649,-0.001029968,0.007026672,0,
00:09.4,-0.000606537,-0.001075745,0.007009506,0,
00:09.4,-0.000646591,-0.001058578,0.007141113,0,
00:09.4,-0.000617981,-0.001029968,0.007204056,0,
00:09.4,-0.000652313,-0.001064301,0.007209778,0,
00:09.4,-0.000646591,-0.001087189,0.007169724,0,
00:09.4,-0.000640869,-0.001144409,0.007158279,0,
00:09.4,-0.000635147,-0.001184464,0.007146835,0,
00:09.4,-0.000629425,-0.001144409,0.007146835,0,
00:09.4,-0.000589371,-0.001041412,0.007152557,0,
00:09.4,-0.000589371,-0.001001358,0.007129669,0,
00:09.4,-0.000715256,-0.001075745,0.007083893,0,
00:09.4,-0.000617981,-0.001012802,0.007032394,0,
00:09.4,-0.000583649,-0.001075745,0.006980896,0,
00:09.4,-0.000646591,-0.001104355,0.007106781,0,
00:09.4,-0.000623703,-0.001070023,0.007204056,0,
00:09.4,-0.00056076,-0.001052856,0.007198334,0,
00:09.4,-0.000652313,-0.001058578,0.007204056,0,
00:09.4,-0.000635147,-0.001047134,0.00718689,0,
00:09.4,-0.000612259,-0.001047134,0.007152557,0,
00:09.4,-0.000606537,-0.001029968,0.007141113,0,
00:09.4,-0.000612259,-0.001041412,0.007129669,0,
00:09.4,-0.000617981,-0.001075745,0.007135391,0,
00:09.4,-0.000640869,-0.00103569,0.007123947,0,
00:09.4,-0.000663757,-0.00097847,0.007061005,0,
00:09.4,-0.000623703,-0.001075745,0.006940842,0,
00:09.5,-0.000537872,-0.001110077,0.007152557,0,
00:09.5,-0.000617981,-0.001138687,0.00724411,0,
00:09.5,-0.00069809,-0.001173019,0.007192612,0,
00:09.5,-0.000658035,-0.001110077,0.007158279,0,
00:09.5,-0.000629425,-0.00103569,0.007158279,0,
00:09.5,-0.000623703,-0.001058578,0.007141113,0,
00:09.5,-0.000606537,-0.001047134,0.007123947,0,
00:09.5,-0.000617981,-0.001058578,0.007129669,0,
00:09.5,-0.000617981,-0.001104355,0.007123947,0,
00:09.5,-0.000623703,-0.001110077,0.007146835,0,
00:09.5,-0.000617981,-0.001081467,0.007152557,0,
00:09.5,-0.000617981,-0.001058578,0.007135391,0,
00:09.5,-0.000612259,-0.00103569,0.007123947,0,
00:09.5,-0.000606537,-0.000984192,0.007123947,0,
00:09.5,-0.000606537,-0.001018524,0.007095337,0,
00:09.5,-0.000635147,-0.001058578,0.007061005,0,
00:09.5,-0.000732422,-0.001098633,0.006980896,0,
00:09.5,-0.000589371,-0.001012802,0.007061005,0,
00:09.5,-0.00047493,-0.001012802,0.00724411,0,
00:09.5,-0.000629425,-0.001070023,0.00718689,0,
00:09.5,-0.000652313,-0.001052856,0.007192612,0,
00:09.5,-0.000635147,-0.001029968,0.007175446,0,
00:09.5,-0.000629425,-0.001058578,0.007146835,0,
00:09.5,-0.000663757,-0.001161575,0.007123947,0,
00:09.5,-0.000646591,-0.001184464,0.007129669,0,
00:09.6,-0.000623703,-0.001070023,0.007118225,0,
00:09.6,-0.000617981,-0.001029968,0.007066727,0,
00:09.6,-0.000646591,-0.001132965,0.007049561,0,
00:09.6,-0.000646591,-0.001087189,0.007123947,0,
00:09.6,-0.000612259,-0.000989914,0.007158279,0,
00:09.6,-0.000600815,-0.000955582,0.007158279,0,
00:09.6,-0.000617981,-0.000995636,0.007141113,0,
00:09.6,-0.000658035,-0.001064301,0.007129669,0,
00:09.6,-0.000669479,-0.001121521,0.007106781,0,
00:09.6,-0.000583649,-0.001098633,0.007118225,0,
00:09.6,-0.000537872,-0.001081467,0.007135391,0,
00:09.6,-0.000635147,-0.001024246,0.007106781,0,
00:09.6,-0.000612259,-0.00094986,0.007078171,0,
00:09.6,-0.000629425,-0.001012802,0.007083893,0,
00:09.6,-0.000663757,-0.001070023,0.007135391,0,
00:09.6,-0.000635147,-0.001070023,0.007152557,0,
00:09.6,-0.000623703,-0.001047134,0.007152557,0,
00:09.6,-0.000617981,-0.001029968,0.007141113,0,
00:09.6,-0.000623703,-0.001081467,0.007123947,0,
00:09.6,-0.000646591,-0.001195908,0.007123947,0,
00:09.6,-0.000652313,-0.001190186,0.007123947,0,
00:09.6,-0.000606537,-0.001041412,0.007095337,0,
00:09.6,-0.000589371,-0.000926971,0.007089615,0,
00:09.6,-0.000629425,-0.000972748,0.007061005,0,
00:09.6,-0.000646591,-0.001064301,0.007066727,0,
00:09.7,-0.000709534,-0.001104355,0.007038116,0,
00:09.7,-0.000572205,-0.001081467,0.007083893,0,
00:09.7,-0.000577927,-0.001132965,0.007192612,0,
00:09.7,-0.000692368,-0.001132965,0.007175446,0,
00:09.7,-0.000658035,-0.001052856,0.007129669,0,
00:09.7,-0.000623703,-0.000989914,0.007118225,0,
00:09.7,-0.000629425,-0.00100708,0.007146835,0,
00:09.7,-0.000640869,-0.001012802,0.007123947,0,
00:09.7,-0.000629425,-0.00103569,0.007112503,0,
00:09.7,-0.000617981,-0.001075745,0.007112503,0,
00:09.7,-0.000623703,-0.001029968,0.007112503,0,
00:09.7,-0.000658035,-0.000995636,0.007089615,0,
00:09.7,-0.000629425,-0.00100708,0.006998062,0,
00:09.7,-0.000555038,-0.001110077,0.007089615,0,
00:09.7,-0.000606537,-0.001092911,0.007181168,0,
00:09.7,-0.000600815,-0.00100708,0.007181168,0,
00:09.7,-0.000640869,-0.001047134,0.007123947,0,
00:09.7,-0.000715256,-0.001070023,0.007089615,0,
00:09.7,-0.000738144,-0.001092911,0.007066727,0,
00:09.7,-0.000646591,-0.001161575,0.007038116,0,
00:09.7,-0.000577927,-0.001161575,0.007083893,0,
00:09.7,-0.000589371,-0.001052856,0.007095337,0,
00:09.7,-0.000640869,-0.001041412,0.007129669,0,
00:09.7,-0.000635147,-0.000989914,0.007141113,0,
00:09.7,-0.000583649,-0.000938416,0.007118225,0,
00:09.8,-0.000595093,-0.000972748,0.007106781,0,
00:09.8,-0.000617981,-0.000984192,0.007043839,0,
00:09.8,-0.000595093,-0.001029968,0.007089615,0,
00:09.8,-0.000583649,-0.001115799,0.007129669,0,
00:09.8,-0.000743866,-0.001173019,0.007083893,0,
00:09.8,-0.000680923,-0.001081467,0.007038116,0,
00:09.8,-0.000589371,-0.00103569,0.007078171,0,
00:09.8,-0.000680923,-0.001058578,0.007135391,0,
00:09.8,-0.000640869,-0.001018524,0.007118225,0,
00:09.8,-0.000606537,-0.000995636,0.007118225,0,
00:09.8,-0.000652313,-0.001070023,0.007118225,0,
00:09.8,-0.000658035,-0.001178741,0.007095337,0,
00:09.8,-0.000612259,-0.001161575,0.007083893,0,
00:09.8,-0.000589371,-0.001018524,0.007055283,0,
00:09.8,-0.000652313,-0.00094986,0.007055283,0,
00:09.8,-0.000640869,-0.000995636,0.007083893,0,
00:09.8,-0.000595093,-0.001052856,0.007129669,0,
00:09.8,-0.000635147,-0.001115799,0.007123947,0,
00:09.8,-0.000646591,-0.00103569,0.007095337,0,
00:09.8,-0.000635147,-0.000989914,0.007101059,0,
00:09.8,-0.000612259,-0.001001358,0.007078171,0,
