Elapsed_Time,EMG1,EMG2,EMG3,BioRadio Event,Unnamed: 5
00:00:00,-0.001550674,0.000806808,0.010728836,0,
00:00.0,-0.001556396,0.000806808,0.010728836,0,
00:00.0,-0.001550674,0.000812531,0.010723114,0,
00:00.0,-0.001550674,0.000818253,0.010717392,0,
00:00.0,-0.001556396,0.000812531,0.010717392,0,
00:00.0,-0.001544952,0.000812531,0.010728836,0,
00:00.0,-0.001556396,0.000806808,0.010723114,0,
00:00.0,-0.001556396,0.000812531,0.01071167,0,
00:00.0,-0.001550674,0.000812531,0.010717392,0,
00:00.0,-0.001556396,0.000812531,0.010728836,0,
00:00.0,-0.001550674,0.000812531,0.010728836,0,
00:00.0,-0.001556396,0.000818253,0.010734558,0,
00:00.0,-0.001556396,0.000812531,0.010728836,0,
00:00.1,-0.001550674,0.000801086,0.010728836,0,
00:00.1,-0.001556396,0.000801086,0.010717392,0,
00:00.1,-0.001550674,0.000801086,0.010763168,0,
00:00.1,-0.001544952,0.000801086,0.010757446,0,
00:00.1,-0.001550674,0.000801086,0.010734558,0,
00:00.1,-0.001556396,0.000801086,0.010734558,0,
00:00.1,-0.001556396,0.000806808,0.010746002,0,
00:00.1,-0.00153923,0.000818253,0.01074028,0,
00:00.1,-0.00153923,0.000806808,0.010746002,0,
00:00.1,-0.001550674,0.000806808,0.010751724,0,
00:00.1,-0.001544952,0.000812531,0.010751724,0,
00:00.1,-0.001544952,0.000806808,0.010751724,0,
00:00.1,-0.001550674,0.000801086,0.01074028,0,
00:00.1,-0.001550674,0.000801086,0.010751724,0,
00:00.1,-0.001550674,0.000801086,0.010763168,0,
00:00.1,-0.001544952,0.000806808,0.01076889,0,
00:00.1,-0.00153923,0.000812531,0.01076889,0,
00:00.1,-0.001556396,0.000806808,0.010751724,0,
00:00.1,-0.001562119,0.000801086,0.010746002,0,
00:00.1,-0.00153923,0.000806808,0.010746002,0,
00:00.1,-0.001550674,0.000806808,0.010763168,0,
00:00.1,-0.00153923,0.000801086,0.010751724,0,
00:00.1,-0.00153923,0.000806808,0.010763168,0,
00:00.1,-0.001544952,0.000801086,0.010774612,0,
00:00.1,-0.001544952,0.000801086,0.01076889,0,
00:00.2,-0.001544952,0.000801086,0.010791779,0,
00:00.2,-0.001550674,0.000801086,0.010780334,0,
00:00.2,-0.001544952,0.000801086,0.010780334,0,
00:00.2,-0.001544952,0.000801086,0.010774612,0,
00:00.2,-0.001544952,0.000806808,0.010774612,0,
00:00.2,-0.001544952,0.000806808,0.01076889,0,
00:00.2,-0.00153923,0.000806808,0.01076889,0,
00:00.2,-0.00153923,0.000801086,0.010774612,0,
00:00.2,-0.001556396,0.000801086,0.010791779,0,
00:00.2,-0.001562119,0.000801086,0.010820389,0,
00:00.2,-0.00153923,0.000801086,0.010780334,0,
00:00.2,-0.00153923,0.000806808,0.010774612,0,
00:00.2,-0.00153923,0.000801086,0.010797501,0,
00:00.2,-0.001544952,0.000801086,0.010797501,0,
00:00.2,-0.001533508,0.000806808,0.010791779,0,
00:00.2,-0.001544952,0.000806808,0.010791779,0,
00:00.2,-0.001550674,0.000812531,0.01076889,0,
00:00.2,-0.001527786,0.000818253,0.010791779,0,
00:00.2,-0.00153923,0.000806808,0.010803223,0,
00:00.2,-0.001550674,0.000801086,0.010791779,0,
00:00.2,-0.001550674,0.000795364,0.010803223,0,
00:00.2,-0.001544952,0.000795364,0.010814667,0,
00:00.2,-0.001544952,0.000801086,0.010814667,0,
00:00.2,-0.001544952,0.000801086,0.010820389,0,
00:00.2,-0.00153923,0.000801086,0.010814667,0,
00:00.3,-0.001544952,0.000801086,0.010814667,0,
00:00.3,-0.001544952,0.000806808,0.010814667,0,
00:00.3,-0.001544952,0.000806808,0.010814667,0,
00:00.3,-0.00153923,0.000801086,0.010791779,0,
00:00.3,-0.001544952,0.000806808,0.010797501,0,
00:00.3,-0.001533508,0.000806808,0.010803223,0,
00:00.3,-0.001544952,0.000795364,0.010826111,0,
00:00.3,-0.00153923,0.000795364,0.010826111,0,
00:00.3,-0.00153923,0.000801086,0.010814667,0,
00:00.3,-0.00153923,0.000801086,0.010826111,0,
00:00.3,-0.00153923,0.000801086,0.010826111,0,
00:00.3,-0.001544952,0.000795364,0.010826111,0,
00:00.3,-0.00153923,0.000801086,0.010820389,0,
00:00.3,-0.00153923,0.000806808,0.010820389,0,
00:00.3,-0.001533508,0.000812531,0.010808945,0,
00:00.3,-0.001544952,0.000806808,0.010786057,0,
00:00.3,-0.001544952,0.000801086,0.010803223,0,
00:00.3,-0.001556396,0.000789642,0.010843277,0,
00:00.3,-0.00153923,0.000789642,0.010831833,0,
00:00.3,-0.001533508,0.000806808,0.010826111,0,
00:00.3,-0.001544952,0.000801086,0.010837555,0,
00:00.3,-0.001544952,0.000795364,0.010831833,0,
00:00.3,-0.00153923,0.000801086,0.010820389,0,
00:00.3,-0.001550674,0.000801086,0.010820389,0,
00:00.3,-0.00153923,0.000801086,0.010814667,0,
00:00.4,-0.001544952,0.000801086,0.010831833,0,
00:00.4,-0.00153923,0.000801086,0.010826111,0,
00:00.4,-0.00153923,0.000801086,0.010837555,0,
00:00.4,-0.00153923,0.000801086,0.010837555,0,
00:00.4,-0.001550674,0.000801086,0.010831833,0,
00:00.4,-0.001550674,0.000795364,0.010843277,0,
00:00.4,-0.001544952,0.000795364,0.010843277,0,
00:00.4,-0.001550674,0.000789642,0.010848999,0,
00:00.4,-0.001544952,0.000789642,0.010848999,0,
00:00.4,-0.00153923,0.000801086,0.010843277,0,
00:00.4,-0.001544952,0.000795364,0.010826111,0,
00:00.4,-0.001550674,0.000795364,0.010808945,0,
00:00.4,-0.001544952,0.000795364,0.010843277,0,
00:00.4,-0.001550674,0.000795364,0.010843277,0,
00:00.4,-0.001544952,0.000789642,0.010871887,0,
00:00.4,-0.00153923,0.000795364,0.010854721,0,
00:00.4,-0.00153923,0.000795364,0.010860443,0,
00:00.4,-0.00153923,0.000801086,0.010871887,0,
00:00.4,-0.001544952,0.000795364,0.010860443,0,
00:00.4,-0.001544952,0.000789642,0.010866165,0,
00:00.4,-0.001556396,0.000789642,0.010866165,0,
00:00.4,-0.001544952,0.000795364,0.010860443,0,
00:00.4,-0.001533508,0.000801086,0.010848999,0,
00:00.4,-0.001550674,0.000789642,0.010871887,0,
00:00.4,-0.001544952,0.000801086,0.010860443,0,
00:00.5,-0.00153923,0.000801086,0.010883331,0,
00:00.5,-0.001550674,0.00078392,0.010820389,0,
00:00.5,-0.001550674,0.000789642,0.010871887,0,
00:00.5,-0.001544952,0.000789642,0.010889053,0,
00:00.5,-0.001544952,0.000789642,0.010883331,0,
00:00.5,-0.001544952,0.000789642,0.010883331,0,
00:00.5,-0.001544952,0.000789642,0.010883331,0,
00:00.5,-0.00153923,0.000795364,0.010883331,0,
00:00.5,-0.00153923,0.000795364,0.010877609,0,
00:00.5,-0.001544952,0.000801086,0.010877609,0,
00:00.5,-0.001544952,0.000801086,0.010866165,0,
00:00.5,-0.001567841,0.000795364,0.010866165,0,
00:00.5,-0.00153923,0.000795364,0.010883331,0,
00:00.5,-0.001533508,0.000795364,0.010883331,0,
00:00.5,-0.00153923,0.000789642,0.010889053,0,
00:00.5,-0.001544952,0.00078392,0.010889053,0,
00:00.5,-0.00153923,0.000789642,0.010900497,0,
00:00.5,-0.00153923,0.000795364,0.010883331,0,
00:00.5,-0.001544952,0.000789642,0.010900497,0,
00:00.5,-0.001544952,0.000789642,0.010894775,0,
00:00.5,-0.00153923,0.000789642,0.010889053,0,
00:00.5,-0.00153923,0.000789642,0.010889053,0,
00:00.5,-0.001544952,0.000789642,0.010866165,0,
00:00.5,-0.001550674,0.00078392,0.010900497,0,
00:00.5,-0.00153923,0.000795364,0.010911942,0,
00:00.6,-0.001544952,0.000789642,0.010900497,0,
00:00.6,-0.001544952,0.00078392,0.010900497,0,
00:00.6,-0.00153923,0.000789642,0.010900497,0,
00:00.6,-0.001544952,0.000795364,0.010889053,0,
00:00.6,-0.001550674,0.00078392,0.010894775,0,
00:00.6,-0.001544952,0.00078392,0.010894775,0,
00:00.6,-0.001544952,0.000789642,0.010900497,0,
00:00.6,-0.001544952,0.00078392,0.010889053,0,
00:00.6,-0.001533508,0.00078392,0.010877609,0,
00:00.6,-0.00153923,0.00078392,0.010906219,0,
00:00.6,-0.001544952,0.00078392,0.010917664,0,
00:00.6,-0.001556396,0.000778198,0.010900497,0,
00:00.6,-0.00153923,0.00078392,0.010906219,0,
00:00.6,-0.00153923,0.000789642,0.010906219,0,
00:00.6,-0.001533508,0.000789642,0.010906219,0,
00:00.6,-0.00153923,0.00078392,0.010894775,0,
00:00.6,-0.001533508,0.00078392,0.010894775,0,
00:00.6,-0.001550674,0.00078392,0.010877609,0,
00:00.6,-0.001556396,0.000789642,0.010883331,0,
00:00.6,-0.00153923,0.00078392,0.010911942,0,
00:00.6,-0.00153923,0.00078392,0.010917664,0,
00:00.6,-0.001544952,0.000778198,0.010917664,0,
00:00.6,-0.001544952,0.00078392,0.010917664,0,
00:00.6,-0.001533508,0.000795364,0.010917664,0,
00:00.6,-0.00153923,0.000795364,0.010906219,0,
00:00.7,-0.00153923,0.000789642,0.010900497,0,
00:00.7,-0.001544952,0.00078392,0.010894775,0,
00:00.7,-0.001544952,0.000778198,0.010877609,0,
00:00.7,-0.001544952,0.00078392,0.010923386,0,
00:00.7,-0.00153923,0.00078392,0.010911942,0,
00:00.7,-0.001544952,0.00078392,0.010923386,0,
00:00.7,-0.001544952,0.00078392,0.010917664,0,
00:00.7,-0.001544952,0.00078392,0.010911942,0,
00:00.7,-0.001544952,0.00078392,0.010911942,0,
00:00.7,-0.001544952,0.00078392,0.010911942,0,
00:00.7,-0.001550674,0.00078392,0.010906219,0,
00:00.7,-0.001544952,0.000789642,0.010911942,0,
00:00.7,-0.00153923,0.000795364,0.010889053,0,
00:00.7,-0.001533508,0.000801086,0.010877609,0,
00:00.7,-0.001544952,0.000789642,0.010900497,0,
00:00.7,-0.001544952,0.000766754,0.010917664,0,
00:00.7,-0.00153923,0.000778198,0.010900497,0,
00:00.7,-0.00153923,0.000778198,0.010923386,0,
00:00.7,-0.001544952,0.000778198,0.010929108,0,
00:00.7,-0.001533508,0.00078392,0.010917664,0,
00:00.7,-0.001544952,0.00078392,0.010906219,0,
00:00.7,-0.00153923,0.00078392,0.010923386,0,
00:00.7,-0.001533508,0.00078392,0.010911942,0,
00:00.7,-0.001544952,0.00078392,0.010894775,0,
00:00.7,-0.00153923,0.00078392,0.010917664,0,
00:00.8,-0.001533508,0.00078392,0.010923386,0,
00:00.8,-0.001544952,0.000772476,0.010911942,0,
00:00.8,-0.001544952,0.000778198,0.010929108,0,
00:00.8,-0.00153923,0.000778198,0.010923386,0,
00:00.8,-0.001544952,0.000778198,0.010923386,0,
00:00.8,-0.001544952,0.000778198,0.010917664,0,
00:00.8,-0.00153923,0.00078392,0.010917664,0,
00:00.8,-0.001544952,0.00078392,0.010906219,0,
00:00.8,-0.001544952,0.00078392,0.010911942,0,
00:00.8,-0.00153923,0.00078392,0.010900497,0,
00:00.8,-0.001550674,0.00078392,0.010917664,0,
00:00.8,-0.001544952,0.000778198,0.010917664,0,
00:00.8,-0.001533508,0.000778198,0.010940552,0,
00:00.8,-0.001544952,0.000778198,0.010929108,0,
00:00.8,-0.00153923,0.00078392,0.010929108,0,
00:00.8,-0.001533508,0.00078392,0.010923386,0,
00:00.8,-0.001533508,0.00078392,0.010911942,0,
00:00.8,-0.001544952,0.00078392,0.01093483,0,
00:00.8,-0.001544952,0.00078392,0.010929108,0,
00:00.8,-0.00153923,0.000772476,0.010911942,0,
00:00.8,-0.00153923,0.000778198,0.010940552,0,
00:00.8,-0.001544952,0.000778198,0.01093483,0,
00:00.8,-0.001550674,0.000778198,0.010929108,0,
00:00.8,-0.001544952,0.000778198,0.010929108,0,
00:00.8,-0.001544952,0.000778198,0.010911942,0,
00:00.9,-0.00153923,0.00078392,0.010917664,0,
00:00.9,-0.00153923,0.00078392,0.010929108,0,
00:00.9,-0.001550674,0.00078392,0.01093483,0,
00:00.9,-0.001562119,0.00078392,0.010906219,0,
00:00.9,-0.00153923,0.000778198,0.010906219,0,
00:00.9,-0.00153923,0.000778198,0.010940552,0,
00:00.9,-0.00153923,0.00078392,0.010923386,0,
00:00.9,-0.001533508,0.00078392,0.01093483,0,
00:00.9,-0.00153923,0.00078392,0.010929108,0,
00:00.9,-0.001550674,0.000772476,0.01093483,0,
00:00.9,-0.001544952,0.000778198,0.01093483,0,
00:00.9,-0.001544952,0.000778198,0.01093483,0,
00:00.9,-0.00153923,0.00078392,0.010929108,0,
00:00.9,-0.001556396,0.000778198,0.010929108,0,
00:00.9,-0.001550674,0.000778198,0.010929108,0,
00:00.9,-0.00153923,0.00078392,0.010917664,0,
00:00.9,-0.001544952,0.000778198,0.010906219,0,
00:00.9,-0.00153923,0.00078392,0.010889053,0,
00:00.9,-0.00153923,0.00078392,0.010923386,0,
00:00.9,-0.001544952,0.000778198,0.010929108,0,
00:00.9,-0.001533508,0.00078392,0.010911942,0,
00:00.9,-0.00153923,0.00078392,0.010906219,0,
00:00.9,-0.001544952,0.000778198,0.01093483,0,
00:00.9,-0.00153923,0.00078392,0.010929108,0,
00:00.9,-0.001544952,0.00078392,0.010911942,0,
00:01.0,-0.001544952,0.00078392,0.010900497,0,
00:01.0,-0.001550674,0.000778198,0.010911942,0,
00:01.0,-0.001550674,0.000778198,0.010917664,0,
00:01.0,-0.00153923,0.000778198,0.010917664,0,
00:01.0,-0.001533508,0.00078392,0.010929108,0,
00:01.0,-0.001556396,0.000778198,0.010923386,0,
00:01.0,-0.001556396,0.000766754,0.010923386,0,
00:01.0,-0.00153923,0.000778198,0.010923386,0,
00:01.0,-0.00153923,0.00078392,0.010877609,0,
00:01.0,-0.001544952,0.000778198,0.010923386,0,
00:01.0,-0.001544952,0.000778198,0.010940552,0,
00:01.0,-0.001544952,0.000778198,0.01093483,0,
00:00:01,-0.001544952,0.00078392,0.010917664,0,
00:01.0,-0.001544952,0.000778198,0.010923386,0,
00:01.0,-0.00153923,0.000789642,0.010917664,0,
00:01.0,-0.001544952,0.000778198,0.010923386,0,
00:01.0,-0.001550674,0.00078392,0.010911942,0,
00:01.0,-0.001556396,0.000778198,0.010923386,0,
00:01.0,-0.00153923,0.00078392,0.010929108,0,
00:01.0,-0.001544952,0.000778198,0.010929108,0,
00:01.0,-0.001533508,0.000778198,0.010917664,0,
00:01.0,-0.001550674,0.00078392,0.010929108,0,
00:01.0,-0.001556396,0.00078392,0.010929108,0,
00:01.0,-0.001544952,0.000778198,0.01093483,0,
00:01.0,-0.001544952,0.000778198,0.010923386,0,
00:01.1,-0.001544952,0.000778198,0.010911942,0,
00:01.1,-0.001550674,0.000778198,0.010923386,0,
00:01.1,-0.001550674,0.00078392,0.010923386,0,
00:01.1,-0.001544952,0.000778198,0.010929108,0,
00:01.1,-0.001544952,0.000778198,0.010929108,0,
00:01.1,-0.001544952,0.000778198,0.010929108,0,
00:01.1,-0.001544952,0.000778198,0.010940552,0,
00:01.1,-0.001550674,0.000778198,0.01093483,0,
00:01.1,-0.001550674,0.000778198,0.010940552,0,
00:01.1,-0.001544952,0.000778198,0.010929108,0,
00:01.1,-0.001544952,0.00078392,0.010929108,0,
00:01.1,-0.001544952,0.000778198,0.010917664,0,
00:01.1,-0.001550674,0.000778198,0.010917664,0,
00:01.1,-0.001579285,0.000772476,0.010957718,0,
00:01.1,-0.001544952,0.00078392,0.010929108,0,
00:01.1,-0.001544952,0.000778198,0.010911942,0,
00:01.1,-0.001544952,0.00078392,0.010940552,0,
00:01.1,-0.001544952,0.000778198,0.010946274,0,
00:01.1,-0.001544952,0.000778198,0.010940552,0,
00:01.1,-0.001544952,0.00078392,0.010929108,0,
00:01.1,-0.001556396,0.000778198,0.010929108,0,
00:01.1,-0.001550674,0.00078392,0.010929108,0,
00:01.1,-0.001550674,0.000778198,0.010940552,0,
00:01.1,-0.001556396,0.000772476,0.01093483,0,
00:01.1,-0.001556396,0.000772476,0.01093483,0,
00:01.2,-0.001550674,0.000772476,0.01093483,0,
00:01.2,-0.001556396,0.000772476,0.010946274,0,
00:01.2,-0.001556396,0.000778198,0.010940552,0,
00:01.2,-0.001550674,0.00078392,0.010940552,0,
00:01.2,-0.001550674,0.00078392,0.010917664,0,
00:01.2,-0.001573563,0.000772476,0.010946274,0,
00:01.2,-0.001556396,0.000772476,0.010951996,0,
00:01.2,-0.001550674,0.000772476,0.010929108,0,
00:01.2,-0.001544952,0.000778198,0.010951996,0,
00:01.2,-0.001556396,0.000778198,0.010957718,0,
00:01.2,-0.001556396,0.000772476,0.01093483,0,
00:01.2,-0.001562119,0.000772476,0.010951996,0,
00:01.2,-0.001550674,0.000778198,0.010951996,0,
00:01.2,-0.001556396,0.000778198,0.010929108,0,
00:01.2,-0.001556396,0.000772476,0.010940552,0,
00:01.2,-0.001556396,0.000772476,0.010946274,0,
00:01.2,-0.001562119,0.000766754,0.010957718,0,
00:01.2,-0.001562119,0.000766754,0.010946274,0,
00:01.2,-0.001567841,0.000772476,0.010946274,0,
00:01.2,-0.001556396,0.00078392,0.010929108,0,
00:01.2,-0.001556396,0.000772476,0.010940552,0,
00:01.2,-0.001562119,0.000766754,0.010957718,0,
00:01.2,-0.001550674,0.000772476,0.010951996,0,
00:01.2,-0.001562119,0.000772476,0.010957718,0,
00:01.2,-0.001562119,0.000766754,0.01093483,0,
00:01.3,-0.001550674,0.000766754,0.010946274,0,
00:01.3,-0.001562119,0.000761032,0.01096344,0,
00:01.3,-0.001556396,0.000772476,0.01096344,0,
00:01.3,-0.001556396,0.000772476,0.01096344,0,
00:01.3,-0.001567841,0.000772476,0.01096344,0,
00:01.3,-0.001556396,0.000766754,0.010951996,0,
00:01.3,-0.001556396,0.000766754,0.010940552,0,
00:01.3,-0.001556396,0.000766754,0.010957718,0,
00:01.3,-0.001556396,0.000766754,0.01096344,0,
00:01.3,-0.001556396,0.000766754,0.010957718,0,
00:01.3,-0.001550674,0.000766754,0.010951996,0,
00:01.3,-0.001550674,0.000766754,0.010957718,0,
00:01.3,-0.001562119,0.000766754,0.010951996,0,
00:01.3,-0.001573563,0.000766754,0.010951996,0,
00:01.3,-0.001562119,0.000761032,0.01096344,0,
00:01.3,-0.001550674,0.000766754,0.010957718,0,
00:01.3,-0.001550674,0.000766754,0.01096344,0,
00:01.3,-0.001556396,0.000766754,0.010957718,0,
00:01.3,-0.001562119,0.000761032,0.010957718,0,
00:01.3,-0.001550674,0.000761032,0.010951996,0,
00:01.3,-0.001550674,0.000766754,0.010951996,0,
00:01.3,-0.001556396,0.000766754,0.010951996,0,
00:01.3,-0.001550674,0.000766754,0.010957718,0,
00:01.3,-0.001556396,0.000766754,0.01096344,0,
00:01.3,-0.001573563,0.000761032,0.01096344,0,
00:01.4,-0.001567841,0.00075531,0.01096344,0,
00:01.4,-0.001556396,0.000761032,0.01096344,0,
00:01.4,-0.001550674,0.000766754,0.010957718,0,
00:01.4,-0.001550674,0.000766754,0.010951996,0,
00:01.4,-0.001562119,0.000766754,0.010951996,0,
00:01.4,-0.001550674,0.000766754,0.010957718,0,
00:01.4,-0.001562119,0.000766754,0.010940552,0,
00:01.4,-0.001562119,0.00075531,0.010940552,0,
00:01.4,-0.001550674,0.00075531,0.01096344,0,
00:01.4,-0.001550674,0.000766754,0.010969162,0,
00:01.4,-0.001556396,0.000761032,0.010969162,0,
00:01.4,-0.001556396,0.000761032,0.01096344,0,
00:01.4,-0.001556396,0.00075531,0.010951996,0,
00:01.4,-0.001550674,0.000766754,0.010951996,0,
00:01.4,-0.001556396,0.000761032,0.01093483,0,
00:01.4,-0.001567841,0.000761032,0.01096344,0,
00:01.4,-0.001556396,0.000761032,0.01096344,0,
00:01.4,-0.001562119,0.000761032,0.010951996,0,
00:01.4,-0.001550674,0.000766754,0.010946274,0,
00:01.4,-0.001556396,0.00075531,0.010957718,0,
00:01.4,-0.001550674,0.000766754,0.010957718,0,
00:01.4,-0.001556396,0.000761032,0.010946274,0,
00:01.4,-0.001556396,0.000761032,0.010951996,0,
00:01.4,-0.001556396,0.000766754,0.010946274,0,
00:01.4,-0.001550674,0.000766754,0.010951996,0,
00:01.5,-0.001556396,0.000761032,0.010951996,0,
00:01.5,-0.001562119,0.000761032,0.010957718,0,
00:01.5,-0.001556396,0.000761032,0.010940552,0,
00:01.5,-0.001550674,0.00075531,0.010980606,0,
00:01.5,-0.001556396,0.00075531,0.010969162,0,
00:01.5,-0.001562119,0.000761032,0.010951996,0,
00:01.5,-0.001550674,0.000761032,0.010946274,0,
00:01.5,-0.001562119,0.00075531,0.010969162,0,
00:01.5,-0.001567841,0.00075531,0.010969162,0,
00:01.5,-0.001544952,0.000761032,0.010957718,0,
00:01.5,-0.001550674,0.000766754,0.010946274,0,
00:01.5,-0.001562119,0.000766754,0.010940552,0,
00:01.5,-0.001556396,0.000766754,0.01093483,0,
00:01.5,-0.001550674,0.000766754,0.010980606,0,
00:01.5,-0.001550674,0.000766754,0.01096344,0,
00:01.5,-0.001562119,0.00075531,0.010946274,0,
00:01.5,-0.001556396,0.00075531,0.010957718,0,
00:01.5,-0.001550674,0.000766754,0.010951996,0,
00:01.5,-0.001562119,0.00075531,0.010946274,0,
00:01.5,-0.001562119,0.000761032,0.010969162,0,
00:01.5,-0.001562119,0.000761032,0.010951996,0,
00:01.5,-0.001556396,0.000761032,0.010951996,0,
00:01.5,-0.001562119,0.000766754,0.010957718,0,
00:01.5,-0.001550674,0.000761032,0.01096344,0,
00:01.5,-0.001556396,0.00075531,0.010957718,0,
00:01.6,-0.001550674,0.000761032,0.010951996,0,
00:01.6,-0.001544952,0.000766754,0.010946274,0,
00:01.6,-0.001556396,0.000761032,0.010946274,0,
00:01.6,-0.001556396,0.000766754,0.01096344,0,
00:01.6,-0.001567841,0.000761032,0.010929108,0,
00:01.6,-0.001562119,0.000761032,0.010940552,0,
00:01.6,-0.001556396,0.000761032,0.010969162,0,
00:01.6,-0.001567841,0.00075531,0.01096344,0,
00:01.6,-0.001567841,0.000761032,0.010946274,0,
00:01.6,-0.001556396,0.000766754,0.010946274,0,
00:01.6,-0.001556396,0.000766754,0.01093483,0,
00:01.6,-0.001556396,0.000766754,0.01093483,0,
00:01.6,-0.001550674,0.000766754,0.01096344,0,
00:01.6,-0.001556396,0.000761032,0.010946274,0,
00:01.6,-0.001562119,0.000761032,0.010957718,0,
00:01.6,-0.001556396,0.000766754,0.010957718,0,
00:01.6,-0.001556396,0.000766754,0.010940552,0,
00:01.6,-0.001562119,0.00075531,0.010946274,0,
00:01.6,-0.001550674,0.000766754,0.010969162,0,
00:01.6,-0.001556396,0.000766754,0.010957718,0,
00:01.6,-0.001562119,0.000766754,0.010946274,0,
00:01.6,-0.001562119,0.000761032,0.01093483,0,
00:01.6,-0.001567841,0.000761032,0.010940552,0,
00:01.6,-0.001562119,0.000761032,0.010957718,0,
00:01.6,-0.001556396,0.000766754,0.010957718,0,
00:01.7,-0.001573563,0.000761032,0.010951996,0,
00:01.7,-0.001562119,0.000766754,0.010946274,0,
00:01.7,-0.001550674,0.000761032,0.010923386,0,
00:01.7,-0.001562119,0.000761032,0.010940552,0,
00:01.7,-0.001562119,0.000761032,0.010951996,0,
00:01.7,-0.001562119,0.000761032,0.010946274,0,
00:01.7,-0.001567841,0.000761032,0.01096344,0,
00:01.7,-0.001567841,0.000766754,0.010946274,0,
00:01.7,-0.001556396,0.000766754,0.010940552,0,
00:01.7,-0.001556396,0.00075531,0.010946274,0,
00:01.7,-0.001562119,0.000761032,0.010940552,0,
00:01.7,-0.001562119,0.00075531,0.010951996,0,
00:01.7,-0.001562119,0.000761032,0.010929108,0,
00:01.7,-0.001556396,0.000766754,0.010957718,0,
00:01.7,-0.001562119,0.000761032,0.010969162,0,
00:01.7,-0.001567841,0.00075531,0.010946274,0,
00:01.7,-0.001550674,0.000766754,0.010946274,0,
00:01.7,-0.001562119,0.00075531,0.010951996,0,
00:01.7,-0.001562119,0.000761032,0.010951996,0,
00:01.7,-0.001556396,0.000761032,0.010940552,0,
00:01.7,-0.001556396,0.000761032,0.01093483,0,
00:01.7,-0.001562119,0.000761032,0.010940552,0,
00:01.7,-0.001562119,0.00075531,0.010946274,0,
00:01.7,-0.001562119,0.000761032,0.010946274,0,
00:01.7,-0.001567841,0.000761032,0.01093483,0,
00:01.8,-0.001556396,0.000766754,0.010929108,0,
00:01.8,-0.001556396,0.000761032,0.010917664,0,
00:01.8,-0.001567841,0.00075531,0.010951996,0,
00:01.8,-0.001573563,0.00075531,0.010946274,0,
00:01.8,-0.001556396,0.00075531,0.010946274,0,
00:01.8,-0.001562119,0.00075531,0.010951996,0,
00:01.8,-0.001567841,0.00075531,0.010946274,0,
00:01.8,-0.001562119,0.000749588,0.010946274,0,
00:01.8,-0.001562119,0.00075531,0.010951996,0,
00:01.8,-0.001562119,0.000761032,0.010929108,0,
00:01.8,-0.001562119,0.000761032,0.010940552,0,
00:01.8,-0.001562119,0.00075531,0.01093483,0,
00:01.8,-0.001562119,0.000761032,0.01093483,0,
00:01.8,-0.001562119,0.00075531,0.010951996,0,
00:01.8,-0.001567841,0.000761032,0.010940552,0,
00:01.8,-0.001562119,0.000761032,0.01093483,0,
00:01.8,-0.001567841,0.00075531,0.01093483,0,
00:01.8,-0.001567841,0.00075531,0.010929108,0,
00:01.8,-0.001567841,0.00075531,0.010946274,0,
00:01.8,-0.001567841,0.00075531,0.010940552,0,
00:01.8,-0.001573563,0.000761032,0.010917664,0,
00:01.8,-0.001567841,0.000749588,0.010929108,0,
00:01.8,-0.001562119,0.00075531,0.010940552,0,
00:01.8,-0.001556396,0.00075531,0.010929108,0,
00:01.8,-0.001562119,0.000749588,0.010946274,0,
00:01.9,-0.001573563,0.00075531,0.010940552,0,
00:01.9,-0.001567841,0.000749588,0.010951996,0,
00:01.9,-0.001562119,0.00075531,0.010940552,0,
00:01.9,-0.001567841,0.00075531,0.010946274,0,
00:01.9,-0.001567841,0.00075531,0.01093483,0,
00:01.9,-0.001550674,0.000761032,0.01093483,0,
00:01.9,-0.001562119,0.000761032,0.010917664,0,
00:01.9,-0.001573563,0.00075531,0.010917664,0,
00:01.9,-0.001573563,0.000749588,0.010951996,0,
00:01.9,-0.001567841,0.00075531,0.01096344,0,
00:01.9,-0.001567841,0.00075531,0.010957718,0,
00:01.9,-0.001562119,0.00075531,0.010957718,0,
00:01.9,-0.001567841,0.00075531,0.010940552,0,
00:01.9,-0.001573563,0.00075531,0.01093483,0,
00:01.9,-0.001567841,0.000761032,0.010946274,0,
00:01.9,-0.001567841,0.00075531,0.010940552,0,
00:01.9,-0.001567841,0.000749588,0.010929108,0,
00:01.9,-0.001567841,0.00075531,0.01093483,0,
00:01.9,-0.001567841,0.000761032,0.010940552,0,
00:01.9,-0.001573563,0.00075531,0.010929108,0,
00:01.9,-0.001567841,0.00075531,0.010923386,0,
00:01.9,-0.001562119,0.00075531,0.010946274,0,
00:01.9,-0.001567841,0.00075531,0.010957718,0,
00:01.9,-0.001573563,0.00075531,0.010929108,0,
00:01.9,-0.001567841,0.00075531,0.010940552,0,
00:02.0,-0.001573563,0.00075531,0.010946274,0,
00:02.0,-0.001573563,0.000749588,0.010929108,0,
00:02.0,-0.001579285,0.000749588,0.010917664,0,
00:02.0,-0.001579285,0.00075531,0.010940552,0,
00:02.0,-0.001550674,0.00075531,0.010946274,0,
00:02.0,-0.001562119,0.00075531,0.010929108,0,
00:02.0,-0.001579285,0.000749588,0.010940552,0,
00:02.0,-0.001567841,0.000749588,0.010957718,0,
00:02.0,-0.001567841,0.000743866,0.010946274,0,
00:02.0,-0.001567841,0.000749588,0.010940552,0,
00:02.0,-0.001567841,0.00075531,0.010940552,0,
00:02.0,-0.001567841,0.00075531,0.010929108,0,
00:00:02,-0.001579285,0.000749588,0.010929108,0,
00:02.0,-0.001562119,0.00075531,0.01093483,0,
00:02.0,-0.001573563,0.00075531,0.010929108,0,
00:02.0,-0.001573563,0.000749588,0.01093483,0,
00:02.0,-0.001562119,0.000761032,0.010911942,0,
00:02.0,-0.001573563,0.00075531,0.010951996,0,
00:02.0,-0.001567841,0.00075531,0.010940552,0,
00:02.0,-0.001567841,0.000749588,0.01093483,0,
00:02.0,-0.001573563,0.000749588,0.010946274,0,
00:02.0,-0.001573563,0.000749588,0.010951996,0,
00:02.0,-0.001567841,0.000749588,0.010946274,0,
00:02.0,-0.001556396,0.000761032,0.010940552,0,
00:02.0,-0.001567841,0.000749588,0.010906219,0,
00:02.1,-0.001585007,0.00075531,0.010929108,0,
00:02.1,-0.001573563,0.00075531,0.01093483,0,
00:02.1,-0.001573563,0.00075531,0.010946274,0,
00:02.1,-0.001567841,0.000743866,0.01093483,0,
00:02.1,-0.001567841,0.000749588,0.010951996,0,
00:02.1,-0.001567841,0.000743866,0.010946274,0,
00:02.1,-0.001573563,0.000749588,0.01093483,0,
00:02.1,-0.001573563,0.00075531,0.010923386,0,
00:02.1,-0.001579285,0.00075531,0.01093483,0,
00:02.1,-0.001585007,0.00075531,0.010946274,0,
00:02.1,-0.001573563,0.000749588,0.010929108,0,
00:02.1,-0.001567841,0.000749588,0.010940552,0,
00:02.1,-0.001567841,0.00075531,0.01093483,0,
00:02.1,-0.001579285,0.00075531,0.010923386,0,
00:02.1,-0.001579285,0.000749588,0.01093483,0,
00:02.1,-0.001573563,0.000749588,0.010923386,0,
00:02.1,-0.001567841,0.000749588,0.010929108,0,
00:02.1,-0.001567841,0.000749588,0.010946274,0,
00:02.1,-0.001562119,0.00075531,0.01093483,0,
00:02.1,-0.001573563,0.000749588,0.010911942,0,
00:02.1,-0.001579285,0.000749588,0.010929108,0,
00:02.1,-0.001579285,0.000749588,0.010957718,0,
00:02.1,-0.001573563,0.00075531,0.01093483,0,
00:02.1,-0.001579285,0.00075531,0.010929108,0,
00:02.1,-0.001585007,0.000749588,0.01093483,0,
00:02.2,-0.001573563,0.000749588,0.01093483,0,
00:02.2,-0.001567841,0.000743866,0.010929108,0,
00:02.2,-0.001573563,0.000743866,0.010917664,0,
00:02.2,-0.001573563,0.000749588,0.010929108,0,
00:02.2,-0.001567841,0.00075531,0.010940552,0,
00:02.2,-0.001573563,0.00075531,0.010929108,0,
00:02.2,-0.001573563,0.000749588,0.010929108,0,
00:02.2,-0.001567841,0.000749588,0.010929108,0,
00:02.2,-0.001573563,0.00075531,0.01093483,0,
00:02.2,-0.001579285,0.000749588,0.01093483,0,
00:02.2,-0.001579285,0.000749588,0.01093483,0,
00:02.2,-0.001562119,0.000761032,0.010929108,0,
00:02.2,-0.001573563,0.00075531,0.010917664,0,
00:02.2,-0.001590729,0.00075531,0.01093483,0,
00:02.2,-0.001573563,0.00075531,0.010923386,0,
00:02.2,-0.001567841,0.000749588,0.010911942,0,
00:02.2,-0.001573563,0.00075531,0.010900497,0,
00:02.2,-0.001573563,0.00075531,0.010929108,0,
00:02.2,-0.001579285,0.000749588,0.01093483,0,
00:02.2,-0.001579285,0.000749588,0.010940552,0,
00:02.2,-0.001579285,0.00075531,0.01093483,0,
00:02.2,-0.001579285,0.00075531,0.010940552,0,
00:02.2,-0.001573563,0.00075531,0.010929108,0,
00:02.2,-0.001579285,0.00075531,0.010929108,0,
00:02.2,-0.001573563,0.000749588,0.010929108,0,
00:02.3,-0.001579285,0.000743866,0.010923386,0,
00:02.3,-0.001573563,0.000749588,0.010917664,0,
00:02.3,-0.001567841,0.00075531,0.010923386,0,
00:02.3,-0.001579285,0.000749588,0.01093483,0,
00:02.3,-0.001573563,0.000749588,0.010911942,0,
00:02.3,-0.001579285,0.000749588,0.010911942,0,
00:02.3,-0.001573563,0.00075531,0.01093483,0,
00:02.3,-0.001573563,0.00075531,0.010923386,0,
00:02.3,-0.001585007,0.00075531,0.010917664,0,
00:02.3,-0.001585007,0.000743866,0.010917664,0,
00:02.3,-0.001567841,0.000749588,0.010917664,0,
00:02.3,-0.001579285,0.000749588,0.010911942,0,
00:02.3,-0.001579285,0.00075531,0.010929108,0,
00:02.3,-0.001573563,0.000749588,0.01093483,0,
00:02.3,-0.001579285,0.000749588,0.010923386,0,
00:02.3,-0.001573563,0.000749588,0.010923386,0,
00:02.3,-0.001573563,0.000749588,0.010923386,0,
00:02.3,-0.001585007,0.000749588,0.010923386,0,
00:02.3,-0.001585007,0.000743866,0.010929108,0,
00:02.3,-0.001567841,0.000749588,0.010923386,0,
00:02.3,-0.001579285,0.000749588,0.010917664,0,
00:02.3,-0.001585007,0.000743866,0.010923386,0,
00:02.3,-0.001567841,0.000743866,0.010917664,0,
00:02.3,-0.001567841,0.000743866,0.010917664,0,
00:02.3,-0.001579285,0.000743866,0.010911942,0,
00:02.4,-0.001579285,0.000743866,0.010911942,0,
00:02.4,-0.001573563,0.000743866,0.01093483,0,
00:02.4,-0.001579285,0.000738144,0.010917664,0,
00:02.4,-0.001579285,0.000743866,0.010923386,0,
00:02.4,-0.001579285,0.000749588,0.010917664,0,
00:02.4,-0.001579285,0.000749588,0.010900497,0,
00:02.4,-0.001573563,0.000743866,0.010906219,0,
00:02.4,-0.001585007,0.000743866,0.010911942,0,
00:02.4,-0.001579285,0.000743866,0.010940552,0,
00:02.4,-0.001579285,0.000743866,0.01093483,0,
00:02.4,-0.001579285,0.000743866,0.010929108,0,
00:02.4,-0.001579285,0.000743866,0.010929108,0,
00:02.4,-0.001579285,0.000743866,0.01093483,0,
00:02.4,-0.001579285,0.000743866,0.010929108,0,
00:02.4,-0.001579285,0.000749588,0.010929108,0,
00:02.4,-0.001579285,0.000749588,0.010923386,0,
00:02.4,-0.001585007,0.000743866,0.010917664,0,
00:02.4,-0.001573563,0.000738144,0.010917664,0,
00:02.4,-0.001573563,0.000749588,0.010923386,0,
00:02.4,-0.001585007,0.000743866,0.010906219,0,
00:02.4,-0.001579285,0.000743866,0.010906219,0,
00:02.4,-0.001579285,0.000743866,0.010917664,0,
00:02.4,-0.001585007,0.000738144,0.01093483,0,
00:02.4,-0.001585007,0.000738144,0.01093483,0,
00:02.4,-0.001579285,0.000743866,0.010917664,0,
00:02.5,-0.001585007,0.000743866,0.010917664,0,
00:02.5,-0.001585007,0.000743866,0.010917664,0,
00:02.5,-0.001590729,0.000749588,0.010894775,0,
00:02.5,-0.001596451,0.000749588,0.010871887,0,
00:02.5,-0.001579285,0.000749588,0.01093483,0,
00:02.5,-0.001567841,0.000743866,0.010946274,0,
00:02.5,-0.001579285,0.000743866,0.010923386,0,
00:02.5,-0.001579285,0.000743866,0.010929108,0,
00:02.5,-0.001573563,0.000749588,0.010923386,0,
00:02.5,-0.001579285,0.000743866,0.010911942,0,
00:02.5,-0.001585007,0.000738144,0.010917664,0,
00:02.5,-0.001579285,0.000749588,0.010923386,0,
00:02.5,-0.001590729,0.000743866,0.010923386,0,
00:02.5,-0.001573563,0.000749588,0.010917664,0,
00:02.5,-0.001585007,0.000743866,0.010906219,0,
00:02.5,-0.001585007,0.000743866,0.010900497,0,
00:02.5,-0.001585007,0.000743866,0.010929108,0,
00:02.5,-0.001590729,0.000743866,0.010929108,0,
00:02.5,-0.001585007,0.000738144,0.010911942,0,
00:02.5,-0.001579285,0.000743866,0.010911942,0,
00:02.5,-0.001585007,0.000749588,0.010906219,0,
00:02.5,-0.001579285,0.000743866,0.010923386,0,
00:02.5,-0.001585007,0.000738144,0.010929108,0,
00:02.5,-0.001573563,0.000749588,0.010900497,0,
00:02.5,-0.001579285,0.000743866,0.010911942,0,
00:02.6,-0.001585007,0.000743866,0.010929108,0,
00:02.6,-0.001585007,0.000743866,0.010917664,0,
00:02.6,-0.001579285,0.000749588,0.010917664,0,
00:02.6,-0.001579285,0.000749588,0.010917664,0,
00:02.6,-0.001579285,0.000749588,0.010917664,0,
00:02.6,-0.001579285,0.000749588,0.010917664,0,
00:02.6,-0.001573563,0.000743866,0.010911942,0,
00:02.6,-0.001585007,0.000749588,0.010900497,0,
00:02.6,-0.001585007,0.000743866,0.010900497,0,
00:02.6,-0.001579285,0.000743866,0.010911942,0,
00:02.6,-0.001579285,0.000749588,0.010911942,0,
00:02.6,-0.001585007,0.000743866,0.010929108,0,
00:02.6,-0.001596451,0.000743866,0.010923386,0,
00:02.6,-0.001585007,0.000743866,0.010923386,0,
00:02.6,-0.001579285,0.000743866,0.010917664,0,
00:02.6,-0.001585007,0.000743866,0.010911942,0,
00:02.6,-0.001579285,0.000749588,0.010906219,0,
00:02.6,-0.001579285,0.00075531,0.010889053,0,
00:02.6,-0.001579285,0.00075531,0.010900497,0,
00:02.6,-0.001579285,0.000749588,0.010900497,0,
00:02.6,-0.001585007,0.000743866,0.010900497,0,
00:02.6,-0.001596451,0.000743866,0.010917664,0,
00:02.6,-0.001579285,0.000743866,0.010923386,0,
00:02.6,-0.001585007,0.000743866,0.010917664,0,
00:02.6,-0.001585007,0.000743866,0.010911942,0,
00:02.7,-0.001585007,0.000743866,0.010917664,0,
00:02.7,-0.001585007,0.000749588,0.010917664,0,
00:02.7,-0.001590729,0.000749588,0.010911942,0,
00:02.7,-0.001596451,0.00075531,0.010911942,0,
00:02.7,-0.001590729,0.000743866,0.010894775,0,
00:02.7,-0.001579285,0.000749588,0.010900497,0,
00:02.7,-0.001579285,0.000749588,0.010900497,0,
00:02.7,-0.001579285,0.000749588,0.010906219,0,
00:02.7,-0.001579285,0.000743866,0.010917664,0,
00:02.7,-0.001585007,0.000738144,0.010906219,0,
00:02.7,-0.001590729,0.000738144,0.010911942,0,
00:02.7,-0.001590729,0.000743866,0.010906219,0,
00:02.7,-0.001585007,0.000749588,0.010906219,0,
00:02.7,-0.001585007,0.00075531,0.010906219,0,
00:02.7,-0.001579285,0.00075531,0.010883331,0,
00:02.7,-0.001573563,0.000749588,0.010889053,0,
00:02.7,-0.001590729,0.000743866,0.010906219,0,
00:02.7,-0.001590729,0.000749588,0.010906219,0,
00:02.7,-0.001596451,0.000749588,0.010911942,0,
00:02.7,-0.001590729,0.000749588,0.010917664,0,
00:02.7,-0.001596451,0.000738144,0.010911942,0,
00:02.7,-0.001585007,0.000738144,0.010911942,0,
00:02.7,-0.001573563,0.00075531,0.010911942,0,
00:02.7,-0.001579285,0.00075531,0.010911942,0,
00:02.7,-0.001585007,0.00075531,0.010894775,0,
00:02.8,-0.001590729,0.000749588,0.010900497,0,
00:02.8,-0.001579285,0.000743866,0.010894775,0,
00:02.8,-0.001585007,0.000749588,0.010894775,0,
00:02.8,-0.001590729,0.000743866,0.010900497,0,
00:02.8,-0.001585007,0.000743866,0.010906219,0,
00:02.8,-0.001590729,0.000743866,0.010894775,0,
00:02.8,-0.001590729,0.000749588,0.010911942,0,
00:02.8,-0.001590729,0.000743866,0.010900497,0,
00:02.8,-0.001590729,0.000749588,0.010877609,0,
00:02.8,-0.001573563,0.000749588,0.010911942,0,
00:02.8,-0.001585007,0.000749588,0.010900497,0,
00:02.8,-0.001607895,0.000743866,0.010894775,0,
00:02.8,-0.001585007,0.000743866,0.010911942,0,
00:02.8,-0.001585007,0.000743866,0.010911942,0,
00:02.8,-0.001585007,0.000749588,0.010911942,0,
00:02.8,-0.001579285,0.000749588,0.010911942,0,
00:02.8,-0.001590729,0.000749588,0.010906219,0,
00:02.8,-0.001596451,0.000738144,0.010894775,0,
00:02.8,-0.001590729,0.000743866,0.010906219,0,
00:02.8,-0.001596451,0.000743866,0.010906219,0,
00:02.8,-0.001590729,0.000743866,0.010900497,0,
00:02.8,-0.001590729,0.000743866,0.010906219,0,
00:02.8,-0.001596451,0.000743866,0.010906219,0,
00:02.8,-0.001596451,0.000743866,0.010894775,0,
00:02.8,-0.001596451,0.000749588,0.010871887,0,
00:02.9,-0.001579285,0.000749588,0.010889053,0,
00:02.9,-0.001579285,0.000743866,0.010911942,0,
00:02.9,-0.001596451,0.000738144,0.010906219,0,
00:02.9,-0.001590729,0.000743866,0.010917664,0,
00:02.9,-0.001585007,0.000749588,0.010911942,0,
00:02.9,-0.001585007,0.000743866,0.010906219,0,
00:02.9,-0.001596451,0.000743866,0.010894775,0,
00:02.9,-0.001596451,0.000732422,0.010900497,0,
00:02.9,-0.001590729,0.000738144,0.010911942,0,
00:02.9,-0.001596451,0.000738144,0.010917664,0,
00:02.9,-0.001590729,0.000738144,0.010906219,0,
00:02.9,-0.001590729,0.000749588,0.010900497,0,
00:02.9,-0.001596451,0.000749588,0.010917664,0,
00:02.9,-0.001590729,0.000738144,0.010894775,0,
00:02.9,-0.001585007,0.000743866,0.010900497,0,
00:02.9,-0.001590729,0.000738144,0.010911942,0,
00:02.9,-0.001590729,0.000738144,0.010906219,0,
00:02.9,-0.001585007,0.000743866,0.010911942,0,
00:02.9,-0.001590729,0.000743866,0.010889053,0,
00:02.9,-0.001602173,0.000743866,0.010883331,0,
00:02.9,-0.001607895,0.000738144,0.010911942,0,
00:02.9,-0.001579285,0.000738144,0.010900497,0,
00:02.9,-0.001590729,0.000738144,0.010911942,0,
00:02.9,-0.001585007,0.000732422,0.010906219,0,
00:02.9,-0.001590729,0.000738144,0.010923386,0,
00:03.0,-0.001590729,0.000738144,0.010917664,0,
00:03.0,-0.001596451,0.000738144,0.010911942,0,
00:03.0,-0.001596451,0.000738144,0.010911942,0,
00:03.0,-0.001590729,0.000738144,0.010911942,0,
00:03.0,-0.001585007,0.000738144,0.010900497,0,
00:03.0,-0.001585007,0.000743866,0.010900497,0,
00:03.0,-0.001585007,0.000738144,0.010900497,0,
00:03.0,-0.001596451,0.000738144,0.010900497,0,
00:03.0,-0.001596451,0.000732422,0.010911942,0,
00:03.0,-0.001596451,0.000732422,0.010900497,0,
00:03.0,-0.001590729,0.000738144,0.010906219,0,
00:03.0,-0.001590729,0.000743866,0.010906219,0,
00:00:03,-0.001596451,0.000738144,0.010906219,0,
00:03.0,-0.001590729,0.000738144,0.010894775,0,
00:03.0,-0.001596451,0.000743866,0.010894775,0,
00:03.0,-0.001602173,0.000738144,0.010894775,0,
00:03.0,-0.001602173,0.000732422,0.010883331,0,
00:03.0,-0.001602173,0.000732422,0.010911942,0,
00:03.0,-0.001590729,0.000738144,0.010917664,0,
00:03.0,-0.001585007,0.000738144,0.010900497,0,
00:03.0,-0.001585007,0.000738144,0.010900497,0,
00:03.0,-0.001590729,0.000732422,0.010906219,0,
00:03.0,-0.001590729,0.000738144,0.010906219,0,
00:03.0,-0.001585007,0.000738144,0.010900497,0,
00:03.0,-0.001590729,0.000738144,0.010894775,0,
00:03.1,-0.001590729,0.000732422,0.010889053,0,
00:03.1,-0.001590729,0.000743866,0.010894775,0,
00:03.1,-0.001590729,0.000743866,0.010906219,0,
00:03.1,-0.001596451,0.000732422,0.010883331,0,
00:03.1,-0.001602173,0.000732422,0.010894775,0,
00:03.1,-0.001590729,0.000738144,0.010906219,0,
00:03.1,-0.001596451,0.000732422,0.010917664,0,
00:03.1,-0.001590729,0.000738144,0.010906219,0,
00:03.1,-0.001596451,0.000738144,0.010889053,0,
00:03.1,-0.001590729,0.000732422,0.010900497,0,
00:03.1,-0.001596451,0.000732422,0.010883331,0,
00:03.1,-0.001596451,0.000738144,0.010906219,0,
00:03.1,-0.001590729,0.000738144,0.010911942,0,
00:03.1,-0.001590729,0.000732422,0.010906219,0,
00:03.1,-0.001590729,0.000732422,0.010906219,0,
00:03.1,-0.001602173,0.000732422,0.010911942,0,
00:03.1,-0.001596451,0.000738144,0.010906219,0,
00:03.1,-0.001585007,0.000738144,0.010889053,0,
00:03.1,-0.001596451,0.000732422,0.010883331,0,
00:03.1,-0.001590729,0.000732422,0.010889053,0,
00:03.1,-0.001590729,0.000732422,0.010883331,0,
00:03.1,-0.001596451,0.000732422,0.010911942,0,
00:03.1,-0.001607895,0.000732422,0.010911942,0,
00:03.1,-0.001602173,0.000732422,0.010894775,0,
00:03.1,-0.001579285,0.000738144,0.010906219,0,
00:03.2,-0.001590729,0.000732422,0.010911942,0,
00:03.2,-0.001590729,0.000732422,0.010900497,0,
00:03.2,-0.001596451,0.000732422,0.010900497,0,
00:03.2,-0.001602173,0.0007267,0.010900497,0,
00:03.2,-0.001596451,0.000732422,0.010894775,0,
00:03.2,-0.001602173,0.000732422,0.010883331,0,
00:03.2,-0.001590729,0.000732422,0.010889053,0,
00:03.2,-0.001596451,0.0007267,0.010894775,0,
00:03.2,-0.001590729,0.000738144,0.010906219,0,
00:03.2,-0.001590729,0.000732422,0.010894775,0,
00:03.2,-0.001596451,0.000732422,0.010900497,0,
00:03.2,-0.001607895,0.0007267,0.010877609,0,
00:03.2,-0.001607895,0.0007267,0.010900497,0,
00:03.2,-0.001585007,0.000732422,0.010906219,0,
00:03.2,-0.001585007,0.000738144,0.010889053,0,
00:03.2,-0.001602173,0.0007267,0.010900497,0,
00:03.2,-0.001596451,0.000732422,0.010900497,0,
00:03.2,-0.001596451,0.000732422,0.010889053,0,
00:03.2,-0.001596451,0.000732422,0.010911942,0,
00:03.2,-0.001596451,0.0007267,0.010900497,0,
00:03.2,-0.001602173,0.0007267,0.010889053,0,
00:03.2,-0.001596451,0.0007267,0.010889053,0,
00:03.2,-0.001596451,0.0007267,0.010900497,0,
00:03.2,-0.001590729,0.0007267,0.010900497,0,
00:03.2,-0.001602173,0.0007267,0.010889053,0,
00:03.3,-0.001596451,0.000732422,0.010900497,0,
00:03.3,-0.001602173,0.000732422,0.010883331,0,
00:03.3,-0.001596451,0.0007267,0.010911942,0,
00:03.3,-0.001590729,0.000732422,0.010906219,0,
00:03.3,-0.001602173,0.0007267,0.010894775,0,
00:03.3,-0.001602173,0.0007267,0.010906219,0,
00:03.3,-0.001596451,0.0007267,0.010906219,0,
00:03.3,-0.001596451,0.0007267,0.010894775,0,
00:03.3,-0.001596451,0.0007267,0.010894775,0,
00:03.3,-0.001590729,0.000732422,0.010900497,0,
00:03.3,-0.001596451,0.0007267,0.010894775,0,
00:03.3,-0.001602173,0.0007267,0.010900497,0,
00:03.3,-0.001607895,0.0007267,0.010894775,0,
00:03.3,-0.001602173,0.0007267,0.010906219,0,
00:03.3,-0.001602173,0.000720978,0.010906219,0,
00:03.3,-0.001596451,0.0007267,0.010906219,0,
00:03.3,-0.001596451,0.0007267,0.010906219,0,
00:03.3,-0.001607895,0.000720978,0.010894775,0,
00:03.3,-0.001607895,0.000720978,0.010871887,0,
00:03.3,-0.001602173,0.000720978,0.010911942,0,
00:03.3,-0.001596451,0.000720978,0.010917664,0,
00:03.3,-0.001602173,0.000720978,0.010906219,0,
00:03.3,-0.001590729,0.0007267,0.010906219,0,
00:03.3,-0.001596451,0.000732422,0.010894775,0,
00:03.3,-0.001596451,0.0007267,0.010900497,0,
00:03.4,-0.001590729,0.0007267,0.010906219,0,
00:03.4,-0.001596451,0.0007267,0.010894775,0,
00:03.4,-0.001596451,0.000732422,0.010894775,0,
00:03.4,-0.001602173,0.000720978,0.010906219,0,
00:03.4,-0.001602173,0.000720978,0.010894775,0,
00:03.4,-0.001602173,0.000720978,0.010871887,0,
00:03.4,-0.001602173,0.000720978,0.010911942,0,
00:03.4,-0.001590729,0.000720978,0.010900497,0,
00:03.4,-0.001590729,0.0007267,0.010889053,0,
00:03.4,-0.001602173,0.000720978,0.010889053,0,
00:03.4,-0.001602173,0.000720978,0.010906219,0,
00:03.4,-0.001602173,0.000715256,0.010911942,0,
00:03.4,-0.001607895,0.000720978,0.010900497,0,
00:03.4,-0.001602173,0.000720978,0.010917664,0,
00:03.4,-0.001602173,0.000715256,0.010900497,0,
00:03.4,-0.001602173,0.000720978,0.010911942,0,
00:03.4,-0.001596451,0.0007267,0.010906219,0,
00:03.4,-0.001602173,0.000715256,0.010900497,0,
00:03.4,-0.001607895,0.000709534,0.010894775,0,
00:03.4,-0.001602173,0.000715256,0.010889053,0,
00:03.4,-0.001613617,0.000720978,0.010911942,0,
00:03.4,-0.001596451,0.000715256,0.010900497,0,
00:03.4,-0.001596451,0.000715256,0.010906219,0,
00:03.4,-0.001602173,0.000715256,0.010894775,0,
00:03.4,-0.001602173,0.000715256,0.010900497,0,
00:03.5,-0.001596451,0.000715256,0.010900497,0,
00:03.5,-0.001602173,0.000715256,0.010883331,0,
00:03.5,-0.001602173,0.000715256,0.010871887,0,
00:03.5,-0.001602173,0.000715256,0.010911942,0,
00:03.5,-0.001596451,0.000720978,0.010917664,0,
00:03.5,-0.001596451,0.000715256,0.010906219,0,
00:03.5,-0.001596451,0.000715256,0.010900497,0,
00:03.5,-0.001602173,0.000715256,0.010883331,0,
00:03.5,-0.001596451,0.000715256,0.010906219,0,
00:03.5,-0.001602173,0.000715256,0.010900497,0,
00:03.5,-0.001602173,0.000720978,0.010900497,0,
00:03.5,-0.001596451,0.000720978,0.010900497,0,
00:03.5,-0.001602173,0.000720978,0.010906219,0,
00:03.5,-0.001596451,0.000715256,0.010911942,0,
00:03.5,-0.001602173,0.000709534,0.010906219,0,
00:03.5,-0.001602173,0.000709534,0.010906219,0,
00:03.5,-0.001596451,0.000715256,0.010900497,0,
00:03.5,-0.001596451,0.000720978,0.010883331,0,
00:03.5,-0.001602173,0.000715256,0.010871887,0,
00:03.5,-0.001607895,0.000715256,0.010906219,0,
00:03.5,-0.001596451,0.000709534,0.010906219,0,
00:03.5,-0.001596451,0.000709534,0.010900497,0,
00:03.5,-0.001602173,0.000715256,0.010900497,0,
00:03.5,-0.001602173,0.000715256,0.010900497,0,
00:03.5,-0.001602173,0.000709534,0.010911942,0,
00:03.6,-0.001596451,0.000709534,0.010911942,0,
00:03.6,-0.001602173,0.000709534,0.010894775,0,
00:03.6,-0.001590729,0.000715256,0.010883331,0,
00:03.6,-0.001602173,0.000715256,0.010883331,0,
00:03.6,-0.001607895,0.000715256,0.010906219,0,
00:03.6,-0.001596451,0.000709534,0.010911942,0,
00:03.6,-0.001602173,0.000709534,0.010906219,0,
00:03.6,-0.001602173,0.000709534,0.010906219,0,
00:03.6,-0.001596451,0.000715256,0.010906219,0,
00:03.6,-0.001596451,0.000709534,0.010900497,0,
00:03.6,-0.001596451,0.000709534,0.010894775,0,
00:03.6,-0.001596451,0.000715256,0.010877609,0,
00:03.6,-0.001607895,0.000709534,0.010866165,0,
00:03.6,-0.001596451,0.000715256,0.010911942,0,
00:03.6,-0.001602173,0.000709534,0.010906219,0,
00:03.6,-0.001607895,0.000709534,0.010900497,0,
00:03.6,-0.001596451,0.000709534,0.010900497,0,
00:03.6,-0.001602173,0.000709534,0.010883331,0,
00:03.6,-0.001602173,0.000709534,0.010911942,0,
00:03.6,-0.001596451,0.000709534,0.010900497,0,
00:03.6,-0.001596451,0.000709534,0.010900497,0,
00:03.6,-0.001607895,0.000709534,0.010889053,0,
00:03.6,-0.001596451,0.000709534,0.010883331,0,
00:03.6,-0.001596451,0.000709534,0.010889053,0,
00:03.6,-0.001596451,0.000709534,0.010889053,0,
00:03.7,-0.001602173,0.000709534,0.010900497,0,
00:03.7,-0.001602173,0.000709534,0.010894775,0,
00:03.7,-0.001607895,0.000709534,0.010877609,0,
00:03.7,-0.001602173,0.000703812,0.010906219,0,
00:03.7,-0.001602173,0.00069809,0.010900497,0,
00:03.7,-0.001602173,0.000709534,0.010900497,0,
00:03.7,-0.001602173,0.000703812,0.010889053,0,
00:03.7,-0.001602173,0.000703812,0.010889053,0,
00:03.7,-0.001602173,0.000709534,0.010900497,0,
00:03.7,-0.001602173,0.000709534,0.010889053,0,
00:03.7,-0.001602173,0.000703812,0.010894775,0,
00:03.7,-0.001602173,0.000703812,0.010883331,0,
00:03.7,-0.001602173,0.000703812,0.010883331,0,
00:03.7,-0.001602173,0.000709534,0.010894775,0,
00:03.7,-0.001607895,0.00069809,0.010889053,0,
00:03.7,-0.001602173,0.000703812,0.010883331,0,
00:03.7,-0.001607895,0.00069809,0.010894775,0,
00:03.7,-0.001596451,0.000703812,0.010894775,0,
00:03.7,-0.001602173,0.000703812,0.010877609,0,
00:03.7,-0.001602173,0.000703812,0.010877609,0,
00:03.7,-0.001607895,0.00069809,0.010877609,0,
00:03.7,-0.001602173,0.000709534,0.010894775,0,
00:03.7,-0.001613617,0.000703812,0.010900497,0,
00:03.7,-0.001596451,0.000703812,0.010883331,0,
00:03.7,-0.001602173,0.00069809,0.010894775,0,
00:03.8,-0.001602173,0.000703812,0.010871887,0,
00:03.8,-0.001590729,0.000709534,0.010889053,0,
00:03.8,-0.001602173,0.000703812,0.010911942,0,
00:03.8,-0.001607895,0.00069809,0.010900497,0,
00:03.8,-0.001602173,0.000703812,0.010894775,0,
00:03.8,-0.001607895,0.00069809,0.010877609,0,
00:03.8,-0.001602173,0.000703812,0.010900497,0,
00:03.8,-0.001602173,0.000703812,0.010894775,0,
00:03.8,-0.001607895,0.00069809,0.010889053,0,
00:03.8,-0.001607895,0.00069809,0.010877609,0,
00:03.8,-0.001613617,0.000692368,0.010877609,0,
00:03.8,-0.001596451,0.000703812,0.010883331,0,
00:03.8,-0.001602173,0.000703812,0.010889053,0,
00:03.8,-0.001602173,0.000703812,0.010894775,0,
00:03.8,-0.001596451,0.00069809,0.010889053,0,
00:03.8,-0.001602173,0.00069809,0.010889053,0,
00:03.8,-0.001607895,0.00069809,0.010900497,0,
00:03.8,-0.001602173,0.00069809,0.010877609,0,
00:03.8,-0.001602173,0.00069809,0.010883331,0,
00:03.8,-0.001596451,0.000703812,0.010900497,0,
00:03.8,-0.001602173,0.000703812,0.010889053,0,
00:03.8,-0.001619339,0.00069809,0.010883331,0,
00:03.8,-0.001596451,0.000703812,0.010900497,0,
00:03.8,-0.001590729,0.000709534,0.010894775,0,
00:03.8,-0.001602173,0.00069809,0.010889053,0,
00:03.9,-0.001596451,0.000703812,0.010889053,0,
00:03.9,-0.001596451,0.000703812,0.010877609,0,
00:03.9,-0.001607895,0.000692368,0.010866165,0,
00:03.9,-0.001602173,0.00069809,0.010900497,0,
00:03.9,-0.001590729,0.000703812,0.010900497,0,
00:03.9,-0.001602173,0.00069809,0.010889053,0,
00:03.9,-0.001602173,0.00069809,0.010889053,0,
00:03.9,-0.001596451,0.00069809,0.010871887,0,
00:03.9,-0.001596451,0.00069809,0.010894775,0,
00:03.9,-0.001602173,0.00069809,0.010894775,0,
00:03.9,-0.001602173,0.00069809,0.010889053,0,
00:03.9,-0.001602173,0.00069809,0.010883331,0,
00:03.9,-0.001602173,0.00069809,0.010889053,0,
00:03.9,-0.001602173,0.00069809,0.010871887,0,
00:03.9,-0.001602173,0.00069809,0.010894775,0,
00:03.9,-0.001602173,0.00069809,0.010900497,0,
00:03.9,-0.001596451,0.000703812,0.010894775,0,
00:03.9,-0.001590729,0.000709534,0.010889053,0,
00:03.9,-0.001596451,0.000703812,0.010877609,0,
00:03.9,-0.001613617,0.00069809,0.010877609,0,
00:03.9,-0.001590729,0.00069809,0.010889053,0,
00:03.9,-0.001596451,0.00069809,0.010877609,0,
00:03.9,-0.001596451,0.000703812,0.010883331,0,
00:03.9,-0.001596451,0.00069809,0.010894775,0,
00:03.9,-0.001602173,0.00069809,0.010894775,0,
00:04.0,-0.001596451,0.000703812,0.010889053,0,
00:04.0,-0.001596451,0.000703812,0.010883331,0,
00:04.0,-0.001602173,0.000692368,0.010877609,0,
00:04.0,-0.001602173,0.00069809,0.010889053,0,
00:04.0,-0.001602173,0.00069809,0.010900497,0,
00:04.0,-0.001596451,0.000703812,0.010894775,0,
00:04.0,-0.001596451,0.00069809,0.010883331,0,
00:04.0,-0.001602173,0.00069809,0.010883331,0,
00:04.0,-0.001596451,0.000703812,0.010883331,0,
00:04.0,-0.001602173,0.00069809,0.010877609,0,
00:04.0,-0.001602173,0.00069809,0.010877609,0,
00:04.0,-0.001602173,0.000703812,0.010866165,0,
00:00:04,-0.001602173,0.00069809,0.010894775,0,
00:04.0,-0.001602173,0.000692368,0.010900497,0,
00:04.0,-0.001596451,0.000703812,0.010883331,0,
00:04.0,-0.001602173,0.00069809,0.010871887,0,
00:04.0,-0.001607895,0.000692368,0.010883331,0,
00:04.0,-0.001602173,0.00069809,0.010889053,0,
00:04.0,-0.001590729,0.000703812,0.010871887,0,
00:04.0,-0.001602173,0.00069809,0.010871887,0,
00:04.0,-0.001613617,0.00069809,0.010871887,0,
00:04.0,-0.001607895,0.00069809,0.010883331,0,
00:04.0,-0.001602173,0.000703812,0.010883331,0,
00:04.0,-0.001596451,0.00069809,0.010866165,0,
00:04.0,-0.001607895,0.000703812,0.010860443,0,
00:04.1,-0.001607895,0.000703812,0.010889053,0,
00:04.1,-0.001590729,0.000703812,0.010883331,0,
00:04.1,-0.001585007,0.000709534,0.010889053,0,
00:04.1,-0.001602173,0.00069809,0.010889053,0,
00:04.1,-0.001596451,0.000703812,0.010877609,0,
00:04.1,-0.001602173,0.00069809,0.010871887,0,
00:04.1,-0.001607895,0.00069809,0.010871887,0,
00:04.1,-0.001602173,0.00069809,0.010883331,0,
00:04.1,-0.001596451,0.00069809,0.010871887,0,
00:04.1,-0.001602173,0.00069809,0.010877609,0,
00:04.1,-0.001602173,0.00069809,0.010883331,0,
00:04.1,-0.001607895,0.00069809,0.010883331,0,
00:04.1,-0.001602173,0.00069809,0.010871887,0,
00:04.1,-0.001607895,0.000692368,0.010871887,0,
00:04.1,-0.001596451,0.000703812,0.010883331,0,
00:04.1,-0.001596451,0.000703812,0.010877609,0,
00:04.1,-0.001602173,0.00069809,0.010877609,0,
00:04.1,-0.001607895,0.000703812,0.010871887,0,
00:04.1,-0.001602173,0.000703812,0.010848999,0,
00:04.1,-0.001602173,0.00069809,0.010866165,0,
00:04.1,-0.001596451,0.000703812,0.010894775,0,
00:04.1,-0.001602173,0.00069809,0.010889053,0,
00:04.1,-0.001613617,0.00069809,0.010883331,0,
00:04.1,-0.001596451,0.000703812,0.010877609,0,
00:04.1,-0.001602173,0.00069809,0.010866165,0,
00:04.2,-0.001602173,0.00069809,0.010877609,0,
00:04.2,-0.001585007,0.00069809,0.010854721,0,
00:04.2,-0.001602173,0.000703812,0.010866165,0,
00:04.2,-0.001602173,0.00069809,0.010871887,0,
00:04.2,-0.001602173,0.00069809,0.010866165,0,
00:04.2,-0.001602173,0.00069809,0.010877609,0,
00:04.2,-0.001596451,0.000703812,0.010871887,0,
00:04.2,-0.001596451,0.000703812,0.010866165,0,
00:04.2,-0.001602173,0.00069809,0.010871887,0,
00:04.2,-0.001607895,0.000692368,0.010866165,0,
00:04.2,-0.001607895,0.000692368,0.010854721,0,
00:04.2,-0.001602173,0.00069809,0.010883331,0,
00:04.2,-0.001596451,0.00069809,0.010877609,0,
00:04.2,-0.001602173,0.000703812,0.010883331,0,
00:04.2,-0.001602173,0.00069809,0.010877609,0,
00:04.2,-0.001596451,0.00069809,0.010871887,0,
00:04.2,-0.001596451,0.00069809,0.010860443,0,
00:04.2,-0.001602173,0.00069809,0.010866165,0,
00:04.2,-0.001602173,0.000692368,0.010866165,0,
00:04.2,-0.001602173,0.00069809,0.010871887,0,
00:04.2,-0.001607895,0.000692368,0.010866165,0,
00:04.2,-0.001596451,0.00069809,0.010860443,0,
00:04.2,-0.001596451,0.00069809,0.010860443,0,
00:04.2,-0.001613617,0.00069809,0.010866165,0,
00:04.2,-0.001596451,0.000692368,0.010854721,0,
00:04.3,-0.001596451,0.00069809,0.010854721,0,
00:04.3,-0.001596451,0.000692368,0.010860443,0,
00:04.3,-0.001596451,0.000692368,0.010860443,0,
00:04.3,-0.001602173,0.000692368,0.010860443,0,
00:04.3,-0.001596451,0.000692368,0.010837555,0,
00:04.3,-0.001596451,0.000703812,0.010854721,0,
00:04.3,-0.001596451,0.000703812,0.010889053,0,
00:04.3,-0.001602173,0.000692368,0.010866165,0,
00:04.3,-0.001607895,0.000686646,0.010860443,0,
00:04.3,-0.001590729,0.00069809,0.010848999,0,
00:04.3,-0.001596451,0.00069809,0.010848999,0,
00:04.3,-0.001602173,0.00069809,0.010866165,0,
00:04.3,-0.001596451,0.000692368,0.010866165,0,
00:04.3,-0.001596451,0.00069809,0.010866165,0,
00:04.3,-0.001607895,0.00069809,0.010860443,0,
00:04.3,-0.001596451,0.00069809,0.010854721,0,
00:04.3,-0.001596451,0.00069809,0.010837555,0,
00:04.3,-0.001596451,0.00069809,0.010866165,0,
00:04.3,-0.001596451,0.000692368,0.010843277,0,
00:04.3,-0.001607895,0.00069809,0.010860443,0,
00:04.3,-0.001607895,0.000692368,0.010860443,0,
00:04.3,-0.001596451,0.00069809,0.010854721,0,
00:04.3,-0.001596451,0.00069809,0.010854721,0,
00:04.3,-0.001596451,0.00069809,0.010860443,0,
00:04.3,-0.001596451,0.00069809,0.010848999,0,
00:04.4,-0.001596451,0.000692368,0.010826111,0,
00:04.4,-0.001596451,0.00069809,0.010854721,0,
00:04.4,-0.001602173,0.000692368,0.010871887,0,
00:04.4,-0.001602173,0.00069809,0.010860443,0,
00:04.4,-0.001596451,0.000692368,0.010854721,0,
00:04.4,-0.001602173,0.000692368,0.010848999,0,
00:04.4,-0.001590729,0.000703812,0.010854721,0,
00:04.4,-0.001596451,0.00069809,0.010854721,0,
00:04.4,-0.001596451,0.00069809,0.010860443,0,
00:04.4,-0.001596451,0.00069809,0.010848999,0,
00:04.4,-0.001607895,0.00069809,0.010843277,0,
00:04.4,-0.001602173,0.000692368,0.010854721,0,
00:04.4,-0.001590729,0.000692368,0.010854721,0,
00:04.4,-0.001590729,0.00069809,0.010860443,0,
00:04.4,-0.001596451,0.00069809,0.010848999,0,
00:04.4,-0.001596451,0.00069809,0.010848999,0,
00:04.4,-0.001590729,0.00069809,0.010860443,0,
00:04.4,-0.001602173,0.00069809,0.010848999,0,
00:04.4,-0.001596451,0.000692368,0.010848999,0,
00:04.4,-0.001590729,0.00069809,0.010843277,0,
00:04.4,-0.001596451,0.00069809,0.010860443,0,
00:04.4,-0.001596451,0.00069809,0.010860443,0,
00:04.4,-0.001596451,0.00069809,0.010848999,0,
00:04.4,-0.001596451,0.00069809,0.010826111,0,
00:04.4,-0.001596451,0.000692368,0.010848999,0,
00:04.5,-0.001596451,0.00069809,0.010854721,0,
00:04.5,-0.001602173,0.000692368,0.010860443,0,
00:04.5,-0.001607895,0.000692368,0.010854721,0,
00:04.5,-0.001602173,0.000692368,0.010848999,0,
00:04.5,-0.001596451,0.000692368,0.010848999,0,
00:04.5,-0.001602173,0.000692368,0.010848999,0,
00:04.5,-0.001596451,0.000692368,0.010860443,0,
00:04.5,-0.001596451,0.000692368,0.010848999,0,
00:04.5,-0.001602173,0.000692368,0.010848999,0,
00:04.5,-0.001602173,0.00069809,0.010843277,0,
00:04.5,-0.001602173,0.00069809,0.010831833,0,
00:04.5,-0.001590729,0.000692368,0.010831833,0,
00:04.5,-0.001590729,0.000692368,0.010837555,0,
00:04.5,-0.001602173,0.000692368,0.010866165,0,
00:04.5,-0.001596451,0.00069809,0.010848999,0,
00:04.5,-0.001602173,0.000692368,0.010843277,0,
00:04.5,-0.001602173,0.000692368,0.010843277,0,
00:04.5,-0.001590729,0.000686646,0.010843277,0,
00:04.5,-0.001596451,0.000692368,0.010848999,0,
00:04.5,-0.001602173,0.000692368,0.010820389,0,
00:04.5,-0.001602173,0.000692368,0.010837555,0,
00:04.5,-0.001596451,0.000686646,0.010848999,0,
00:04.5,-0.001602173,0.000686646,0.010854721,0,
00:04.5,-0.001602173,0.000686646,0.010860443,0,
00:04.5,-0.001602173,0.000692368,0.010837555,0,
00:04.6,-0.001596451,0.000692368,0.010831833,0,
00:04.6,-0.001602173,0.000686646,0.010854721,0,
00:04.6,-0.001602173,0.000686646,0.010854721,0,
00:04.6,-0.001607895,0.000686646,0.010843277,0,
00:04.6,-0.001607895,0.000686646,0.010837555,0,
00:04.6,-0.001596451,0.000692368,0.010837555,0,
00:04.6,-0.001596451,0.000692368,0.010848999,0,
00:04.6,-0.001596451,0.000692368,0.010837555,0,
00:04.6,-0.001590729,0.000692368,0.010820389,0,
00:04.6,-0.001602173,0.000692368,0.010848999,0,
00:04.6,-0.001602173,0.000692368,0.010837555,0,
00:04.6,-0.001613617,0.000686646,0.010831833,0,
00:04.6,-0.001602173,0.000686646,0.010837555,0,
00:04.6,-0.001596451,0.000686646,0.010837555,0,
00:04.6,-0.001602173,0.000686646,0.010843277,0,
00:04.6,-0.001596451,0.000686646,0.010843277,0,
00:04.6,-0.001607895,0.000686646,0.010843277,0,
00:04.6,-0.001602173,0.000686646,0.010848999,0,
00:04.6,-0.001602173,0.000686646,0.010848999,0,
00:04.6,-0.001596451,0.000686646,0.010843277,0,
00:04.6,-0.001607895,0.000692368,0.010837555,0,
00:04.6,-0.001596451,0.000692368,0.010831833,0,
00:04.6,-0.001596451,0.000686646,0.010837555,0,
00:04.6,-0.001602173,0.000692368,0.010837555,0,
00:04.6,-0.001596451,0.000692368,0.010843277,0,
00:04.7,-0.001602173,0.000686646,0.010843277,0,
00:04.7,-0.001590729,0.000692368,0.010837555,0,
00:04.7,-0.001602173,0.000686646,0.010820389,0,
00:04.7,-0.001613617,0.000675201,0.010831833,0,
00:04.7,-0.001602173,0.000686646,0.010831833,0,
00:04.7,-0.001607895,0.000686646,0.010820389,0,
00:04.7,-0.001602173,0.000686646,0.010837555,0,
00:04.7,-0.001602173,0.000692368,0.010848999,0,
00:04.7,-0.001602173,0.000686646,0.010848999,0,
00:04.7,-0.001602173,0.000686646,0.010831833,0,
00:04.7,-0.001602173,0.000686646,0.010820389,0,
00:04.7,-0.001607895,0.000686646,0.010837555,0,
00:04.7,-0.001602173,0.000680923,0.010848999,0,
00:04.7,-0.001602173,0.000686646,0.010837555,0,
00:04.7,-0.001607895,0.000680923,0.010820389,0,
00:04.7,-0.001602173,0.000680923,0.010826111,0,
00:04.7,-0.001602173,0.000686646,0.010843277,0,
00:04.7,-0.001607895,0.000686646,0.010843277,0,
00:04.7,-0.001613617,0.000680923,0.010843277,0,
00:04.7,-0.001607895,0.000680923,0.010826111,0,
00:04.7,-0.001607895,0.000680923,0.010814667,0,
00:04.7,-0.001613617,0.000680923,0.010843277,0,
00:04.7,-0.001607895,0.000680923,0.010843277,0,
00:04.7,-0.001596451,0.000686646,0.010837555,0,
00:04.7,-0.001602173,0.000680923,0.010831833,0,
00:04.8,-0.001607895,0.000686646,0.010831833,0,
00:04.8,-0.001596451,0.000686646,0.010837555,0,
00:04.8,-0.001590729,0.000686646,0.010831833,0,
00:04.8,-0.001607895,0.000669479,0.010814667,0,
00:04.8,-0.001607895,0.000686646,0.010837555,0,
00:04.8,-0.001613617,0.000680923,0.010814667,0,
00:04.8,-0.001602173,0.000680923,0.010831833,0,
00:04.8,-0.001602173,0.000686646,0.010837555,0,
00:04.8,-0.001613617,0.000680923,0.010837555,0,
00:04.8,-0.001607895,0.000675201,0.010831833,0,
00:04.8,-0.001607895,0.000669479,0.010826111,0,
00:04.8,-0.001602173,0.000680923,0.010837555,0,
00:04.8,-0.001607895,0.000675201,0.010843277,0,
00:04.8,-0.001602173,0.000680923,0.010837555,0,
00:04.8,-0.001607895,0.000675201,0.010820389,0,
00:04.8,-0.001602173,0.000680923,0.010820389,0,
00:04.8,-0.001602173,0.000680923,0.010837555,0,
00:04.8,-0.001596451,0.000680923,0.010831833,0,
00:04.8,-0.001602173,0.000680923,0.010826111,0,
00:04.8,-0.001607895,0.000680923,0.010820389,0,
00:04.8,-0.001607895,0.000675201,0.010808945,0,
00:04.8,-0.001607895,0.000675201,0.010803223,0,
00:04.8,-0.001602173,0.000675201,0.010808945,0,
00:04.8,-0.001613617,0.000675201,0.010797501,0,
00:04.8,-0.001607895,0.000680923,0.010814667,0,
00:04.9,-0.001613617,0.000675201,0.010791779,0,
00:04.9,-0.001607895,0.000680923,0.010826111,0,
00:04.9,-0.001602173,0.000675201,0.010814667,0,
00:04.9,-0.001602173,0.000675201,0.010814667,0,
00:04.9,-0.001602173,0.000675201,0.010814667,0,
00:04.9,-0.001602173,0.000675201,0.010797501,0,
00:04.9,-0.001607895,0.000675201,0.010820389,0,
00:04.9,-0.001607895,0.000669479,0.010826111,0,
00:04.9,-0.001602173,0.000675201,0.010820389,0,
00:04.9,-0.001602173,0.000680923,0.010814667,0,
00:04.9,-0.001607895,0.000675201,0.010814667,0,
00:04.9,-0.001602173,0.000680923,0.010814667,0,
00:04.9,-0.001602173,0.000675201,0.010803223,0,
00:04.9,-0.001607895,0.000669479,0.010808945,0,
00:04.9,-0.001602173,0.000669479,0.010808945,0,
00:04.9,-0.001607895,0.000675201,0.010808945,0,
00:04.9,-0.001607895,0.000669479,0.010820389,0,
00:04.9,-0.001607895,0.000669479,0.010814667,0,
00:04.9,-0.001607895,0.000669479,0.010808945,0,
00:04.9,-0.001602173,0.000675201,0.010803223,0,
00:04.9,-0.001602173,0.000680923,0.010780334,0,
00:04.9,-0.001607895,0.000675201,0.010820389,0,
00:04.9,-0.001607895,0.000675201,0.010808945,0,
00:04.9,-0.001607895,0.000675201,0.010820389,0,
00:04.9,-0.001613617,0.000669479,0.010831833,0,
00:05.0,-0.001607895,0.000675201,0.010826111,0,
00:05.0,-0.001613617,0.000669479,0.010820389,0,
00:05.0,-0.001607895,0.000669479,0.010820389,0,
00:05.0,-0.001613617,0.000675201,0.010814667,0,
00:05.0,-0.001602173,0.000675201,0.010808945,0,
00:05.0,-0.001602173,0.000675201,0.010808945,0,
00:05.0,-0.001607895,0.000675201,0.010808945,0,
00:05.0,-0.001607895,0.000669479,0.010808945,0,
00:05.0,-0.001607895,0.000669479,0.010808945,0,
00:05.0,-0.001613617,0.000669479,0.010814667,0,
00:05.0,-0.001607895,0.000669479,0.010814667,0,
00:05.0,-0.001613617,0.000669479,0.010808945,0,
00:00:05,-0.001607895,0.000669479,0.010808945,0,
00:05.0,-0.001602173,0.000675201,0.010803223,0,
00:05.0,-0.001607895,0.000675201,0.010808945,0,
00:05.0,-0.001607895,0.000675201,0.010808945,0,
00:05.0,-0.001613617,0.000669479,0.010803223,0,
00:05.0,-0.001613617,0.000675201,0.010791779,0,
00:05.0,-0.001607895,0.000669479,0.010831833,0,
00:05.0,-0.001602173,0.000675201,0.010837555,0,
00:05.0,-0.001602173,0.000669479,0.010820389,0,
00:05.0,-0.001607895,0.000675201,0.010831833,0,
00:05.0,-0.001613617,0.000669479,0.010820389,0,
00:05.0,-0.001613617,0.000663757,0.010820389,0,
00:05.0,-0.001613617,0.000663757,0.010820389,0,
00:05.1,-0.001613617,0.000663757,0.010814667,0,
00:05.1,-0.001619339,0.000663757,0.010820389,0,
00:05.1,-0.001613617,0.000669479,0.010820389,0,
00:05.1,-0.001607895,0.000675201,0.010814667,0,
00:05.1,-0.001613617,0.000675201,0.010814667,0,
00:05.1,-0.001607895,0.000669479,0.010808945,0,
00:05.1,-0.001619339,0.000663757,0.010814667,0,
00:05.1,-0.001619339,0.000669479,0.010837555,0,
00:05.1,-0.001613617,0.000669479,0.010831833,0,
00:05.1,-0.001625061,0.000669479,0.010826111,0,
00:05.1,-0.001607895,0.000669479,0.010820389,0,
00:05.1,-0.001619339,0.000663757,0.010814667,0,
00:05.1,-0.001613617,0.000669479,0.010820389,0,
00:05.1,-0.001613617,0.000669479,0.010814667,0,
00:05.1,-0.001625061,0.000669479,0.010820389,0,
00:05.1,-0.001613617,0.000669479,0.010814667,0,
00:05.1,-0.001613617,0.000663757,0.010826111,0,
00:05.1,-0.001625061,0.000663757,0.010837555,0,
00:05.1,-0.001613617,0.000669479,0.010843277,0,
00:05.1,-0.001613617,0.000669479,0.010831833,0,
00:05.1,-0.001613617,0.000669479,0.010837555,0,
00:05.1,-0.001613617,0.000663757,0.010826111,0,
00:05.1,-0.001619339,0.000669479,0.010826111,0,
00:05.1,-0.001607895,0.000669479,0.010843277,0,
00:05.1,-0.001619339,0.000669479,0.010826111,0,
00:05.2,-0.001619339,0.000663757,0.010831833,0,
00:05.2,-0.001613617,0.000663757,0.010837555,0,
00:05.2,-0.001613617,0.000669479,0.010837555,0,
00:05.2,-0.001619339,0.000663757,0.010831833,0,
00:05.2,-0.001619339,0.000663757,0.010831833,0,
00:05.2,-0.001619339,0.000663757,0.010826111,0,
00:05.2,-0.001619339,0.000663757,0.010837555,0,
00:05.2,-0.001613617,0.000669479,0.010843277,0,
00:05.2,-0.001619339,0.000669479,0.010837555,0,
00:05.2,-0.001619339,0.000669479,0.010814667,0,
00:05.2,-0.001619339,0.000663757,0.010814667,0,
00:05.2,-0.001625061,0.000658035,0.010843277,0,
00:05.2,-0.001625061,0.000658035,0.010826111,0,
00:05.2,-0.001613617,0.000658035,0.010843277,0,
00:05.2,-0.001607895,0.000663757,0.010820389,0,
00:05.2,-0.001619339,0.000663757,0.010848999,0,
00:05.2,-0.001613617,0.000663757,0.010854721,0,
00:05.2,-0.001619339,0.000663757,0.010848999,0,
00:05.2,-0.001619339,0.000663757,0.010843277,0,
00:05.2,-0.001613617,0.000663757,0.010843277,0,
00:05.2,-0.001613617,0.000663757,0.010843277,0,
00:05.2,-0.001619339,0.000658035,0.010843277,0,
00:05.2,-0.001619339,0.000658035,0.010843277,0,
00:05.2,-0.001607895,0.000669479,0.010843277,0,
00:05.2,-0.001619339,0.000663757,0.010837555,0,
00:05.3,-0.001630783,0.000658035,0.010837555,0,
00:05.3,-0.001619339,0.000658035,0.010837555,0,
00:05.3,-0.001613617,0.000663757,0.010837555,0,
00:05.3,-0.001613617,0.000663757,0.010814667,0,
00:05.3,-0.001619339,0.000663757,0.010831833,0,
00:05.3,-0.001636505,0.000652313,0.010848999,0,
00:05.3,-0.001625061,0.000658035,0.010854721,0,
00:05.3,-0.001613617,0.000658035,0.010848999,0,
00:05.3,-0.001619339,0.000658035,0.010854721,0,
00:05.3,-0.001619339,0.000658035,0.010848999,0,
00:05.3,-0.001619339,0.000658035,0.010843277,0,
00:05.3,-0.001625061,0.000652313,0.010837555,0,
00:05.3,-0.001619339,0.000658035,0.010837555,0,
00:05.3,-0.001619339,0.000663757,0.010843277,0,
00:05.3,-0.001613617,0.000663757,0.010843277,0,
00:05.3,-0.001619339,0.000658035,0.010837555,0,
00:05.3,-0.001619339,0.000658035,0.010843277,0,
00:05.3,-0.001625061,0.000658035,0.010848999,0,
00:05.3,-0.001625061,0.000658035,0.010848999,0,
00:05.3,-0.001619339,0.000658035,0.010843277,0,
00:05.3,-0.001619339,0.000658035,0.010843277,0,
00:05.3,-0.001619339,0.000663757,0.010848999,0,
00:05.3,-0.001619339,0.000652313,0.010837555,0,
00:05.3,-0.001625061,0.000652313,0.010848999,0,
00:05.3,-0.001630783,0.000658035,0.010843277,0,
00:05.4,-0.001613617,0.000663757,0.010848999,0,
00:05.4,-0.001619339,0.000652313,0.010854721,0,
00:05.4,-0.001619339,0.000658035,0.010848999,0,
00:05.4,-0.001625061,0.000652313,0.010860443,0,
00:05.4,-0.001625061,0.000652313,0.010848999,0,
00:05.4,-0.001625061,0.000652313,0.010860443,0,
00:05.4,-0.001619339,0.000652313,0.010854721,0,
00:05.4,-0.001625061,0.000652313,0.010854721,0,
00:05.4,-0.001619339,0.000652313,0.010848999,0,
00:05.4,-0.001619339,0.000658035,0.010843277,0,
00:05.4,-0.001625061,0.000652313,0.010848999,0,
00:05.4,-0.001630783,0.000652313,0.010848999,0,
00:05.4,-0.001619339,0.000652313,0.010871887,0,
00:05.4,-0.001619339,0.000658035,0.010860443,0,
00:05.4,-0.001619339,0.000652313,0.010860443,0,
00:05.4,-0.001619339,0.000646591,0.010877609,0,
00:05.4,-0.001625061,0.000652313,0.010866165,0,
00:05.4,-0.001619339,0.000652313,0.010848999,0,
00:05.4,-0.001619339,0.000652313,0.010866165,0,
00:05.4,-0.001619339,0.000652313,0.010871887,0,
00:05.4,-0.001613617,0.000652313,0.010854721,0,
00:05.4,-0.001625061,0.000646591,0.010871887,0,
00:05.4,-0.001625061,0.000646591,0.010871887,0,
00:05.4,-0.001613617,0.000652313,0.010871887,0,
00:05.4,-0.001619339,0.000652313,0.010866165,0,
00:05.5,-0.001630783,0.000646591,0.010871887,0,
00:05.5,-0.001619339,0.000652313,0.010871887,0,
00:05.5,-0.001625061,0.000652313,0.010877609,0,
00:05.5,-0.001630783,0.000646591,0.010877609,0,
00:05.5,-0.001619339,0.000652313,0.010860443,0,
00:05.5,-0.001625061,0.000646591,0.010871887,0,
00:05.5,-0.001625061,0.000646591,0.010871887,0,
00:05.5,-0.001625061,0.000646591,0.010889053,0,
00:05.5,-0.001630783,0.000646591,0.010871887,0,
00:05.5,-0.001619339,0.000646591,0.010866165,0,
00:05.5,-0.001607895,0.000652313,0.010883331,0,
00:05.5,-0.001619339,0.000646591,0.010889053,0,
00:05.5,-0.001619339,0.000646591,0.010889053,0,
00:05.5,-0.001625061,0.000640869,0.010866165,0,
00:05.5,-0.001619339,0.000652313,0.010900497,0,
00:05.5,-0.001630783,0.000646591,0.010889053,0,
00:05.5,-0.001625061,0.000640869,0.010877609,0,
00:05.5,-0.001625061,0.000646591,0.010883331,0,
00:05.5,-0.001619339,0.000646591,0.010894775,0,
00:05.5,-0.001619339,0.000640869,0.010883331,0,
00:05.5,-0.001619339,0.000646591,0.010894775,0,
00:05.5,-0.001613617,0.000646591,0.010889053,0,
00:05.5,-0.001619339,0.000646591,0.010877609,0,
00:05.5,-0.001619339,0.000646591,0.010894775,0,
00:05.5,-0.001619339,0.000646591,0.010894775,0,
00:05.6,-0.001625061,0.000640869,0.010883331,0,
00:05.6,-0.001619339,0.000640869,0.010883331,0,
00:05.6,-0.001607895,0.000646591,0.010906219,0,
00:05.6,-0.001619339,0.000640869,0.010894775,0,
00:05.6,-0.001625061,0.000640869,0.010883331,0,
00:05.6,-0.001630783,0.000646591,0.010911942,0,
00:05.6,-0.001625061,0.000640869,0.010906219,0,
00:05.6,-0.001613617,0.000646591,0.010900497,0,
00:05.6,-0.001619339,0.000640869,0.010900497,0,
00:05.6,-0.001625061,0.000640869,0.010911942,0,
00:05.6,-0.001619339,0.000646591,0.010894775,0,
00:05.6,-0.001619339,0.000635147,0.010906219,0,
00:05.6,-0.001619339,0.000640869,0.010917664,0,
00:05.6,-0.001625061,0.000640869,0.010900497,0,
00:05.6,-0.001625061,0.000640869,0.010889053,0,
00:05.6,-0.001619339,0.000635147,0.010917664,0,
00:05.6,-0.001613617,0.000640869,0.010923386,0,
00:05.6,-0.001613617,0.000640869,0.010894775,0,
00:05.6,-0.001619339,0.000640869,0.010906219,0,
00:05.6,-0.001619339,0.000640869,0.010911942,0,
00:05.6,-0.001619339,0.000640869,0.010906219,0,
00:05.6,-0.001619339,0.000635147,0.010929108,0,
00:05.6,-0.001619339,0.000640869,0.010929108,0,
00:05.6,-0.001619339,0.000635147,0.010929108,0,
00:05.6,-0.001619339,0.000640869,0.010917664,0,
00:05.7,-0.001619339,0.000640869,0.010911942,0,
00:05.7,-0.001625061,0.000640869,0.01093483,0,
00:05.7,-0.001625061,0.000640869,0.010923386,0,
00:05.7,-0.001630783,0.000635147,0.010923386,0,
00:05.7,-0.001619339,0.000635147,0.010917664,0,
00:05.7,-0.001613617,0.000640869,0.010894775,0,
00:05.7,-0.001613617,0.000646591,0.010923386,0,
00:05.7,-0.001619339,0.000640869,0.010923386,0,
00:05.7,-0.001625061,0.000635147,0.010911942,0,
00:05.7,-0.001625061,0.000646591,0.010911942,0,
00:05.7,-0.001619339,0.000640869,0.010923386,0,
00:05.7,-0.001619339,0.000635147,0.010929108,0,
00:05.7,-0.001619339,0.000635147,0.010923386,0,
00:05.7,-0.001619339,0.000646591,0.010929108,0,
00:05.7,-0.001619339,0.000640869,0.010923386,0,
00:05.7,-0.001625061,0.000629425,0.01093483,0,
00:05.7,-0.001636505,0.000635147,0.010929108,0,
00:05.7,-0.001625061,0.000635147,0.01093483,0,
00:05.7,-0.001619339,0.000635147,0.01093483,0,
00:05.7,-0.001607895,0.000640869,0.010923386,0,
00:05.7,-0.001607895,0.000640869,0.010929108,0,
00:05.7,-0.001630783,0.000640869,0.010923386,0,
00:05.7,-0.001630783,0.000635147,0.010946274,0,
00:05.7,-0.001613617,0.000635147,0.010923386,0,
00:05.7,-0.001613617,0.000635147,0.01093483,0,
00:05.8,-0.001607895,0.000640869,0.010923386,0,
00:05.8,-0.001619339,0.000635147,0.010946274,0,
00:05.8,-0.001619339,0.000635147,0.01096344,0,
00:05.8,-0.001619339,0.000635147,0.010946274,0,
00:05.8,-0.001619339,0.000635147,0.010940552,0,
00:05.8,-0.001625061,0.000640869,0.010940552,0,
00:05.8,-0.001613617,0.000640869,0.010951996,0,
00:05.8,-0.001619339,0.000635147,0.010951996,0,
00:05.8,-0.001607895,0.000635147,0.010957718,0,
00:05.8,-0.001613617,0.000635147,0.010957718,0,
00:05.8,-0.001619339,0.000629425,0.010946274,0,
00:05.8,-0.001619339,0.000629425,0.010946274,0,
00:05.8,-0.001619339,0.000635147,0.010957718,0,
00:05.8,-0.001619339,0.000635147,0.010951996,0,
00:05.8,-0.001607895,0.000635147,0.010940552,0,
00:05.8,-0.001619339,0.000629425,0.010940552,0,
00:05.8,-0.001619339,0.000635147,0.010957718,0,
00:05.8,-0.001613617,0.000640869,0.010969162,0,
00:05.8,-0.001613617,0.000635147,0.010940552,0,
00:05.8,-0.001613617,0.000635147,0.010957718,0,
00:05.8,-0.001625061,0.000635147,0.010969162,0,
00:05.8,-0.001613617,0.000635147,0.01096344,0,
00:05.8,-0.001613617,0.000635147,0.01096344,0,
00:05.8,-0.001625061,0.000629425,0.010946274,0,
00:05.8,-0.001613617,0.000629425,0.01096344,0,
00:05.9,-0.001607895,0.000640869,0.010969162,0,
00:05.9,-0.001613617,0.000635147,0.010957718,0,
00:05.9,-0.001613617,0.000640869,0.010974884,0,
00:05.9,-0.001613617,0.000629425,0.010974884,0,
00:05.9,-0.001619339,0.000629425,0.010969162,0,
00:05.9,-0.001613617,0.000635147,0.010969162,0,
00:05.9,-0.001613617,0.000635147,0.010957718,0,
00:05.9,-0.001613617,0.000635147,0.010951996,0,
00:05.9,-0.001613617,0.000635147,0.010951996,0,
00:05.9,-0.001619339,0.000635147,0.01096344,0,
00:05.9,-0.001613617,0.000629425,0.010969162,0,
00:05.9,-0.001607895,0.000629425,0.010986328,0,
00:05.9,-0.001607895,0.000635147,0.010974884,0,
00:05.9,-0.001613617,0.000629425,0.010969162,0,
00:05.9,-0.001625061,0.000635147,0.010969162,0,
00:05.9,-0.001625061,0.000629425,0.010974884,0,
00:05.9,-0.001619339,0.000629425,0.010969162,0,
00:05.9,-0.001619339,0.000635147,0.01096344,0,
00:05.9,-0.001607895,0.000635147,0.010957718,0,
00:05.9,-0.001613617,0.000629425,0.010969162,0,
00:05.9,-0.001613617,0.000623703,0.010986328,0,
00:05.9,-0.001607895,0.000629425,0.010980606,0,
00:05.9,-0.001607895,0.000635147,0.010974884,0,
00:05.9,-0.001613617,0.000629425,0.010974884,0,
00:05.9,-0.001613617,0.000635147,0.010980606,0,
00:06.0,-0.001607895,0.000635147,0.010974884,0,
00:06.0,-0.001613617,0.000629425,0.010974884,0,
00:06.0,-0.001607895,0.000629425,0.010980606,0,
00:06.0,-0.001613617,0.000635147,0.010969162,0,
00:06.0,-0.001625061,0.000629425,0.010974884,0,
00:06.0,-0.001619339,0.000629425,0.01099205,0,
00:06.0,-0.001619339,0.000629425,0.01099205,0,
00:06.0,-0.001607895,0.000629425,0.010986328,0,
00:06.0,-0.001607895,0.000629425,0.010980606,0,
00:06.0,-0.001613617,0.000623703,0.01099205,0,
00:06.0,-0.001613617,0.000629425,0.010986328,0,
00:06.0,-0.001607895,0.000629425,0.010986328,0,
00:00:06,-0.001619339,0.000629425,0.010980606,0,
00:06.0,-0.001625061,0.000623703,0.010951996,0,
00:06.0,-0.001607895,0.000629425,0.010974884,0,
00:06.0,-0.001602173,0.000635147,0.011009216,0,
00:06.0,-0.001602173,0.000635147,0.010974884,0,
00:06.0,-0.001607895,0.000623703,0.01099205,0,
00:06.0,-0.001613617,0.000629425,0.011003494,0,
00:06.0,-0.001613617,0.000629425,0.011009216,0,
00:06.0,-0.001607895,0.000629425,0.010997772,0,
00:06.0,-0.001613617,0.000623703,0.01099205,0,
00:06.0,-0.001619339,0.000623703,0.010997772,0,
00:06.0,-0.001613617,0.000629425,0.01099205,0,
00:06.0,-0.001607895,0.000629425,0.010997772,0,
00:06.1,-0.001607895,0.000629425,0.01099205,0,
00:06.1,-0.001607895,0.000629425,0.01099205,0,
00:06.1,-0.001607895,0.000623703,0.010997772,0,
00:06.1,-0.001613617,0.000623703,0.010997772,0,
00:06.1,-0.001607895,0.000629425,0.010997772,0,
00:06.1,-0.001613617,0.000629425,0.01099205,0,
00:06.1,-0.001607895,0.000635147,0.010980606,0,
00:06.1,-0.001613617,0.000623703,0.011014938,0,
00:06.1,-0.001607895,0.000629425,0.011003494,0,
00:06.1,-0.001607895,0.000629425,0.01099205,0,
00:06.1,-0.001613617,0.000629425,0.011014938,0,
00:06.1,-0.001619339,0.000623703,0.011003494,0,
00:06.1,-0.001613617,0.000623703,0.010997772,0,
00:06.1,-0.001613617,0.000623703,0.011014938,0,
00:06.1,-0.001619339,0.000623703,0.011009216,0,
00:06.1,-0.001607895,0.000629425,0.011014938,0,
00:06.1,-0.001607895,0.000623703,0.011014938,0,
00:06.1,-0.001607895,0.000623703,0.011014938,0,
00:06.1,-0.001607895,0.000623703,0.011009216,0,
00:06.1,-0.001607895,0.000623703,0.011003494,0,
00:06.1,-0.001607895,0.000623703,0.011014938,0,
00:06.1,-0.001602173,0.000623703,0.011003494,0,
00:06.1,-0.001625061,0.000617981,0.01099205,0,
00:06.1,-0.001607895,0.000629425,0.011014938,0,
00:06.1,-0.001613617,0.000623703,0.011009216,0,
00:06.2,-0.001613617,0.000617981,0.010997772,0,
00:06.2,-0.001613617,0.000617981,0.01102066,0,
00:06.2,-0.001607895,0.000623703,0.011009216,0,
00:06.2,-0.001607895,0.000629425,0.011003494,0,
00:06.2,-0.001607895,0.000617981,0.011009216,0,
00:06.2,-0.001607895,0.000617981,0.01102066,0,
00:06.2,-0.001613617,0.000617981,0.011014938,0,
00:06.2,-0.001613617,0.000617981,0.011009216,0,
00:06.2,-0.001619339,0.000623703,0.011014938,0,
00:06.2,-0.001607895,0.000617981,0.011014938,0,
00:06.2,-0.001602173,0.000629425,0.01102066,0,
00:06.2,-0.001607895,0.000623703,0.011009216,0,
00:06.2,-0.001602173,0.000617981,0.011014938,0,
00:06.2,-0.001607895,0.000617981,0.01102066,0,
00:06.2,-0.001607895,0.000623703,0.011014938,0,
00:06.2,-0.001613617,0.000623703,0.011009216,0,
00:06.2,-0.001613617,0.000617981,0.011003494,0,
00:06.2,-0.001607895,0.000623703,0.011009216,0,
00:06.2,-0.001596451,0.000617981,0.011009216,0,
00:06.2,-0.001607895,0.000617981,0.011003494,0,
00:06.2,-0.001607895,0.000623703,0.011014938,0,
00:06.2,-0.001602173,0.000623703,0.01102066,0,
00:06.2,-0.001602173,0.000617981,0.011014938,0,
00:06.2,-0.001602173,0.000623703,0.010997772,0,
00:06.2,-0.001607895,0.000617981,0.011026382,0,
00:06.3,-0.001607895,0.000617981,0.011026382,0,
00:06.3,-0.001607895,0.000617981,0.011026382,0,
00:06.3,-0.001619339,0.000612259,0.011014938,0,
00:06.3,-0.001613617,0.000617981,0.011009216,0,
00:06.3,-0.001602173,0.000623703,0.011014938,0,
00:06.3,-0.001607895,0.000612259,0.01102066,0,
00:06.3,-0.001602173,0.000612259,0.011014938,0,
00:06.3,-0.001613617,0.000612259,0.011026382,0,
00:06.3,-0.001607895,0.000617981,0.01102066,0,
00:06.3,-0.001607895,0.000617981,0.011009216,0,
00:06.3,-0.001607895,0.000617981,0.011026382,0,
00:06.3,-0.001613617,0.000617981,0.011014938,0,
00:06.3,-0.001613617,0.000612259,0.011014938,0,
00:06.3,-0.001613617,0.000612259,0.01102066,0,
00:06.3,-0.001596451,0.000617981,0.01102066,0,
00:06.3,-0.001602173,0.000617981,0.011009216,0,
00:06.3,-0.001602173,0.000617981,0.011014938,0,
00:06.3,-0.001602173,0.000612259,0.011026382,0,
00:06.3,-0.001602173,0.000617981,0.011026382,0,
00:06.3,-0.001602173,0.000617981,0.011003494,0,
00:06.3,-0.001607895,0.000612259,0.011003494,0,
00:06.3,-0.001602173,0.000612259,0.01102066,0,
00:06.3,-0.001607895,0.000617981,0.011026382,0,
00:06.3,-0.001607895,0.000617981,0.01102066,0,
00:06.3,-0.001607895,0.000612259,0.011026382,0,
00:06.4,-0.001596451,0.000612259,0.011026382,0,
00:06.4,-0.001607895,0.000612259,0.01102066,0,
00:06.4,-0.001602173,0.000617981,0.011026382,0,
00:06.4,-0.001602173,0.000617981,0.01102066,0,
00:06.4,-0.001602173,0.000612259,0.011009216,0,
00:06.4,-0.001607895,0.000617981,0.011014938,0,
00:06.4,-0.001607895,0.000617981,0.010997772,0,
00:06.4,-0.001607895,0.000617981,0.011043549,0,
00:06.4,-0.001602173,0.000612259,0.011032104,0,
00:06.4,-0.001602173,0.000612259,0.011026382,0,
00:06.4,-0.001607895,0.000612259,0.011009216,0,
00:06.4,-0.001596451,0.000617981,0.01102066,0,
00:06.4,-0.001602173,0.000612259,0.011026382,0,
00:06.4,-0.001607895,0.000612259,0.011032104,0,
00:06.4,-0.001602173,0.000617981,0.011032104,0,
00:06.4,-0.001602173,0.000617981,0.011009216,0,
00:06.4,-0.001607895,0.000612259,0.011009216,0,
00:06.4,-0.001613617,0.000612259,0.011026382,0,
00:06.4,-0.001596451,0.000612259,0.011032104,0,
00:06.4,-0.001596451,0.000617981,0.011026382,0,
00:06.4,-0.001596451,0.000617981,0.01102066,0,
00:06.4,-0.001613617,0.000606537,0.011014938,0,
00:06.4,-0.001602173,0.000606537,0.011014938,0,
00:06.4,-0.001596451,0.000617981,0.011026382,0,
00:06.4,-0.001602173,0.000612259,0.011014938,0,
00:06.5,-0.001602173,0.000617981,0.011014938,0,
00:06.5,-0.001602173,0.000617981,0.011026382,0,
00:06.5,-0.001602173,0.000612259,0.011026382,0,
00:06.5,-0.001607895,0.000612259,0.01102066,0,
00:06.5,-0.001613617,0.000612259,0.011009216,0,
00:06.5,-0.001596451,0.000617981,0.011009216,0,
00:06.5,-0.001596451,0.000606537,0.010997772,0,
00:06.5,-0.001596451,0.000617981,0.011032104,0,
00:06.5,-0.001602173,0.000617981,0.011026382,0,
00:06.5,-0.001602173,0.000617981,0.011009216,0,
00:06.5,-0.001607895,0.000612259,0.01102066,0,
00:06.5,-0.001607895,0.000612259,0.011037827,0,
00:06.5,-0.001607895,0.000612259,0.011032104,0,
00:06.5,-0.001602173,0.000612259,0.011026382,0,
00:06.5,-0.001602173,0.000612259,0.011026382,0,
00:06.5,-0.001607895,0.000617981,0.011009216,0,
00:06.5,-0.001607895,0.000617981,0.011026382,0,
00:06.5,-0.001607895,0.000612259,0.011032104,0,
00:06.5,-0.001602173,0.000612259,0.01102066,0,
00:06.5,-0.001596451,0.000612259,0.011026382,0,
00:06.5,-0.001602173,0.000617981,0.01102066,0,
00:06.5,-0.001596451,0.000612259,0.011032104,0,
00:06.5,-0.001602173,0.000612259,0.011026382,0,
00:06.5,-0.001607895,0.000606537,0.011014938,0,
00:06.5,-0.001602173,0.000612259,0.011014938,0,
00:06.6,-0.001602173,0.000617981,0.011009216,0,
00:06.6,-0.001602173,0.000617981,0.011037827,0,
00:06.6,-0.001602173,0.000612259,0.011032104,0,
00:06.6,-0.001602173,0.000612259,0.011032104,0,
00:06.6,-0.001602173,0.000606537,0.011032104,0,
00:06.6,-0.001602173,0.000606537,0.011026382,0,
00:06.6,-0.001596451,0.000612259,0.011009216,0,
00:06.6,-0.001602173,0.000612259,0.011014938,0,
00:06.6,-0.001607895,0.000612259,0.011037827,0,
00:06.6,-0.001602173,0.000612259,0.011026382,0,
00:06.6,-0.001602173,0.000612259,0.011003494,0,
00:06.6,-0.001602173,0.000606537,0.011032104,0,
00:06.6,-0.001602173,0.000612259,0.011043549,0,
00:06.6,-0.001602173,0.000612259,0.011032104,0,
00:06.6,-0.001602173,0.000612259,0.011032104,0,
00:06.6,-0.001596451,0.000617981,0.011026382,0,
00:06.6,-0.001596451,0.000617981,0.011026382,0,
00:06.6,-0.001607895,0.000612259,0.011014938,0,
00:06.6,-0.001602173,0.000612259,0.011014938,0,
00:06.6,-0.001607895,0.000612259,0.011014938,0,
00:06.6,-0.001596451,0.000606537,0.011003494,0,
00:06.6,-0.001596451,0.000612259,0.011014938,0,
00:06.6,-0.001602173,0.000606537,0.011037827,0,
00:06.6,-0.001602173,0.000612259,0.011032104,0,
00:06.6,-0.001596451,0.000612259,0.011026382,0,
00:06.7,-0.001602173,0.000606537,0.01102066,0,
00:06.7,-0.001602173,0.000612259,0.011009216,0,
00:06.7,-0.001602173,0.000612259,0.011014938,0,
00:06.7,-0.001596451,0.000612259,0.011009216,0,
00:06.7,-0.001602173,0.000612259,0.011014938,0,
00:06.7,-0.001607895,0.000612259,0.011032104,0,
00:06.7,-0.001602173,0.000612259,0.011026382,0,
00:06.7,-0.001602173,0.000612259,0.011026382,0,
00:06.7,-0.001596451,0.000612259,0.01102066,0,
00:06.7,-0.001602173,0.000612259,0.011014938,0,
00:06.7,-0.001596451,0.000617981,0.011014938,0,
00:06.7,-0.001596451,0.000612259,0.011014938,0,
00:06.7,-0.001590729,0.000612259,0.01102066,0,
00:06.7,-0.001602173,0.000612259,0.01102066,0,
00:06.7,-0.001607895,0.000606537,0.011014938,0,
00:06.7,-0.001596451,0.000612259,0.011009216,0,
00:06.7,-0.001596451,0.000612259,0.011009216,0,
00:06.7,-0.001602173,0.000606537,0.011026382,0,
00:06.7,-0.001607895,0.000606537,0.011009216,0,
00:06.7,-0.001602173,0.000606537,0.011026382,0,
00:06.7,-0.001590729,0.000606537,0.011014938,0,
00:06.7,-0.001613617,0.000612259,0.011014938,0,
00:06.7,-0.001607895,0.000612259,0.01102066,0,
00:06.7,-0.001602173,0.000612259,0.011014938,0,
00:06.7,-0.001590729,0.000612259,0.011026382,0,
00:06.8,-0.001596451,0.000606537,0.01102066,0,
00:06.8,-0.001602173,0.000612259,0.01102066,0,
00:06.8,-0.001602173,0.000612259,0.011014938,0,
00:06.8,-0.001602173,0.000606537,0.01102066,0,
00:06.8,-0.001596451,0.000612259,0.011014938,0,
00:06.8,-0.001602173,0.000606537,0.01099205,0,
00:06.8,-0.001602173,0.000612259,0.011009216,0,
00:06.8,-0.001596451,0.000612259,0.01102066,0,
00:06.8,-0.001596451,0.000606537,0.011026382,0,
00:06.8,-0.001602173,0.000606537,0.01102066,0,
00:06.8,-0.001596451,0.000612259,0.01102066,0,
00:06.8,-0.001596451,0.000612259,0.011014938,0,
00:06.8,-0.001602173,0.000606537,0.011014938,0,
00:06.8,-0.001602173,0.000606537,0.011014938,0,
00:06.8,-0.001596451,0.000612259,0.011014938,0,
00:06.8,-0.001602173,0.000612259,0.011009216,0,
00:06.8,-0.001602173,0.000612259,0.010986328,0,
00:06.8,-0.001607895,0.000612259,0.011009216,0,
00:06.8,-0.001585007,0.000612259,0.011026382,0,
00:06.8,-0.001596451,0.000606537,0.011026382,0,
00:06.8,-0.001596451,0.000606537,0.011009216,0,
00:06.8,-0.001596451,0.000606537,0.01102066,0,
00:06.8,-0.001596451,0.000612259,0.011032104,0,
00:06.8,-0.001602173,0.000612259,0.011026382,0,
00:06.8,-0.001602173,0.000606537,0.01102066,0,
00:06.9,-0.001590729,0.000612259,0.011014938,0,
00:06.9,-0.001596451,0.000612259,0.011014938,0,
00:06.9,-0.001602173,0.000612259,0.011009216,0,
00:06.9,-0.001596451,0.000612259,0.01102066,0,
00:06.9,-0.001596451,0.000617981,0.011026382,0,
00:06.9,-0.001613617,0.000606537,0.011014938,0,
00:06.9,-0.001602173,0.000612259,0.011014938,0,
00:06.9,-0.001596451,0.000612259,0.01102066,0,
00:06.9,-0.001590729,0.000612259,0.01102066,0,
00:06.9,-0.001596451,0.000612259,0.011032104,0,
00:06.9,-0.001602173,0.000612259,0.011014938,0,
00:06.9,-0.001607895,0.000606537,0.011009216,0,
00:06.9,-0.001607895,0.000606537,0.01102066,0,
00:06.9,-0.001590729,0.000612259,0.011009216,0,
00:06.9,-0.001590729,0.000612259,0.011032104,0,
00:06.9,-0.001596451,0.000612259,0.011003494,0,
00:06.9,-0.001602173,0.000612259,0.011026382,0,
00:06.9,-0.001602173,0.000612259,0.011032104,0,
00:06.9,-0.001596451,0.000612259,0.011026382,0,
00:06.9,-0.001602173,0.000606537,0.01102066,0,
00:06.9,-0.001596451,0.000612259,0.01102066,0,
00:06.9,-0.001602173,0.000612259,0.011014938,0,
00:06.9,-0.001596451,0.000612259,0.011026382,0,
00:06.9,-0.001596451,0.000612259,0.011014938,0,
00:06.9,-0.001602173,0.000606537,0.011009216,0,
00:07.0,-0.001596451,0.000606537,0.011026382,0,
00:07.0,-0.001602173,0.000606537,0.011037827,0,
00:07.0,-0.001596451,0.000606537,0.011037827,0,
00:07.0,-0.001596451,0.000612259,0.011037827,0,
00:07.0,-0.001596451,0.000612259,0.011026382,0,
00:07.0,-0.001596451,0.000612259,0.011014938,0,
00:07.0,-0.001602173,0.000617981,0.01102066,0,
00:07.0,-0.001607895,0.000606537,0.01102066,0,
00:07.0,-0.001596451,0.000612259,0.011032104,0,
00:07.0,-0.001590729,0.000612259,0.011014938,0,
00:07.0,-0.001590729,0.000612259,0.011037827,0,
00:07.0,-0.001602173,0.000612259,0.011026382,0,
00:00:07,-0.001596451,0.000617981,0.011014938,0,
00:07.0,-0.001596451,0.000612259,0.011032104,0,
00:07.0,-0.001596451,0.000612259,0.011032104,0,
00:07.0,-0.001596451,0.000612259,0.011026382,0,
00:07.0,-0.001602173,0.000612259,0.011026382,0,
00:07.0,-0.001607895,0.000612259,0.011014938,0,
00:07.0,-0.001596451,0.000612259,0.011009216,0,
00:07.0,-0.001596451,0.000606537,0.01102066,0,
00:07.0,-0.001596451,0.000606537,0.011032104,0,
00:07.0,-0.001602173,0.000606537,0.011032104,0,
00:07.0,-0.001596451,0.000606537,0.01102066,0,
00:07.0,-0.001590729,0.000617981,0.011014938,0,
00:07.0,-0.001596451,0.000617981,0.01102066,0,
00:07.1,-0.001596451,0.000617981,0.01102066,0,
00:07.1,-0.001602173,0.000612259,0.011009216,0,
00:07.1,-0.001602173,0.000606537,0.011032104,0,
00:07.1,-0.001590729,0.000606537,0.011026382,0,
00:07.1,-0.001596451,0.000612259,0.01102066,0,
00:07.1,-0.001607895,0.000606537,0.011014938,0,
00:07.1,-0.001602173,0.000606537,0.011026382,0,
00:07.1,-0.001602173,0.000606537,0.011026382,0,
00:07.1,-0.001602173,0.000606537,0.011026382,0,
00:07.1,-0.001596451,0.000606537,0.011026382,0,
00:07.1,-0.001596451,0.000612259,0.011014938,0,
00:07.1,-0.001602173,0.000612259,0.011003494,0,
00:07.1,-0.001602173,0.000606537,0.011009216,0,
00:07.1,-0.001613617,0.000606537,0.010997772,0,
00:07.1,-0.001607895,0.000606537,0.01102066,0,
00:07.1,-0.001590729,0.000606537,0.011037827,0,
00:07.1,-0.001596451,0.000612259,0.011032104,0,
00:07.1,-0.001602173,0.000612259,0.011037827,0,
00:07.1,-0.001607895,0.000606537,0.011026382,0,
00:07.1,-0.001607895,0.000606537,0.011026382,0,
00:07.1,-0.001602173,0.000612259,0.011032104,0,
00:07.1,-0.001607895,0.000617981,0.011026382,0,
00:07.1,-0.001585007,0.000617981,0.011014938,0,
00:07.1,-0.001607895,0.000606537,0.011003494,0,
00:07.1,-0.001602173,0.000612259,0.01102066,0,
00:07.2,-0.001602173,0.000612259,0.011026382,0,
00:07.2,-0.001602173,0.000600815,0.011026382,0,
00:07.2,-0.001602173,0.000606537,0.011026382,0,
00:07.2,-0.001602173,0.000606537,0.011026382,0,
00:07.2,-0.001602173,0.000612259,0.011014938,0,
00:07.2,-0.001602173,0.000612259,0.011014938,0,
00:07.2,-0.001602173,0.000612259,0.01102066,0,
00:07.2,-0.001602173,0.000612259,0.011003494,0,
00:07.2,-0.001602173,0.000612259,0.011014938,0,
00:07.2,-0.001602173,0.000612259,0.011032104,0,
00:07.2,-0.001602173,0.000612259,0.011026382,0,
00:07.2,-0.001596451,0.000606537,0.01102066,0,
00:07.2,-0.001585007,0.000617981,0.01102066,0,
00:07.2,-0.001602173,0.000606537,0.011003494,0,
00:07.2,-0.001602173,0.000617981,0.011014938,0,
00:07.2,-0.001607895,0.000612259,0.011032104,0,
00:07.2,-0.001596451,0.000606537,0.011026382,0,
00:07.2,-0.001596451,0.000612259,0.011032104,0,
00:07.2,-0.001602173,0.000612259,0.011014938,0,
00:07.2,-0.001602173,0.000606537,0.01102066,0,
00:07.2,-0.001602173,0.000606537,0.011026382,0,
00:07.2,-0.001596451,0.000612259,0.01102066,0,
00:07.2,-0.001596451,0.000612259,0.011014938,0,
00:07.2,-0.001602173,0.000606537,0.011026382,0,
00:07.2,-0.001602173,0.000612259,0.01102066,0,
00:07.3,-0.001596451,0.000617981,0.011009216,0,
00:07.3,-0.001596451,0.000612259,0.011003494,0,
00:07.3,-0.001602173,0.000606537,0.01102066,0,
00:07.3,-0.001602173,0.000600815,0.011037827,0,
00:07.3,-0.001602173,0.000606537,0.011032104,0,
00:07.3,-0.001596451,0.000612259,0.01102066,0,
00:07.3,-0.001596451,0.000606537,0.011026382,0,
00:07.3,-0.001602173,0.000606537,0.01102066,0,
00:07.3,-0.001590729,0.000617981,0.01102066,0,
00:07.3,-0.001596451,0.000612259,0.011009216,0,
00:07.3,-0.001607895,0.000612259,0.011009216,0,
00:07.3,-0.001596451,0.000606537,0.011014938,0,
00:07.3,-0.001602173,0.000606537,0.01102066,0,
00:07.3,-0.001602173,0.000606537,0.01102066,0,
00:07.3,-0.001602173,0.000600815,0.011009216,0,
00:07.3,-0.001602173,0.000612259,0.011032104,0,
00:07.3,-0.001596451,0.000612259,0.011026382,0,
00:07.3,-0.001602173,0.000612259,0.011014938,0,
00:07.3,-0.001602173,0.000612259,0.011014938,0,
00:07.3,-0.001607895,0.000606537,0.011003494,0,
00:07.3,-0.001596451,0.000612259,0.011014938,0,
00:07.3,-0.001596451,0.000606537,0.011026382,0,
00:07.3,-0.001596451,0.000606537,0.011026382,0,
00:07.3,-0.001602173,0.000606537,0.011037827,0,
00:07.3,-0.001602173,0.000606537,0.011026382,0,
00:07.4,-0.001596451,0.000612259,0.01102066,0,
00:07.4,-0.001602173,0.000600815,0.011014938,0,
00:07.4,-0.001607895,0.000600815,0.011014938,0,
00:07.4,-0.001602173,0.000606537,0.011014938,0,
00:07.4,-0.001590729,0.000606537,0.01102066,0,
00:07.4,-0.001596451,0.000606537,0.011014938,0,
00:07.4,-0.001602173,0.000606537,0.010997772,0,
00:07.4,-0.001602173,0.000600815,0.01102066,0,
00:07.4,-0.001602173,0.000606537,0.011026382,0,
00:07.4,-0.001602173,0.000606537,0.011009216,0,
00:07.4,-0.001596451,0.000612259,0.01102066,0,
00:07.4,-0.001590729,0.000606537,0.011014938,0,
00:07.4,-0.001602173,0.000606537,0.011009216,0,
00:07.4,-0.001607895,0.000612259,0.01102066,0,
00:07.4,-0.001602173,0.000606537,0.01102066,0,
00:07.4,-0.001596451,0.000606537,0.011026382,0,
00:07.4,-0.001602173,0.000606537,0.011014938,0,
00:07.4,-0.001607895,0.000606537,0.011003494,0,
00:07.4,-0.001596451,0.000606537,0.011003494,0,
00:07.4,-0.001596451,0.000600815,0.011037827,0,
00:07.4,-0.001596451,0.000606537,0.011026382,0,
00:07.4,-0.001596451,0.000606537,0.011014938,0,
00:07.4,-0.001602173,0.000600815,0.01102066,0,
00:07.4,-0.001602173,0.000606537,0.011014938,0,
00:07.4,-0.001602173,0.000606537,0.011009216,0,
00:07.5,-0.001596451,0.000606537,0.011009216,0,
00:07.5,-0.001602173,0.000606537,0.011009216,0,
00:07.5,-0.001602173,0.000600815,0.01102066,0,
00:07.5,-0.001602173,0.000600815,0.011009216,0,
00:07.5,-0.001602173,0.000606537,0.011003494,0,
00:07.5,-0.001602173,0.000606537,0.011014938,0,
00:07.5,-0.001596451,0.000606537,0.01102066,0,
00:07.5,-0.001602173,0.000600815,0.011026382,0,
00:07.5,-0.001596451,0.000606537,0.01102066,0,
00:07.5,-0.001602173,0.000606537,0.010997772,0,
00:07.5,-0.001596451,0.000606537,0.010986328,0,
00:07.5,-0.001596451,0.000600815,0.011026382,0,
00:07.5,-0.001602173,0.000606537,0.011032104,0,
00:07.5,-0.001596451,0.000606537,0.01102066,0,
00:07.5,-0.001602173,0.000606537,0.011009216,0,
00:07.5,-0.001607895,0.000606537,0.011003494,0,
00:07.5,-0.001602173,0.000600815,0.011003494,0,
00:07.5,-0.001602173,0.000600815,0.011003494,0,
00:07.5,-0.001590729,0.000612259,0.011014938,0,
00:07.5,-0.001602173,0.000606537,0.011032104,0,
00:07.5,-0.001602173,0.000600815,0.01102066,0,
00:07.5,-0.001602173,0.000600815,0.011014938,0,
00:07.5,-0.001602173,0.000606537,0.011009216,0,
00:07.5,-0.001596451,0.000612259,0.011014938,0,
00:07.5,-0.001596451,0.000600815,0.011009216,0,
00:07.6,-0.001602173,0.000600815,0.010997772,0,
00:07.6,-0.001602173,0.000600815,0.01102066,0,
00:07.6,-0.001602173,0.000606537,0.01102066,0,
00:07.6,-0.001602173,0.000600815,0.011014938,0,
00:07.6,-0.001590729,0.000606537,0.011009216,0,
00:07.6,-0.001602173,0.000600815,0.011003494,0,
00:07.6,-0.001602173,0.000600815,0.011014938,0,
00:07.6,-0.001596451,0.000600815,0.011014938,0,
00:07.6,-0.001607895,0.000606537,0.011009216,0,
00:07.6,-0.001602173,0.000606537,0.010997772,0,
00:07.6,-0.001596451,0.000606537,0.010997772,0,
00:07.6,-0.001607895,0.000600815,0.010997772,0,
00:07.6,-0.001607895,0.000595093,0.011009216,0,
00:07.6,-0.001602173,0.000600815,0.011014938,0,
00:07.6,-0.001613617,0.000600815,0.011014938,0,
00:07.6,-0.001596451,0.000606537,0.011014938,0,
00:07.6,-0.001590729,0.000606537,0.011014938,0,
00:07.6,-0.001596451,0.000606537,0.011009216,0,
00:07.6,-0.001602173,0.000606537,0.010997772,0,
00:07.6,-0.001602173,0.000606537,0.011003494,0,
00:07.6,-0.001602173,0.000606537,0.01099205,0,
00:07.6,-0.001602173,0.000606537,0.011003494,0,
00:07.6,-0.001602173,0.000600815,0.011014938,0,
00:07.6,-0.001607895,0.000600815,0.011009216,0,
00:07.6,-0.001602173,0.000606537,0.011009216,0,
00:07.7,-0.001602173,0.000606537,0.011009216,0,
00:07.7,-0.001602173,0.000606537,0.011003494,0,
00:07.7,-0.001602173,0.000606537,0.011003494,0,
00:07.7,-0.001602173,0.000612259,0.010986328,0,
00:07.7,-0.001602173,0.000606537,0.010986328,0,
00:07.7,-0.001596451,0.000606537,0.010997772,0,
00:07.7,-0.001607895,0.000600815,0.01099205,0,
00:07.7,-0.001607895,0.000606537,0.011014938,0,
00:07.7,-0.001607895,0.000600815,0.011014938,0,
00:07.7,-0.001607895,0.000600815,0.011009216,0,
00:07.7,-0.001607895,0.000600815,0.011009216,0,
00:07.7,-0.001607895,0.000606537,0.011003494,0,
00:07.7,-0.001613617,0.000600815,0.010997772,0,
00:07.7,-0.001613617,0.000600815,0.011003494,0,
00:07.7,-0.001596451,0.000606537,0.010986328,0,
00:07.7,-0.001596451,0.000612259,0.01099205,0,
00:07.7,-0.001607895,0.000606537,0.010997772,0,
00:07.7,-0.001602173,0.000606537,0.011003494,0,
00:07.7,-0.001596451,0.000600815,0.01099205,0,
00:07.7,-0.001602173,0.000600815,0.011009216,0,
00:07.7,-0.001602173,0.000606537,0.011009216,0,
00:07.7,-0.001607895,0.000606537,0.011003494,0,
00:07.7,-0.001602173,0.000600815,0.010997772,0,
00:07.7,-0.001607895,0.000612259,0.010986328,0,
00:07.7,-0.001607895,0.000600815,0.01099205,0,
00:07.8,-0.001607895,0.000600815,0.010980606,0,
00:07.8,-0.001607895,0.000606537,0.011003494,0,
00:07.8,-0.001607895,0.000606537,0.011014938,0,
00:07.8,-0.001607895,0.000600815,0.011009216,0,
00:07.8,-0.001607895,0.000600815,0.011003494,0,
00:07.8,-0.001602173,0.000606537,0.010997772,0,
00:07.8,-0.001607895,0.000606537,0.010997772,0,
00:07.8,-0.001602173,0.000600815,0.010997772,0,
00:07.8,-0.001607895,0.000600815,0.010997772,0,
00:07.8,-0.001613617,0.000595093,0.010997772,0,
00:07.8,-0.001602173,0.000606537,0.010997772,0,
00:07.8,-0.001607895,0.000600815,0.010997772,0,
00:07.8,-0.001602173,0.000600815,0.01099205,0,
00:07.8,-0.001602173,0.000600815,0.011003494,0,
00:07.8,-0.001607895,0.000600815,0.011003494,0,
00:07.8,-0.001619339,0.000600815,0.01099205,0,
00:07.8,-0.001613617,0.000606537,0.010974884,0,
00:07.8,-0.001602173,0.000600815,0.010997772,0,
00:07.8,-0.001596451,0.000595093,0.010986328,0,
00:07.8,-0.001602173,0.000600815,0.01099205,0,
00:07.8,-0.001602173,0.000600815,0.011009216,0,
00:07.8,-0.001602173,0.000600815,0.011003494,0,
00:07.8,-0.001607895,0.000600815,0.01099205,0,
00:07.8,-0.001607895,0.000600815,0.010997772,0,
00:07.8,-0.001602173,0.000606537,0.010997772,0,
00:07.9,-0.001602173,0.000606537,0.010980606,0,
00:07.9,-0.001607895,0.000606537,0.010986328,0,
00:07.9,-0.001613617,0.000600815,0.010997772,0,
00:07.9,-0.001602173,0.000600815,0.010997772,0,
00:07.9,-0.001602173,0.000606537,0.01099205,0,
00:07.9,-0.001602173,0.000600815,0.010980606,0,
00:07.9,-0.001607895,0.000600815,0.01099205,0,
00:07.9,-0.001607895,0.000600815,0.011003494,0,
00:07.9,-0.001607895,0.000595093,0.01099205,0,
00:07.9,-0.001607895,0.000600815,0.010986328,0,
00:07.9,-0.001596451,0.000606537,0.010974884,0,
00:07.9,-0.001607895,0.000606537,0.011003494,0,
00:07.9,-0.001607895,0.000600815,0.01099205,0,
00:07.9,-0.001602173,0.000600815,0.01099205,0,
00:07.9,-0.001607895,0.000600815,0.01099205,0,
00:07.9,-0.001607895,0.000600815,0.010997772,0,
00:07.9,-0.001607895,0.000600815,0.010997772,0,
00:07.9,-0.001607895,0.000600815,0.010997772,0,
00:07.9,-0.001607895,0.000600815,0.010997772,0,
00:07.9,-0.001619339,0.000600815,0.010980606,0,
00:07.9,-0.001602173,0.000606537,0.010986328,0,
00:07.9,-0.001602173,0.000595093,0.010997772,0,
00:07.9,-0.001602173,0.000600815,0.01099205,0,
00:07.9,-0.001607895,0.000600815,0.010997772,0,
00:07.9,-0.001607895,0.000600815,0.010980606,0,
00:08.0,-0.001613617,0.000600815,0.011003494,0,
00:08.0,-0.001607895,0.000600815,0.01099205,0,
00:08.0,-0.001607895,0.000600815,0.01099205,0,
00:08.0,-0.001613617,0.000595093,0.010980606,0,
00:08.0,-0.001607895,0.000606537,0.010997772,0,
00:08.0,-0.001607895,0.000606537,0.010980606,0,
00:08.0,-0.001607895,0.000600815,0.01099205,0,
00:08.0,-0.001602173,0.000600815,0.010986328,0,
00:08.0,-0.001607895,0.000606537,0.010997772,0,
00:08.0,-0.001607895,0.000600815,0.01099205,0,
00:08.0,-0.001613617,0.000595093,0.01099205,0,
00:08.0,-0.001613617,0.000595093,0.010986328,0,
00:00:08,-0.001607895,0.000600815,0.010986328,0,
00:08.0,-0.001607895,0.000600815,0.010974884,0,
00:08.0,-0.001607895,0.000600815,0.010980606,0,
00:08.0,-0.001613617,0.000600815,0.010980606,0,
00:08.0,-0.001607895,0.000600815,0.010969162,0,
00:08.0,-0.001607895,0.000600815,0.010997772,0,
00:08.0,-0.001607895,0.000600815,0.010986328,0,
00:08.0,-0.001607895,0.000606537,0.010980606,0,
00:08.0,-0.001602173,0.000606537,0.010974884,0,
00:08.0,-0.001607895,0.000600815,0.010974884,0,
00:08.0,-0.001613617,0.000595093,0.010986328,0,
00:08.0,-0.001613617,0.000600815,0.010986328,0,
00:08.0,-0.001607895,0.000595093,0.010980606,0,
00:08.1,-0.001602173,0.000600815,0.010980606,0,
00:08.1,-0.001607895,0.000600815,0.010974884,0,
00:08.1,-0.001607895,0.000600815,0.010969162,0,
00:08.1,-0.001602173,0.000600815,0.010974884,0,
00:08.1,-0.001602173,0.000600815,0.010986328,0,
00:08.1,-0.001613617,0.000600815,0.010980606,0,
00:08.1,-0.001607895,0.000600815,0.010974884,0,
00:08.1,-0.001602173,0.000600815,0.010969162,0,
00:08.1,-0.001602173,0.000606537,0.010974884,0,
00:08.1,-0.001613617,0.000600815,0.010951996,0,
00:08.1,-0.001613617,0.000595093,0.010974884,0,
00:08.1,-0.001602173,0.000600815,0.010986328,0,
00:08.1,-0.001607895,0.000595093,0.010969162,0,
00:08.1,-0.001602173,0.000606537,0.010980606,0,
00:08.1,-0.001607895,0.000600815,0.010969162,0,
00:08.1,-0.001613617,0.000595093,0.01096344,0,
00:08.1,-0.001613617,0.000600815,0.010974884,0,
00:08.1,-0.001607895,0.000595093,0.010980606,0,
00:08.1,-0.001607895,0.000600815,0.010980606,0,
00:08.1,-0.001607895,0.000606537,0.010980606,0,
00:08.1,-0.001607895,0.000595093,0.010969162,0,
00:08.1,-0.001602173,0.000600815,0.010951996,0,
00:08.1,-0.001607895,0.000600815,0.010974884,0,
00:08.1,-0.001602173,0.000606537,0.010986328,0,
00:08.1,-0.001607895,0.000600815,0.010957718,0,
00:08.2,-0.001613617,0.000595093,0.010969162,0,
00:08.2,-0.001607895,0.000600815,0.010974884,0,
00:08.2,-0.001607895,0.000600815,0.010969162,0,
00:08.2,-0.001607895,0.000595093,0.010980606,0,
00:08.2,-0.001607895,0.000600815,0.010974884,0,
00:08.2,-0.001613617,0.000595093,0.010969162,0,
00:08.2,-0.001602173,0.000595093,0.01096344,0,
00:08.2,-0.001602173,0.000595093,0.010980606,0,
00:08.2,-0.001607895,0.000600815,0.010969162,0,
00:08.2,-0.001613617,0.000600815,0.010974884,0,
00:08.2,-0.001607895,0.000600815,0.010969162,0,
00:08.2,-0.001602173,0.000600815,0.010974884,0,
00:08.2,-0.001602173,0.000600815,0.010974884,0,
00:08.2,-0.001607895,0.000600815,0.010974884,0,
00:08.2,-0.001607895,0.000600815,0.01096344,0,
00:08.2,-0.001607895,0.000600815,0.01096344,0,
00:08.2,-0.001613617,0.000600815,0.010974884,0,
00:08.2,-0.001613617,0.000600815,0.010951996,0,
00:08.2,-0.001607895,0.000600815,0.010957718,0,
00:08.2,-0.001607895,0.000600815,0.01096344,0,
00:08.2,-0.001607895,0.000600815,0.010969162,0,
00:08.2,-0.001613617,0.000595093,0.010980606,0,
00:08.2,-0.001607895,0.000600815,0.010969162,0,
00:08.2,-0.001607895,0.000600815,0.01096344,0,
00:08.2,-0.001607895,0.000600815,0.010969162,0,
00:08.3,-0.001607895,0.000600815,0.010969162,0,
00:08.3,-0.001613617,0.000600815,0.01096344,0,
00:08.3,-0.001613617,0.000600815,0.010951996,0,
00:08.3,-0.001607895,0.000600815,0.01096344,0,
00:08.3,-0.001607895,0.000606537,0.010969162,0,
00:08.3,-0.001607895,0.000606537,0.010951996,0,
00:08.3,-0.001613617,0.000595093,0.010974884,0,
00:08.3,-0.001613617,0.000595093,0.010969162,0,
00:08.3,-0.001613617,0.000595093,0.010969162,0,
00:08.3,-0.001619339,0.000595093,0.010957718,0,
00:08.3,-0.001607895,0.000600815,0.01096344,0,
00:08.3,-0.001602173,0.000600815,0.010951996,0,
00:08.3,-0.001613617,0.000595093,0.010951996,0,
00:08.3,-0.001602173,0.000600815,0.01096344,0,
00:08.3,-0.001602173,0.000606537,0.010946274,0,
00:08.3,-0.001596451,0.000600815,0.010951996,0,
00:08.3,-0.001613617,0.000600815,0.010957718,0,
00:08.3,-0.001607895,0.000600815,0.010969162,0,
00:08.3,-0.001613617,0.000600815,0.010974884,0,
00:08.3,-0.001613617,0.000595093,0.010957718,0,
00:08.3,-0.001613617,0.000600815,0.010957718,0,
00:08.3,-0.001613617,0.000600815,0.010951996,0,
00:08.3,-0.001613617,0.000600815,0.010946274,0,
00:08.3,-0.001607895,0.000595093,0.010946274,0,
00:08.3,-0.001613617,0.000595093,0.01096344,0,
00:08.4,-0.001613617,0.000600815,0.010951996,0,
00:08.4,-0.001613617,0.000595093,0.010957718,0,
00:08.4,-0.001613617,0.000600815,0.010951996,0,
00:08.4,-0.001602173,0.000600815,0.010951996,0,
00:08.4,-0.001607895,0.000595093,0.010957718,0,
00:08.4,-0.001607895,0.000600815,0.010951996,0,
00:08.4,-0.001607895,0.000600815,0.010946274,0,
00:08.4,-0.001613617,0.000600815,0.010957718,0,
00:08.4,-0.001613617,0.000600815,0.010957718,0,
00:08.4,-0.001607895,0.000595093,0.010951996,0,
00:08.4,-0.001607895,0.000600815,0.01093483,0,
00:08.4,-0.001607895,0.000600815,0.010923386,0,
00:08.4,-0.001602173,0.000600815,0.01096344,0,
00:08.4,-0.001613617,0.000600815,0.010951996,0,
00:08.4,-0.001613617,0.000600815,0.010957718,0,
00:08.4,-0.001619339,0.000600815,0.010946274,0,
00:08.4,-0.001619339,0.000595093,0.010951996,0,
00:08.4,-0.001607895,0.000595093,0.010946274,0,
00:08.4,-0.001613617,0.000600815,0.010946274,0,
00:08.4,-0.001613617,0.000600815,0.010940552,0,
00:08.4,-0.001602173,0.000595093,0.010951996,0,
00:08.4,-0.001607895,0.000600815,0.010940552,0,
00:08.4,-0.001607895,0.000600815,0.010946274,0,
00:08.4,-0.001613617,0.000600815,0.010946274,0,
00:08.4,-0.001607895,0.000606537,0.010951996,0,
00:08.5,-0.001613617,0.000595093,0.010946274,0,
00:08.5,-0.001613617,0.000595093,0.010951996,0,
00:08.5,-0.001607895,0.000600815,0.010940552,0,
00:08.5,-0.001607895,0.000606537,0.010940552,0,
00:08.5,-0.001619339,0.000600815,0.010946274,0,
00:08.5,-0.001607895,0.000600815,0.010946274,0,
00:08.5,-0.001602173,0.000600815,0.010940552,0,
00:08.5,-0.001602173,0.000600815,0.010940552,0,
00:08.5,-0.001613617,0.000600815,0.010951996,0,
00:08.5,-0.001613617,0.000600815,0.010951996,0,
00:08.5,-0.001613617,0.000595093,0.010946274,0,
00:08.5,-0.001613617,0.000600815,0.010946274,0,
00:08.5,-0.001613617,0.000600815,0.010946274,0,
00:08.5,-0.001602173,0.000600815,0.010946274,0,
00:08.5,-0.001602173,0.000600815,0.01093483,0,
00:08.5,-0.001619339,0.000600815,0.010940552,0,
00:08.5,-0.001602173,0.000595093,0.010940552,0,
00:08.5,-0.001607895,0.000595093,0.010929108,0,
00:08.5,-0.001607895,0.000595093,0.010957718,0,
00:08.5,-0.001607895,0.000600815,0.01096344,0,
00:08.5,-0.001607895,0.000600815,0.010946274,0,
00:08.5,-0.001607895,0.000600815,0.010946274,0,
00:08.5,-0.001607895,0.000600815,0.010940552,0,
00:08.5,-0.001613617,0.000600815,0.01093483,0,
00:08.5,-0.001619339,0.000595093,0.010946274,0,
00:08.6,-0.001613617,0.000595093,0.01093483,0,
00:08.6,-0.001607895,0.000595093,0.010957718,0,
00:08.6,-0.001607895,0.000606537,0.010951996,0,
00:08.6,-0.001607895,0.000600815,0.010946274,0,
00:08.6,-0.001607895,0.000600815,0.010940552,0,
00:08.6,-0.001613617,0.000600815,0.010951996,0,
00:08.6,-0.001607895,0.000595093,0.01093483,0,
00:08.6,-0.001613617,0.000600815,0.01093483,0,
00:08.6,-0.001619339,0.000595093,0.010951996,0,
00:08.6,-0.001613617,0.000600815,0.010946274,0,
00:08.6,-0.001607895,0.000600815,0.010940552,0,
00:08.6,-0.001613617,0.000600815,0.010940552,0,
00:08.6,-0.001602173,0.000600815,0.01093483,0,
00:08.6,-0.001607895,0.000600815,0.01093483,0,
00:08.6,-0.001613617,0.000595093,0.010951996,0,
00:08.6,-0.001619339,0.000600815,0.010940552,0,
00:08.6,-0.001613617,0.000600815,0.01093483,0,
00:08.6,-0.001602173,0.000595093,0.010940552,0,
00:08.6,-0.001602173,0.000600815,0.010940552,0,
00:08.6,-0.001607895,0.000600815,0.010946274,0,
00:08.6,-0.001607895,0.000595093,0.010951996,0,
00:08.6,-0.001607895,0.000600815,0.010940552,0,
00:08.6,-0.001613617,0.000595093,0.01093483,0,
00:08.6,-0.001602173,0.000606537,0.010946274,0,
00:08.6,-0.001607895,0.000600815,0.010940552,0,
00:08.7,-0.001607895,0.000606537,0.010929108,0,
00:08.7,-0.001607895,0.000600815,0.010929108,0,
00:08.7,-0.001613617,0.000600815,0.01093483,0,
00:08.7,-0.001613617,0.000600815,0.01093483,0,
00:08.7,-0.001613617,0.000600815,0.010946274,0,
00:08.7,-0.001607895,0.000600815,0.010940552,0,
00:08.7,-0.001613617,0.000600815,0.010940552,0,
00:08.7,-0.001613617,0.000600815,0.010929108,0,
00:08.7,-0.001613617,0.000595093,0.010929108,0,
00:08.7,-0.001619339,0.000600815,0.010929108,0,
00:08.7,-0.001613617,0.000600815,0.010940552,0,
00:08.7,-0.001607895,0.000606537,0.010946274,0,
00:08.7,-0.001613617,0.000600815,0.010929108,0,
00:08.7,-0.001607895,0.000600815,0.01093483,0,
00:08.7,-0.001607895,0.000600815,0.010940552,0,
00:08.7,-0.001619339,0.000600815,0.010929108,0,
00:08.7,-0.001613617,0.000595093,0.010917664,0,
00:08.7,-0.001602173,0.000600815,0.01093483,0,
00:08.7,-0.001607895,0.000600815,0.010929108,0,
00:08.7,-0.001607895,0.000600815,0.010929108,0,
00:08.7,-0.001607895,0.000600815,0.010929108,0,
00:08.7,-0.001613617,0.000595093,0.010929108,0,
00:08.7,-0.001613617,0.000595093,0.010929108,0,
00:08.7,-0.001613617,0.000606537,0.010923386,0,
00:08.7,-0.001613617,0.000606537,0.010923386,0,
00:08.8,-0.001613617,0.000595093,0.010929108,0,
00:08.8,-0.001613617,0.000600815,0.010917664,0,
00:08.8,-0.001613617,0.000600815,0.010923386,0,
00:08.8,-0.001607895,0.000606537,0.010906219,0,
00:08.8,-0.001607895,0.000600815,0.010923386,0,
00:08.8,-0.001607895,0.000595093,0.010946274,0,
00:08.8,-0.001613617,0.000595093,0.01093483,0,
00:08.8,-0.001613617,0.000600815,0.01093483,0,
00:08.8,-0.001619339,0.000595093,0.01093483,0,
00:08.8,-0.001607895,0.000600815,0.010923386,0,
00:08.8,-0.001619339,0.000600815,0.010923386,0,
00:08.8,-0.001607895,0.000600815,0.01093483,0,
00:08.8,-0.001607895,0.000600815,0.010917664,0,
00:08.8,-0.001607895,0.000600815,0.010923386,0,
00:08.8,-0.001613617,0.000600815,0.010917664,0,
00:08.8,-0.001613617,0.000600815,0.010929108,0,
00:08.8,-0.001613617,0.000600815,0.010923386,0,
00:08.8,-0.001613617,0.000600815,0.010923386,0,
00:08.8,-0.001607895,0.000600815,0.010917664,0,
00:08.8,-0.001607895,0.000606537,0.010923386,0,
00:08.8,-0.001613617,0.000600815,0.010911942,0,
00:08.8,-0.001613617,0.000600815,0.010917664,0,
00:08.8,-0.001613617,0.000600815,0.010917664,0,
00:08.8,-0.001613617,0.000600815,0.010900497,0,
00:08.8,-0.001607895,0.000600815,0.010911942,0,
00:08.9,-0.001607895,0.000600815,0.010923386,0,
00:08.9,-0.001613617,0.000606537,0.010906219,0,
00:08.9,-0.001596451,0.000606537,0.010911942,0,
00:08.9,-0.001607895,0.000600815,0.010917664,0,
00:08.9,-0.001613617,0.000600815,0.010911942,0,
00:08.9,-0.001607895,0.000606537,0.010923386,0,
00:08.9,-0.001602173,0.000600815,0.010923386,0,
00:08.9,-0.001607895,0.000600815,0.010929108,0,
00:08.9,-0.001613617,0.000600815,0.010917664,0,
00:08.9,-0.001619339,0.000595093,0.010911942,0,
00:08.9,-0.001607895,0.000606537,0.010911942,0,
00:08.9,-0.001607895,0.000600815,0.010911942,0,
00:08.9,-0.001602173,0.000606537,0.010917664,0,
00:08.9,-0.001607895,0.000600815,0.010917664,0,
00:08.9,-0.001607895,0.000600815,0.010911942,0,
00:08.9,-0.001607895,0.000600815,0.010923386,0,
00:08.9,-0.001607895,0.000600815,0.010917664,0,
00:08.9,-0.001607895,0.000600815,0.010911942,0,
00:08.9,-0.001613617,0.000600815,0.010906219,0,
00:08.9,-0.001613617,0.000600815,0.010911942,0,
00:08.9,-0.001602173,0.000600815,0.010917664,0,
00:08.9,-0.001602173,0.000600815,0.010923386,0,
00:08.9,-0.001613617,0.000595093,0.010917664,0,
00:08.9,-0.001613617,0.000606537,0.010929108,0,
00:08.9,-0.001602173,0.000600815,0.010917664,0,
00:09.0,-0.001607895,0.000600815,0.010911942,0,
00:09.0,-0.001607895,0.000600815,0.010917664,0,
00:09.0,-0.001602173,0.000600815,0.010911942,0,
00:09.0,-0.001607895,0.000606537,0.010911942,0,
00:09.0,-0.001607895,0.000606537,0.010906219,0,
00:09.0,-0.001607895,0.000600815,0.010911942,0,
00:09.0,-0.001613617,0.000600815,0.010911942,0,
00:09.0,-0.001607895,0.000600815,0.010911942,0,
00:09.0,-0.001607895,0.000606537,0.010894775,0,
00:09.0,-0.001607895,0.000606537,0.010923386,0,
00:09.0,-0.001607895,0.000606537,0.010923386,0,
00:09.0,-0.001602173,0.000606537,0.010911942,0,
00:00:09,-0.001613617,0.000600815,0.010894775,0,
00:09.0,-0.001607895,0.000606537,0.010917664,0,
00:09.0,-0.001607895,0.000600815,0.010906219,0,
00:09.0,-0.001613617,0.000600815,0.010911942,0,
00:09.0,-0.001607895,0.000600815,0.010923386,0,
00:09.0,-0.001613617,0.000595093,0.010917664,0,
00:09.0,-0.001613617,0.000595093,0.010917664,0,
00:09.0,-0.001613617,0.000600815,0.010917664,0,
00:09.0,-0.001619339,0.000600815,0.010911942,0,
00:09.0,-0.001613617,0.000600815,0.010911942,0,
00:09.0,-0.001607895,0.000606537,0.010917664,0,
00:09.0,-0.001607895,0.000606537,0.010900497,0,
00:09.0,-0.001619339,0.000600815,0.010900497,0,
00:09.1,-0.001602173,0.000600815,0.010917664,0,
00:09.1,-0.001607895,0.000600815,0.010911942,0,
00:09.1,-0.001607895,0.000600815,0.010911942,0,
00:09.1,-0.001602173,0.000606537,0.010911942,0,
00:09.1,-0.001602173,0.000606537,0.010906219,0,
00:09.1,-0.001607895,0.000595093,0.010889053,0,
00:09.1,-0.001613617,0.000606537,0.010883331,0,
00:09.1,-0.001613617,0.000600815,0.010917664,0,
00:09.1,-0.001602173,0.000606537,0.010894775,0,
00:09.1,-0.001607895,0.000600815,0.010917664,0,
00:09.1,-0.001613617,0.000595093,0.010917664,0,
00:09.1,-0.001613617,0.000600815,0.010917664,0,
00:09.1,-0.001607895,0.000600815,0.010917664,0,
00:09.1,-0.001613617,0.000600815,0.010900497,0,
00:09.1,-0.001607895,0.000600815,0.010906219,0,
00:09.1,-0.001607895,0.000600815,0.010917664,0,
00:09.1,-0.001607895,0.000600815,0.010911942,0,
00:09.1,-0.001613617,0.000600815,0.010906219,0,
00:09.1,-0.001613617,0.000600815,0.010906219,0,
00:09.1,-0.001607895,0.000600815,0.010906219,0,
00:09.1,-0.001613617,0.000600815,0.010900497,0,
00:09.1,-0.001602173,0.000600815,0.010900497,0,
00:09.1,-0.001613617,0.000606537,0.010900497,0,
00:09.1,-0.001613617,0.000600815,0.010894775,0,
00:09.1,-0.001607895,0.000595093,0.010900497,0,
00:09.2,-0.001602173,0.000600815,0.010894775,0,
00:09.2,-0.001607895,0.000600815,0.010906219,0,
00:09.2,-0.001607895,0.000600815,0.010917664,0,
00:09.2,-0.001602173,0.000612259,0.010894775,0,
00:09.2,-0.001607895,0.000606537,0.010906219,0,
00:09.2,-0.001613617,0.000595093,0.010911942,0,
00:09.2,-0.001607895,0.000595093,0.010906219,0,
00:09.2,-0.001607895,0.000600815,0.010906219,0,
00:09.2,-0.001607895,0.000600815,0.010917664,0,
00:09.2,-0.001602173,0.000600815,0.010906219,0,
00:09.2,-0.001607895,0.000606537,0.010894775,0,
00:09.2,-0.001607895,0.000600815,0.010900497,0,
00:09.2,-0.001607895,0.000600815,0.010906219,0,
00:09.2,-0.001613617,0.000600815,0.010906219,0,
00:09.2,-0.001613617,0.000600815,0.010900497,0,
00:09.2,-0.001613617,0.000600815,0.010900497,0,
00:09.2,-0.001607895,0.000600815,0.010906219,0,
00:09.2,-0.001602173,0.000606537,0.010900497,0,
00:09.2,-0.001613617,0.000600815,0.010894775,0,
00:09.2,-0.001619339,0.000595093,0.010900497,0,
00:09.2,-0.001613617,0.000600815,0.010889053,0,
00:09.2,-0.001596451,0.000600815,0.010900497,0,
00:09.2,-0.001602173,0.000606537,0.010906219,0,
00:09.2,-0.001613617,0.000600815,0.010911942,0,
00:09.2,-0.001596451,0.000606537,0.010894775,0,
00:09.3,-0.001596451,0.000600815,0.010900497,0,
00:09.3,-0.001619339,0.000595093,0.010911942,0,
00:09.3,-0.001607895,0.000600815,0.010900497,0,
00:09.3,-0.001607895,0.000600815,0.010883331,0,
00:09.3,-0.001613617,0.000600815,0.010906219,0,
00:09.3,-0.001607895,0.000606537,0.010906219,0,
00:09.3,-0.001613617,0.000606537,0.010900497,0,
00:09.3,-0.001607895,0.000606537,0.010894775,0,
00:09.3,-0.001607895,0.000606537,0.010894775,0,
00:09.3,-0.001607895,0.000612259,0.010900497,0,
00:09.3,-0.001607895,0.000606537,0.010906219,0,
00:09.3,-0.001613617,0.000600815,0.010900497,0,
00:09.3,-0.001607895,0.000600815,0.010900497,0,
00:09.3,-0.001607895,0.000600815,0.010894775,0,
00:09.3,-0.001607895,0.000606537,0.010894775,0,
00:09.3,-0.001607895,0.000600815,0.010883331,0,
00:09.3,-0.001613617,0.000606537,0.010900497,0,
00:09.3,-0.001607895,0.000606537,0.010906219,0,
00:09.3,-0.001607895,0.000606537,0.010894775,0,
00:09.3,-0.001613617,0.000600815,0.010894775,0,
00:09.3,-0.001619339,0.000606537,0.010889053,0,
00:09.3,-0.001607895,0.000606537,0.010883331,0,
00:09.3,-0.001596451,0.000606537,0.010883331,0,
00:09.3,-0.001602173,0.000606537,0.010906219,0,
00:09.3,-0.001607895,0.000606537,0.010900497,0,
00:09.4,-0.001602173,0.000606537,0.010883331,0,
00:09.4,-0.001607895,0.000600815,0.010877609,0,
00:09.4,-0.001619339,0.000606537,0.010889053,0,
00:09.4,-0.001607895,0.000612259,0.010900497,0,
00:09.4,-0.001607895,0.000606537,0.010894775,0,
00:09.4,-0.001619339,0.000600815,0.010883331,0,
00:09.4,-0.001602173,0.000600815,0.010900497,0,
00:09.4,-0.001602173,0.000600815,0.010906219,0,
00:09.4,-0.001613617,0.000600815,0.010900497,0,
00:09.4,-0.001607895,0.000600815,0.010889053,0,
00:09.4,-0.001607895,0.000600815,0.010883331,0,
00:09.4,-0.001607895,0.000600815,0.010889053,0,
00:09.4,-0.001607895,0.000606537,0.010889053,0,
00:09.4,-0.001607895,0.000600815,0.010883331,0,
00:09.4,-0.001607895,0.000606537,0.010889053,0,
00:09.4,-0.001607895,0.000606537,0.010894775,0,
00:09.4,-0.001607895,0.000606537,0.010883331,0,
00:09.4,-0.001613617,0.000606537,0.010877609,0,
00:09.4,-0.001607895,0.000606537,0.010889053,0,
00:09.4,-0.001613617,0.000600815,0.010894775,0,
00:09.4,-0.001619339,0.000606537,0.010889053,0,
00:09.4,-0.001607895,0.000600815,0.010889053,0,
00:09.4,-0.001607895,0.000600815,0.010889053,0,
00:09.4,-0.001607895,0.000606537,0.010883331,0,
00:09.4,-0.001607895,0.000600815,0.010894775,0,
00:09.5,-0.001613617,0.000600815,0.010889053,0,
00:09.5,-0.001607895,0.000600815,0.010889053,0,
00:09.5,-0.001607895,0.000600815,0.010883331,0,
00:09.5,-0.001607895,0.000600815,0.010900497,0,
00:09.5,-0.001602173,0.000606537,0.010889053,0,
00:09.5,-0.001607895,0.000606537,0.010883331,0,
00:09.5,-0.001613617,0.000606537,0.010883331,0,
00:09.5,-0.001607895,0.000606537,0.010866165,0,
00:09.5,-0.001607895,0.000600815,0.010900497,0,
00:09.5,-0.001613617,0.000600815,0.010889053,0,
00:09.5,-0.001602173,0.000612259,0.010883331,0,
00:09.5,-0.001613617,0.000606537,0.010889053,0,
00:09.5,-0.001619339,0.000600815,0.010883331,0,
00:09.5,-0.001613617,0.000606537,0.010889053,0,
00:09.5,-0.001607895,0.000606537,0.010889053,0,
00:09.5,-0.001607895,0.000606537,0.010883331,0,
00:09.5,-0.001607895,0.000612259,0.010871887,0,
00:09.5,-0.001619339,0.000606537,0.010866165,0,
00:09.5,-0.001607895,0.000606537,0.010883331,0,
00:09.5,-0.001607895,0.000600815,0.010883331,0,
00:09.5,-0.001607895,0.000606537,0.010883331,0,
00:09.5,-0.001607895,0.000606537,0.010889053,0,
00:09.5,-0.001607895,0.000606537,0.010871887,0,
00:09.5,-0.001607895,0.000612259,0.010883331,0,
00:09.5,-0.001607895,0.000606537,0.010883331,0,
00:09.6,-0.001607895,0.000606537,0.010871887,0,
00:09.6,-0.001607895,0.000606537,0.010883331,0,
00:09.6,-0.001607895,0.000606537,0.010877609,0,
00:09.6,-0.001607895,0.000606537,0.010877609,0,
00:09.6,-0.001613617,0.000606537,0.010883331,0,
00:09.6,-0.001613617,0.000600815,0.010889053,0,
00:09.6,-0.001607895,0.000606537,0.010889053,0,
00:09.6,-0.001607895,0.000606537,0.010883331,0,
00:09.6,-0.001607895,0.000612259,0.010877609,0,
00:09.6,-0.001602173,0.000612259,0.010877609,0,
00:09.6,-0.001607895,0.000606537,0.010871887,0,
00:09.6,-0.001619339,0.000606537,0.010860443,0,
00:09.6,-0.001613617,0.000606537,0.010860443,0,
00:09.6,-0.001607895,0.000600815,0.010883331,0,
00:09.6,-0.001607895,0.000606537,0.010889053,0,
00:09.6,-0.001602173,0.000606537,0.010883331,0,
00:09.6,-0.001602173,0.000606537,0.010883331,0,
00:09.6,-0.001607895,0.000606537,0.010877609,0,
00:09.6,-0.001607895,0.000606537,0.010866165,0,
00:09.6,-0.001602173,0.000606537,0.010877609,0,
00:09.6,-0.001607895,0.000606537,0.010860443,0,
00:09.6,-0.001607895,0.000600815,0.010871887,0,
00:09.6,-0.001607895,0.000600815,0.010877609,0,
00:09.6,-0.001607895,0.000606537,0.010889053,0,
00:09.6,-0.001607895,0.000606537,0.010889053,0,
00:09.7,-0.001607895,0.000600815,0.010877609,0,
00:09.7,-0.001613617,0.000606537,0.010883331,0,
00:09.7,-0.001613617,0.000612259,0.010883331,0,
00:09.7,-0.001602173,0.000612259,0.010883331,0,
00:09.7,-0.001607895,0.000612259,0.010877609,0,
00:09.7,-0.001602173,0.000606537,0.010866165,0,
00:09.7,-0.001619339,0.000600815,0.010871887,0,
00:09.7,-0.001607895,0.000606537,0.010877609,0,
00:09.7,-0.001602173,0.000612259,0.010877609,0,
00:09.7,-0.001607895,0.000606537,0.010877609,0,
00:09.7,-0.001607895,0.000606537,0.010871887,0,
00:09.7,-0.001602173,0.000612259,0.010860443,0,
00:09.7,-0.001602173,0.000612259,0.010877609,0,
00:09.7,-0.001602173,0.000612259,0.010860443,0,
00:09.7,-0.001607895,0.000606537,0.010871887,0,
00:09.7,-0.001607895,0.000612259,0.010877609,0,
00:09.7,-0.001607895,0.000617981,0.010871887,0,
00:09.7,-0.001619339,0.000612259,0.010866165,0,
00:09.7,-0.001602173,0.000612259,0.010889053,0,
00:09.7,-0.001602173,0.000612259,0.010877609,0,
00:09.7,-0.001607895,0.000612259,0.010883331,0,
00:09.7,-0.001607895,0.000612259,0.010883331,0,
00:09.7,-0.001607895,0.000617981,0.010877609,0,
00:09.7,-0.001607895,0.000617981,0.010871887,0,
00:09.7,-0.001613617,0.000612259,0.010877609,0,
00:09.8,-0.001619339,0.000617981,0.010877609,0,
00:09.8,-0.001607895,0.000617981,0.010866165,0,
00:09.8,-0.001607895,0.000612259,0.010866165,0,
00:09.8,-0.001602173,0.000612259,0.010860443,0,
00:09.8,-0.001607895,0.000612259,0.010871887,0,
00:09.8,-0.001607895,0.000612259,0.010877609,0,
00:09.8,-0.001602173,0.000617981,0.010871887,0,
00:09.8,-0.001607895,0.000612259,0.010883331,0,
00:09.8,-0.001602173,0.000617981,0.010877609,0,
00:09.8,-0.001596451,0.000617981,0.010860443,0,
00:09.8,-0.001607895,0.000617981,0.010843277,0,
00:09.8,-0.001607895,0.000617981,0.010877609,0,
00:09.8,-0.001613617,0.000612259,0.010889053,0,
00:09.8,-0.001607895,0.000617981,0.010883331,0,
00:09.8,-0.001607895,0.000617981,0.010860443,0,
00:09.8,-0.001607895,0.000617981,0.010871887,0,
00:09.8,-0.001607895,0.000612259,0.010877609,0,
00:09.8,-0.001607895,0.000612259,0.010877609,0,
00:09.8,-0.001613617,0.000612259,0.010871887,0,
00:09.8,-0.001613617,0.000612259,0.010871887,0,
00:09.8,-0.001613617,0.000612259,0.010866165,0,
00:09.8,-0.001607895,0.000617981,0.010877609,0,
00:09.8,-0.001619339,0.000612259,0.010871887,0,
00:09.8,-0.001602173,0.000612259,0.010860443,0,
00:09.8,-0.001596451,0.000617981,0.010866165,0,
00:09.9,-0.001602173,0.000617981,0.010860443,0,
00:09.9,-0.001607895,0.000617981,0.010866165,0,
00:09.9,-0.001607895,0.000612259,0.010877609,0,
00:09.9,-0.001602173,0.000617981,0.010866165,0,
00:09.9,-0.001613617,0.000612259,0.010860443,0,
00:09.9,-0.001607895,0.000612259,0.010871887,0,
00:09.9,-0.001607895,0.000612259,0.010877609,0,
00:09.9,-0.001607895,0.000612259,0.010871887,0,
00:09.9,-0.001602173,0.000612259,0.010860443,0,
00:09.9,-0.001613617,0.000606537,0.010860443,0,
00:09.9,-0.001619339,0.000612259,0.010871887,0,
00:09.9,-0.001613617,0.000617981,0.010866165,0,
00:09.9,-0.001613617,0.000612259,0.010877609,0,
00:09.9,-0.001607895,0.000617981,0.010877609,0,
00:09.9,-0.001607895,0.000623703,0.010866165,0,
00:09.9,-0.001607895,0.000617981,0.010854721,0,
00:09.9,-0.001607895,0.000617981,0.010866165,0,
00:09.9,-0.001607895,0.000612259,0.010866165,0,
00:09.9,-0.001607895,0.000617981,0.010866165,0,
00:09.9,-0.001613617,0.000623703,0.010860443,0,
00:09.9,-0.001607895,0.000617981,0.010860443,0,
00:09.9,-0.001607895,0.000617981,0.010866165,0,
00:09.9,-0.001607895,0.000623703,0.010866165,0,
00:09.9,-0.001602173,0.000617981,0.010866165,0,
00:09.9,-0.001602173,0.000617981,0.010866165,0,
00:10.0,-0.001607895,0.000617981,0.010866165,0,
00:10.0,-0.001607895,0.000617981,0.010860443,0,
00:10.0,-0.001607895,0.000617981,0.010843277,0,
00:10.0,-0.001607895,0.000617981,0.010854721,0,
00:10.0,-0.001602173,0.000617981,0.010860443,0,
00:10.0,-0.001613617,0.000612259,0.010854721,0,
00:10.0,-0.001613617,0.000617981,0.010860443,0,
00:10.0,-0.001613617,0.000617981,0.010843277,0,
00:10.0,-0.001619339,0.000617981,0.010831833,0,
00:10.0,-0.001607895,0.000612259,0.010831833,0,
00:10.0,-0.001613617,0.000617981,0.010814667,0,
00:10.0,-0.001613617,0.000617981,0.010831833,0,
00:00:10,-0.001607895,0.000623703,0.010831833,0,
00:10.0,-0.001607895,0.000617981,0.010820389,0,
00:10.0,-0.001607895,0.000617981,0.010820389,0,
00:10.0,-0.001602173,0.000623703,0.010814667,0,
00:10.0,-0.001607895,0.000617981,0.010808945,0,
00:10.0,-0.001607895,0.000617981,0.010820389,0,
00:10.0,-0.001607895,0.000623703,0.010831833,0,
00:10.0,-0.001613617,0.000617981,0.010831833,0,
00:10.0,-0.001613617,0.000617981,0.010826111,0,
00:10.0,-0.001607895,0.000623703,0.010814667,0,
00:10.0,-0.001613617,0.000617981,0.010814667,0,
00:10.0,-0.001613617,0.000617981,0.010820389,0,
