Elapsed_Time,EMG1,EMG2,EMG3,BioRadio Event,Unnamed: 5
00:00:00,-0.001722336,0.000102997,0.008663177,0,
00:00.0,-0.001693726,0.000165939,0.008663177,0,
00:00.0,-0.001722336,7.44E-05,0.008663177,0,
00:00.0,-0.001739502,1.72E-05,0.0086689,0,
00:00.0,-0.001728058,7.44E-05,0.008657455,0,
00:00.0,-0.001722336,0.000125885,0.008623123,0,
00:00.0,-0.001716614,0.000143051,0.008646011,0,
00:00.0,-0.001716614,0.000114441,0.008674622,0,
00:00.0,-0.001722336,0.000114441,0.008663177,0,
00:00.0,-0.001722336,9.73E-05,0.008646011,0,
00:00.0,-0.001699448,0.000131607,0.008634567,0,
00:00.0,-0.001699448,0.000137329,0.008634567,0,
00:00.0,-0.001722336,8.01E-05,0.008646011,0,
00:00.1,-0.001728058,6.29E-05,0.008657455,0,
00:00.1,-0.001716614,8.01E-05,0.008646011,0,
00:00.1,-0.001716614,9.73E-05,0.008646011,0,
00:00.1,-0.001722336,0.000114441,0.008651733,0,
00:00.1,-0.001716614,0.000137329,0.008640289,0,
00:00.1,-0.00170517,0.000160217,0.008651733,0,
00:00.1,-0.001716614,0.000102997,0.008646011,0,
00:00.1,-0.001699448,0.000137329,0.008628845,0,
00:00.1,-0.001688004,0.000160217,0.008634567,0,
00:00.1,-0.001722336,0.000102997,0.008617401,0,
00:00.1,-0.001745224,5.72E-05,0.008646011,0,
00:00.1,-0.001722336,8.01E-05,0.008651733,0,
00:00.1,-0.001722336,0.000102997,0.008634567,0,
00:00.1,-0.001716614,0.000108719,0.008623123,0,
00:00.1,-0.001716614,0.000108719,0.008628845,0,
00:00.1,-0.001722336,0.000102997,0.008651733,0,
00:00.1,-0.001722336,9.73E-05,0.008663177,0,
00:00.1,-0.001722336,8.01E-05,0.008640289,0,
00:00.1,-0.00173378,4.58E-05,0.008640289,0,
00:00.1,-0.001722336,7.44E-05,0.008640289,0,
00:00.1,-0.00170517,0.000108719,0.008623123,0,
00:00.1,-0.00170517,9.16E-05,0.008623123,0,
00:00.1,-0.00170517,0.000102997,0.008640289,0,
00:00.1,-0.001716614,0.000114441,0.008640289,0,
00:00.1,-0.001716614,0.000137329,0.008617401,0,
00:00.2,-0.001722336,0.000108719,0.008628845,0,
00:00.2,-0.001716614,0.000114441,0.008651733,0,
00:00.2,-0.001716614,0.000102997,0.008623123,0,
00:00.2,-0.001722336,8.58E-05,0.008634567,0,
00:00.2,-0.001716614,7.44E-05,0.008646011,0,
00:00.2,-0.001716614,9.16E-05,0.008634567,0,
00:00.2,-0.001716614,0.000108719,0.008623123,0,
00:00.2,-0.001728058,9.16E-05,0.008611679,0,
00:00.2,-0.001716614,0.000114441,0.008628845,0,
00:00.2,-0.00170517,0.000125885,0.008634567,0,
00:00.2,-0.00170517,0.000125885,0.008628845,0,
00:00.2,-0.001716614,9.16E-05,0.008623123,0,
00:00.2,-0.001728058,8.01E-05,0.008623123,0,
00:00.2,-0.001722336,7.44E-05,0.008623123,0,
00:00.2,-0.001710892,8.01E-05,0.008617401,0,
00:00.2,-0.001716614,8.58E-05,0.008623123,0,
00:00.2,-0.001728058,9.73E-05,0.008623123,0,
00:00.2,-0.001710892,0.000131607,0.008611679,0,
00:00.2,-0.00170517,0.000114441,0.008634567,0,
00:00.2,-0.001693726,0.000137329,0.008634567,0,
00:00.2,-0.001722336,9.16E-05,0.008623123,0,
00:00.2,-0.001739502,4.58E-05,0.008623123,0,
00:00.2,-0.001722336,7.44E-05,0.008634567,0,
00:00.2,-0.001710892,9.16E-05,0.008628845,0,
00:00.2,-0.00170517,0.000108719,0.008623123,0,
00:00.3,-0.00170517,0.000108719,0.008623123,0,
00:00.3,-0.00170517,7.44E-05,0.008628845,0,
00:00.3,-0.00173378,3.43E-05,0.008605957,0,
00:00.3,-0.001739502,3.43E-05,0.008605957,0,
00:00.3,-0.001728058,4.58E-05,0.008617401,0,
00:00.3,-0.001716614,6.29E-05,0.008623123,0,
00:00.3,-0.001710892,8.58E-05,0.008634567,0,
00:00.3,-0.001710892,0.000120163,0.008617401,0,
00:00.3,-0.001716614,0.000114441,0.008571625,0,
00:00.3,-0.001716614,9.73E-05,0.008571625,0,
00:00.3,-0.001716614,0.000114441,0.008634567,0,
00:00.3,-0.001716614,0.000114441,0.008640289,0,
00:00.3,-0.001716614,0.000108719,0.008611679,0,
00:00.3,-0.001722336,8.01E-05,0.008617401,0,
00:00.3,-0.001716614,9.16E-05,0.008623123,0,
00:00.3,-0.001728058,7.44E-05,0.008605957,0,
00:00.3,-0.00170517,9.73E-05,0.008600235,0,
00:00.3,-0.00170517,8.58E-05,0.008594513,0,
00:00.3,-0.001716614,0.000108719,0.008617401,0,
00:00.3,-0.001722336,0.000114441,0.008605957,0,
00:00.3,-0.001716614,0.000108719,0.008600235,0,
00:00.3,-0.001716614,7.44E-05,0.008600235,0,
00:00.3,-0.001722336,3.43E-05,0.008617401,0,
00:00.3,-0.00170517,8.01E-05,0.008605957,0,
00:00.3,-0.001716614,4.01E-05,0.008594513,0,
00:00.4,-0.001728058,2.29E-05,0.008594513,0,
00:00.4,-0.001722336,8.58E-05,0.008600235,0,
00:00.4,-0.00173378,4.58E-05,0.008594513,0,
00:00.4,-0.001716614,6.87E-05,0.008600235,0,
00:00.4,-0.001716614,9.73E-05,0.008605957,0,
00:00.4,-0.001756668,5.72E-05,0.008588791,0,
00:00.4,-0.001745224,0.000108719,0.008600235,0,
00:00.4,-0.001710892,0.000137329,0.008605957,0,
00:00.4,-0.001688004,0.000160217,0.008605957,0,
00:00.4,-0.001699448,0.000137329,0.008588791,0,
00:00.4,-0.001710892,9.73E-05,0.008594513,0,
00:00.4,-0.001722336,6.87E-05,0.008583069,0,
00:00.4,-0.001728058,4.58E-05,0.008588791,0,
00:00.4,-0.001722336,6.87E-05,0.008594513,0,
00:00.4,-0.001716614,9.16E-05,0.008583069,0,
00:00.4,-0.001710892,0.000114441,0.008588791,0,
00:00.4,-0.001682281,0.000160217,0.008577347,0,
00:00.4,-0.001710892,0.000102997,0.008571625,0,
00:00.4,-0.001739502,4.58E-05,0.008571625,0,
00:00.4,-0.00173378,4.58E-05,0.008577347,0,
00:00.4,-0.001722336,3.43E-05,0.008594513,0,
00:00.4,-0.001750946,0,0.008571625,0,
00:00.4,-0.00176239,0,0.008565903,0,
00:00.4,-0.001739502,6.29E-05,0.008594513,0,
00:00.4,-0.001688004,0.000154495,0.008594513,0,
00:00.5,-0.001699448,0.000108719,0.008571625,0,
00:00.5,-0.001716614,7.44E-05,0.008588791,0,
00:00.5,-0.001716614,8.58E-05,0.008588791,0,
00:00.5,-0.001722336,7.44E-05,0.008583069,0,
00:00.5,-0.001722336,9.16E-05,0.008577347,0,
00:00.5,-0.00170517,0.000148773,0.008577347,0,
00:00.5,-0.001682281,0.000160217,0.008560181,0,
00:00.5,-0.001722336,6.29E-05,0.008565903,0,
00:00.5,-0.001739502,5.72E-05,0.008554459,0,
00:00.5,-0.001722336,8.01E-05,0.008571625,0,
00:00.5,-0.001728058,6.29E-05,0.008571625,0,
00:00.5,-0.001728058,0.000125885,0.008560181,0,
00:00.5,-0.00173378,0.000120163,0.008565903,0,
00:00.5,-0.001756668,1.72E-05,0.008571625,0,
00:00.5,-0.001756668,-3.43E-05,0.008525848,0,
00:00.5,-0.00173378,5.72E-06,0.008577347,0,
00:00.5,-0.001739502,8.01E-05,0.008588791,0,
00:00.5,-0.001716614,0.000102997,0.008583069,0,
00:00.5,-0.001699448,0.000143051,0.008571625,0,
00:00.5,-0.001699448,0.000154495,0.008571625,0,
00:00.5,-0.001699448,0.000143051,0.008571625,0,
00:00.5,-0.001722336,6.29E-05,0.008565903,0,
00:00.5,-0.001722336,6.87E-05,0.008554459,0,
00:00.5,-0.001722336,5.15E-05,0.008565903,0,
00:00.5,-0.001722336,2.86E-05,0.008565903,0,
00:00.6,-0.001722336,1.14E-05,0.008571625,0,
00:00.6,-0.001728058,6.87E-05,0.008577347,0,
00:00.6,-0.00170517,0.000143051,0.008560181,0,
00:00.6,-0.001693726,0.000137329,0.008543015,0,
00:00.6,-0.001728058,4.01E-05,0.008548737,0,
00:00.6,-0.001750946,3.43E-05,0.008577347,0,
00:00.6,-0.001756668,4.58E-05,0.008571625,0,
00:00.6,-0.001722336,6.29E-05,0.008560181,0,
00:00.6,-0.001722336,5.15E-05,0.008571625,0,
00:00.6,-0.00173378,-1.14E-05,0.008577347,0,
00:00.6,-0.001722336,-2.29E-05,0.008577347,0,
00:00.6,-0.001699448,7.44E-05,0.008571625,0,
00:00.6,-0.001710892,0.000131607,0.008560181,0,
00:00.6,-0.00170517,0.000125885,0.008560181,0,
00:00.6,-0.001710892,9.73E-05,0.008554459,0,
00:00.6,-0.001710892,7.44E-05,0.008560181,0,
00:00.6,-0.001728058,5.72E-05,0.008565903,0,
00:00.6,-0.001716614,8.01E-05,0.008577347,0,
00:00.6,-0.001710892,6.29E-05,0.008565903,0,
00:00.6,-0.00173378,2.29E-05,0.008560181,0,
00:00.6,-0.001745224,2.29E-05,0.008565903,0,
00:00.6,-0.001750946,6.29E-05,0.008571625,0,
00:00.6,-0.001716614,0.000125885,0.008560181,0,
00:00.6,-0.001699448,0.000114441,0.008571625,0,
00:00.6,-0.001699448,0.000102997,0.008577347,0,
00:00.7,-0.00170517,9.16E-05,0.008554459,0,
00:00.7,-0.00170517,8.58E-05,0.008543015,0,
00:00.7,-0.001750946,4.01E-05,0.008543015,0,
00:00.7,-0.001768112,3.43E-05,0.008548737,0,
00:00.7,-0.00170517,7.44E-05,0.008571625,0,
00:00.7,-0.00170517,1.72E-05,0.008565903,0,
00:00.7,-0.00173378,-2.29E-05,0.008565903,0,
00:00.7,-0.00173378,5.72E-05,0.008560181,0,
00:00.7,-0.00173378,0.000102997,0.008560181,0,
00:00.7,-0.001699448,0.000131607,0.008554459,0,
00:00.7,-0.001716614,7.44E-05,0.008565903,0,
00:00.7,-0.001728058,2.86E-05,0.008560181,0,
00:00.7,-0.001716614,5.15E-05,0.008543015,0,
00:00.7,-0.00170517,7.44E-05,0.008537292,0,
00:00.7,-0.001699448,0.000125885,0.008554459,0,
00:00.7,-0.001716614,8.58E-05,0.008548737,0,
00:00.7,-0.001728058,6.87E-05,0.008571625,0,
00:00.7,-0.001722336,8.58E-05,0.008560181,0,
00:00.7,-0.001716614,5.72E-05,0.008560181,0,
00:00.7,-0.001716614,2.86E-05,0.008548737,0,
00:00.7,-0.001722336,4.01E-05,0.008548737,0,
00:00.7,-0.001728058,5.72E-05,0.008577347,0,
00:00.7,-0.001722336,5.15E-05,0.008571625,0,
00:00.7,-0.001728058,4.58E-05,0.008543015,0,
00:00.7,-0.00173378,5.15E-05,0.008554459,0,
00:00.8,-0.001728058,6.29E-05,0.008554459,0,
00:00.8,-0.001722336,7.44E-05,0.008554459,0,
00:00.8,-0.00176239,6.29E-05,0.008548737,0,
00:00.8,-0.001750946,5.72E-05,0.008548737,0,
00:00.8,-0.001728058,2.86E-05,0.008565903,0,
00:00.8,-0.001716614,1.14E-05,0.008554459,0,
00:00.8,-0.00170517,4.58E-05,0.008537292,0,
00:00.8,-0.00170517,6.87E-05,0.008548737,0,
00:00.8,-0.001710892,9.16E-05,0.008560181,0,
00:00.8,-0.001710892,0.000102997,0.008543015,0,
00:00.8,-0.001716614,0.000114441,0.008525848,0,
00:00.8,-0.00173378,6.87E-05,0.00853157,0,
00:00.8,-0.00173378,2.86E-05,0.008588791,0,
00:00.8,-0.001722336,0,0.008571625,0,
00:00.8,-0.001728058,2.29E-05,0.008548737,0,
00:00.8,-0.001739502,5.15E-05,0.008525848,0,
00:00.8,-0.001745224,5.15E-05,0.008554459,0,
00:00.8,-0.001745224,1.72E-05,0.008548737,0,
00:00.8,-0.001750946,4.58E-05,0.008560181,0,
00:00.8,-0.001716614,0.000102997,0.008565903,0,
00:00.8,-0.001665115,0.000125885,0.008554459,0,
00:00.8,-0.001739502,-1.14E-05,0.008520126,0,
00:00.8,-0.001796722,-3.43E-05,0.008537292,0,
00:00.8,-0.00176239,-1.72E-05,0.008560181,0,
00:00.8,-0.001665115,0.000102997,0.008554459,0,
00:00.9,-0.001693726,9.73E-05,0.008537292,0,
00:00.9,-0.001728058,7.44E-05,0.008548737,0,
00:00.9,-0.001710892,6.29E-05,0.008548737,0,
00:00.9,-0.00170517,7.44E-05,0.008548737,0,
00:00.9,-0.001728058,5.72E-05,0.008537292,0,
00:00.9,-0.001756668,6.29E-05,0.008537292,0,
00:00.9,-0.001728058,8.01E-05,0.008520126,0,
00:00.9,-0.001670837,4.58E-05,0.008548737,0,
00:00.9,-0.001716614,-6.87E-05,0.008565903,0,
00:00.9,-0.001745224,-5.15E-05,0.008554459,0,
00:00.9,-0.001739502,1.14E-05,0.008548737,0,
00:00.9,-0.001739502,5.72E-05,0.008537292,0,
00:00.9,-0.001716614,9.73E-05,0.008525848,0,
00:00.9,-0.001688004,0.000114441,0.008543015,0,
00:00.9,-0.001722336,4.01E-05,0.008537292,0,
00:00.9,-0.001779556,-5.72E-05,0.008514404,0,
00:00.9,-0.00173378,5.72E-06,0.008565903,0,
00:00.9,-0.001682281,0.000120163,0.008560181,0,
00:00.9,-0.001716614,6.87E-05,0.008514404,0,
00:00.9,-0.00173378,1.14E-05,0.008565903,0,
00:00.9,-0.00173378,2.86E-05,0.008520126,0,
00:00.9,-0.001728058,3.43E-05,0.008560181,0,
00:00.9,-0.001710892,-5.72E-06,0.008594513,0,
00:00.9,-0.001699448,-1.72E-05,0.008560181,0,
00:00.9,-0.001728058,1.72E-05,0.008525848,0,
00:01.0,-0.001722336,9.73E-05,0.008543015,0,
00:01.0,-0.001773834,-7.44E-05,0.008554459,0,
00:01.0,-0.001750946,-6.29E-05,0.008514404,0,
00:01.0,-0.001716614,9.73E-05,0.008543015,0,
00:01.0,-0.001676559,0.000183105,0.008565903,0,
00:01.0,-0.001688004,9.16E-05,0.008537292,0,
00:01.0,-0.001716614,-5.72E-05,0.008554459,0,
00:01.0,-0.001750946,-0.000137329,0.008525848,0,
00:01.0,-0.001750946,-9.73E-05,0.008514404,0,
00:01.0,-0.001739502,-4.01E-05,0.008554459,0,
00:01.0,-0.001710892,-2.29E-05,0.008548737,0,
00:01.0,-0.001750946,-0.000125885,0.008508682,0,
00:00:01,-0.00176239,-0.000160217,0.008537292,0,
00:01.0,-0.001722336,-5.72E-06,0.008560181,0,
00:01.0,-0.001728058,6.87E-05,0.008514404,0,
00:01.0,-0.001728058,0.000102997,0.008508682,0,
00:01.0,-0.001710892,0.000160217,0.00850296,0,
00:01.0,-0.001693726,5.72E-05,0.008468628,0,
00:01.0,-0.00170517,8.58E-05,0.00850296,0,
00:01.0,-0.001728058,0.000160217,0.00847435,0,
00:01.0,-0.001716614,0.000120163,0.008457184,0,
00:01.0,-0.00170517,4.01E-05,0.008457184,0,
00:01.0,-0.001722336,-5.15E-05,0.008457184,0,
00:01.0,-0.001745224,-0.000102997,0.008405685,0,
00:01.0,-0.001750946,-2.86E-05,0.008428574,0,
00:01.1,-0.001779556,4.01E-05,0.008377075,0,
00:01.1,-0.001808167,-0.000108719,0.008451462,0,
00:01.1,-0.001745224,-0.000171661,0.008462906,0,
00:01.1,-0.001693726,-0.000188828,0.00841713,0,
00:01.1,-0.001710892,-1.14E-05,0.008422852,0,
00:01.1,-0.001699448,0.000137329,0.008399963,0,
00:01.1,-0.001682281,0.000148773,0.008377075,0,
00:01.1,-0.001710892,0.000120163,0.008371353,0,
00:01.1,-0.00176239,8.01E-05,0.008388519,0,
00:01.1,-0.00170517,0.000108719,0.008405685,0,
00:01.1,-0.001710892,2.29E-05,0.008394241,0,
00:01.1,-0.001722336,-8.01E-05,0.008365631,0,
00:01.1,-0.001773834,-0.000257492,0.008354187,0,
00:01.1,-0.001819611,-0.000434875,0.008382797,0,
00:01.1,-0.001791,-0.000366211,0.008377075,0,
00:01.1,-0.001745224,-6.87E-05,0.008371353,0,
00:01.1,-0.001716614,0.000114441,0.008354187,0,
00:01.1,-0.001682281,0.000120163,0.008291245,0,
00:01.1,-0.001659393,0.000165939,0.008302689,0,
00:01.1,-0.00173378,0.000102997,0.008296967,0,
00:01.1,-0.001779556,-5.72E-06,0.008308411,0,
00:01.1,-0.001756668,-0.000143051,0.008308411,0,
00:01.1,-0.001739502,-6.87E-05,0.008319855,0,
00:01.1,-0.001768112,0,0.008314133,0,
00:01.1,-0.001710892,8.01E-05,0.008285522,0,
00:01.2,-0.001670837,0.000154495,0.008274078,0,
00:01.2,-0.001745224,0,0.00825119,0,
00:01.2,-0.001779556,-9.73E-05,0.008262634,0,
00:01.2,-0.001756668,-8.01E-05,0.008291245,0,
00:01.2,-0.00173378,5.72E-05,0.008234024,0,
00:01.2,-0.001739502,7.44E-05,0.00825119,0,
00:01.2,-0.001756668,-0.000108719,0.008239746,0,
00:01.2,-0.00173378,-0.00019455,0.008245468,0,
00:01.2,-0.001716614,-2.86E-05,0.008234024,0,
00:01.2,-0.001722336,8.01E-05,0.008239746,0,
00:01.2,-0.00173378,-1.72E-05,0.00822258,0,
00:01.2,-0.001768112,-0.00028038,0.00819397,0,
00:01.2,-0.001796722,-0.000440598,0.00819397,0,
00:01.2,-0.001768112,-0.00019455,0.008211136,0,
00:01.2,-0.001728058,0.000200272,0.008176804,0,
00:01.2,-0.001716614,0.00028038,0.008142471,0,
00:01.2,-0.001722336,0.000177383,0.008142471,0,
00:01.2,-0.001728058,3.43E-05,0.008211136,0,
00:01.2,-0.001722336,-1.72E-05,0.00819397,0,
00:01.2,-0.00173378,6.29E-05,0.008182526,0,
00:01.2,-0.001745224,2.86E-05,0.008165359,0,
00:01.2,-0.001745224,-8.01E-05,0.008125305,0,
00:01.2,-0.00176239,-0.000188828,0.008131027,0,
00:01.2,-0.001739502,-0.000114441,0.008119583,0,
00:01.2,-0.001728058,-3.43E-05,0.008136749,0,
00:01.3,-0.00173378,-4.01E-05,0.008159637,0,
00:01.3,-0.00173378,-8.58E-05,0.008119583,0,
00:01.3,-0.001756668,-0.000143051,0.008090973,0,
00:01.3,-0.001750946,-0.000137329,0.008102417,0,
00:01.3,-0.001745224,-9.73E-05,0.008113861,0,
00:01.3,-0.001756668,5.72E-06,0.008096695,0,
00:01.3,-0.001722336,9.16E-05,0.008102417,0,
00:01.3,-0.001739502,-4.01E-05,0.008096695,0,
00:01.3,-0.00176239,-7.44E-05,0.008085251,0,
00:01.3,-0.001745224,1.14E-05,0.008073807,0,
00:01.3,-0.001750946,3.43E-05,0.008102417,0,
00:01.3,-0.001728058,1.72E-05,0.008096695,0,
00:01.3,-0.001728058,-1.72E-05,0.008068085,0,
00:01.3,-0.001722336,6.87E-05,0.008010864,0,
00:01.3,-0.001728058,2.29E-05,0.008062363,0,
00:01.3,-0.001728058,-7.44E-05,0.008056641,0,
00:01.3,-0.001750946,-0.000160217,0.008056641,0,
00:01.3,-0.001785278,-0.000205994,0.008079529,0,
00:01.3,-0.001779556,-0.000286102,0.008062363,0,
00:01.3,-0.001768112,-0.000154495,0.008050919,0,
00:01.3,-0.001716614,2.29E-05,0.008062363,0,
00:01.3,-0.001722336,-5.15E-05,0.008033752,0,
00:01.3,-0.001756668,-6.29E-05,0.008016586,0,
00:01.3,-0.00173378,8.01E-05,0.008033752,0,
00:01.3,-0.00170517,8.01E-05,0.00802803,0,
00:01.4,-0.001745224,-5.72E-05,0.00799942,0,
00:01.4,-0.001779556,-6.29E-05,0.00802803,0,
00:01.4,-0.001756668,-4.01E-05,0.008022308,0,
00:01.4,-0.001710892,-5.15E-05,0.007987976,0,
00:01.4,-0.001739502,-0.000137329,0.008005142,0,
00:01.4,-0.001768112,-0.000102997,0.007987976,0,
00:01.4,-0.001750946,5.72E-06,0.007959366,0,
00:01.4,-0.001750946,0,0.008010864,0,
00:01.4,-0.001728058,-5.15E-05,0.007959366,0,
00:01.4,-0.001745224,-0.000240326,0.007987976,0,
00:01.4,-0.00176239,-0.000200272,0.007976532,0,
00:01.4,-0.001756668,-1.14E-05,0.007976532,0,
00:01.4,-0.001716614,9.73E-05,0.007982254,0,
00:01.4,-0.001699448,4.01E-05,0.007936478,0,
00:01.4,-0.001739502,-0.000137329,0.007936478,0,
00:01.4,-0.001802444,-0.000349045,0.007919312,0,
00:01.4,-0.001785278,-0.000360489,0.007947922,0,
00:01.4,-0.001768112,-2.29E-05,0.007947922,0,
00:01.4,-0.00173378,0.000177383,0.007907867,0,
00:01.4,-0.001722336,6.87E-05,0.007896423,0,
00:01.4,-0.001739502,-1.14E-05,0.007907867,0,
00:01.4,-0.001745224,-5.15E-05,0.007902145,0,
00:01.4,-0.001688004,9.16E-05,0.007902145,0,
00:01.4,-0.001728058,6.87E-05,0.007890701,0,
00:01.4,-0.001768112,-2.86E-05,0.007890701,0,
00:01.5,-0.001750946,-8.58E-05,0.007896423,0,
00:01.5,-0.001745224,-5.15E-05,0.007850647,0,
00:01.5,-0.00176239,-6.29E-05,0.007839203,0,
00:01.5,-0.00176239,-8.58E-05,0.007856369,0,
00:01.5,-0.001739502,-0.000102997,0.007867813,0,
00:01.5,-0.001699448,0,0.007844925,0,
00:01.5,-0.001722336,5.72E-06,0.007804871,0,
00:01.5,-0.001728058,-2.29E-05,0.007833481,0,
00:01.5,-0.001796722,-0.000188828,0.007822037,0,
00:01.5,-0.001785278,-0.000137329,0.007822037,0,
00:01.5,-0.001745224,-0.000137329,0.007804871,0,
00:01.5,-0.001768112,-0.000286102,0.007827759,0,
00:01.5,-0.00176239,-0.000205994,0.007850647,0,
00:01.5,-0.001693726,3.43E-05,0.007799149,0,
00:01.5,-0.001722336,2.29E-05,0.007816315,0,
00:01.5,-0.001745224,9.73E-05,0.007822037,0,
00:01.5,-0.001745224,6.29E-05,0.007781982,0,
00:01.5,-0.00173378,-3.43E-05,0.007764816,0,
00:01.5,-0.001745224,-0.000125885,0.007770538,0,
00:01.5,-0.001756668,-0.000108719,0.007787704,0,
00:01.5,-0.00173378,2.86E-05,0.007804871,0,
00:01.5,-0.00173378,5.15E-05,0.007764816,0,
00:01.5,-0.00173378,5.72E-06,0.007759094,0,
00:01.5,-0.001722336,-5.72E-06,0.007770538,0,
00:01.5,-0.001722336,5.72E-06,0.007736206,0,
00:01.6,-0.001745224,-4.01E-05,0.007753372,0,
00:01.6,-0.001745224,-0.000114441,0.00774765,0,
00:01.6,-0.001768112,-0.000177383,0.007730484,0,
00:01.6,-0.001756668,-0.000131607,0.007759094,0,
00:01.6,-0.001756668,-9.73E-05,0.007736206,0,
00:01.6,-0.001785278,-0.000257492,0.007736206,0,
00:01.6,-0.001773834,-0.000205994,0.007741928,0,
00:01.6,-0.001768112,-2.86E-05,0.007707596,0,
00:01.6,-0.001773834,2.29E-05,0.007730484,0,
00:01.6,-0.001728058,4.01E-05,0.007736206,0,
00:01.6,-0.001728058,-3.43E-05,0.007730484,0,
00:01.6,-0.001728058,-9.73E-05,0.00771904,0,
00:01.6,-0.00173378,-6.29E-05,0.007684708,0,
00:01.6,-0.001756668,-6.29E-05,0.007696152,0,
00:01.6,-0.00176239,-0.000120163,0.007713318,0,
00:01.6,-0.001750946,-0.000143051,0.007730484,0,
00:01.6,-0.001745224,-5.15E-05,0.007713318,0,
00:01.6,-0.001739502,-2.86E-05,0.007701874,0,
00:01.6,-0.00173378,-8.01E-05,0.007684708,0,
00:01.6,-0.001699448,0,0.007707596,0,
00:01.6,-0.001682281,5.72E-05,0.007678986,0,
00:01.6,-0.00173378,-2.29E-05,0.007650375,0,
00:01.6,-0.001796722,-0.000131607,0.007713318,0,
00:01.6,-0.001768112,-5.72E-05,0.007713318,0,
00:01.6,-0.001750946,-5.15E-05,0.007684708,0,
00:01.7,-0.001750946,-9.73E-05,0.007667542,0,
00:01.7,-0.001745224,-9.16E-05,0.00769043,0,
00:01.7,-0.001739502,-7.44E-05,0.007713318,0,
00:01.7,-0.001716614,-1.14E-05,0.007696152,0,
00:01.7,-0.001716614,5.72E-06,0.007701874,0,
00:01.7,-0.001773834,-7.44E-05,0.007656097,0,
00:01.7,-0.001796722,-0.000234604,0.007678986,0,
00:01.7,-0.001768112,-0.00025177,0.007678986,0,
00:01.7,-0.001750946,-0.000148773,0.007673264,0,
00:01.7,-0.001745224,-2.86E-05,0.007673264,0,
00:01.7,-0.001745224,0,0.007673264,0,
00:01.7,-0.001722336,-5.72E-06,0.007661819,0,
00:01.7,-0.001739502,-9.73E-05,0.007661819,0,
00:01.7,-0.001773834,-0.000165939,0.007696152,0,
00:01.7,-0.00176239,-0.000120163,0.00769043,0,
00:01.7,-0.001750946,-0.000125885,0.007667542,0,
00:01.7,-0.001745224,-8.01E-05,0.007661819,0,
00:01.7,-0.001750946,-6.87E-05,0.007673264,0,
00:01.7,-0.001750946,-2.29E-05,0.007667542,0,
00:01.7,-0.001739502,0,0.007667542,0,
00:01.7,-0.001699448,1.14E-05,0.007667542,0,
00:01.7,-0.001682281,4.58E-05,0.007650375,0,
00:01.7,-0.001716614,1.72E-05,0.007616043,0,
00:01.7,-0.001791,-0.000120163,0.007650375,0,
00:01.7,-0.001779556,-0.000102997,0.007701874,0,
00:01.8,-0.001750946,-2.86E-05,0.007678986,0,
00:01.8,-0.00176239,-4.01E-05,0.007673264,0,
00:01.8,-0.001745224,-6.87E-05,0.007684708,0,
00:01.8,-0.00173378,-0.000120163,0.007684708,0,
00:01.8,-0.001739502,-0.000131607,0.007673264,0,
00:01.8,-0.001750946,-0.000120163,0.007673264,0,
00:01.8,-0.001750946,-7.44E-05,0.007667542,0,
00:01.8,-0.001756668,-8.58E-05,0.007644653,0,
00:01.8,-0.001756668,-0.000108719,0.007633209,0,
00:01.8,-0.00176239,-0.000143051,0.007650375,0,
00:01.8,-0.001745224,-0.000131607,0.007678986,0,
00:01.8,-0.001745224,-0.000160217,0.007644653,0,
00:01.8,-0.001716614,-0.000160217,0.007661819,0,
00:01.8,-0.001768112,-0.00019455,0.007644653,0,
00:01.8,-0.001768112,-0.000114441,0.007667542,0,
00:01.8,-0.001745224,1.14E-05,0.007656097,0,
00:01.8,-0.00173378,4.58E-05,0.007661819,0,
00:01.8,-0.001739502,5.72E-06,0.007656097,0,
00:01.8,-0.00176239,-9.16E-05,0.007667542,0,
00:01.8,-0.00173378,-8.58E-05,0.007678986,0,
00:01.8,-0.001728058,-4.01E-05,0.007661819,0,
00:01.8,-0.001773834,-5.72E-05,0.007644653,0,
00:01.8,-0.001768112,-8.58E-05,0.007627487,0,
00:01.8,-0.001745224,-9.73E-05,0.007661819,0,
00:01.8,-0.00173378,-0.000120163,0.007667542,0,
00:01.9,-0.001756668,-0.000188828,0.007656097,0,
00:01.9,-0.00176239,-0.000131607,0.007661819,0,
00:01.9,-0.001728058,-2.29E-05,0.007678986,0,
00:01.9,-0.001739502,5.72E-06,0.007650375,0,
00:01.9,-0.001750946,-2.29E-05,0.007656097,0,
00:01.9,-0.00176239,-6.29E-05,0.007656097,0,
00:01.9,-0.00176239,-6.29E-05,0.007661819,0,
00:01.9,-0.001745224,-2.86E-05,0.007661819,0,
00:01.9,-0.001745224,-5.72E-05,0.007656097,0,
00:01.9,-0.001722336,-2.29E-05,0.007650375,0,
00:01.9,-0.00170517,-2.86E-05,0.007656097,0,
00:01.9,-0.00176239,-0.000228882,0.007673264,0,
00:01.9,-0.00176239,-0.000257492,0.007661819,0,
00:01.9,-0.001802444,-0.000349045,0.00769043,0,
00:01.9,-0.001768112,-0.000143051,0.00769043,0,
00:01.9,-0.001756668,2.29E-05,0.007661819,0,
00:01.9,-0.001768112,-1.72E-05,0.007684708,0,
00:01.9,-0.001785278,-0.000200272,0.007673264,0,
00:01.9,-0.001779556,-0.000274658,0.007678986,0,
00:01.9,-0.00176239,-0.000102997,0.007678986,0,
00:01.9,-0.00173378,5.15E-05,0.007667542,0,
00:01.9,-0.001699448,7.44E-05,0.007650375,0,
00:01.9,-0.001710892,5.72E-05,0.007633209,0,
00:01.9,-0.001745224,-4.01E-05,0.007661819,0,
00:01.9,-0.00176239,-9.16E-05,0.007667542,0,
00:02.0,-0.00176239,-7.44E-05,0.007644653,0,
00:02.0,-0.001756668,-6.87E-05,0.007650375,0,
00:02.0,-0.001779556,-6.87E-05,0.007667542,0,
00:02.0,-0.001745224,-4.01E-05,0.007650375,0,
00:02.0,-0.001722336,-6.29E-05,0.007650375,0,
00:02.0,-0.001750946,-0.000165939,0.007644653,0,
00:02.0,-0.001773834,-0.00025177,0.007650375,0,
00:02.0,-0.001768112,-0.000177383,0.007684708,0,
00:02.0,-0.001728058,-1.14E-05,0.00769043,0,
00:02.0,-0.001716614,2.29E-05,0.007656097,0,
00:02.0,-0.001773834,-0.00019455,0.007656097,0,
00:02.0,-0.001802444,-0.000326157,0.007684708,0,
00:00:02,-0.001785278,-0.000205994,0.007684708,0,
00:02.0,-0.001773834,-6.87E-05,0.007684708,0,
00:02.0,-0.00173378,-1.14E-05,0.007673264,0,
00:02.0,-0.001750946,-3.43E-05,0.007650375,0,
00:02.0,-0.001785278,-6.29E-05,0.007661819,0,
00:02.0,-0.001791,-8.58E-05,0.007656097,0,
00:02.0,-0.001750946,-5.72E-05,0.007667542,0,
00:02.0,-0.001728058,-5.72E-05,0.007667542,0,
00:02.0,-0.00173378,-5.72E-05,0.007667542,0,
00:02.0,-0.001728058,-4.01E-05,0.007661819,0,
00:02.0,-0.001728058,-7.44E-05,0.007650375,0,
00:02.0,-0.001750946,-0.000205994,0.007667542,0,
00:02.0,-0.001768112,-0.00022316,0.007661819,0,
00:02.1,-0.00176239,-8.01E-05,0.007627487,0,
00:02.1,-0.001745224,-2.29E-05,0.007633209,0,
00:02.1,-0.001710892,-1.14E-05,0.007656097,0,
00:02.1,-0.001785278,-0.000125885,0.007667542,0,
00:02.1,-0.001876831,-0.000183105,0.007678986,0,
00:02.1,-0.001836777,-0.000171661,0.007678986,0,
00:02.1,-0.001779556,-0.000102997,0.007701874,0,
00:02.1,-0.001779556,-2.86E-05,0.007673264,0,
00:02.1,-0.001716614,-2.29E-05,0.007656097,0,
00:02.1,-0.001676559,-4.01E-05,0.007673264,0,
00:02.1,-0.00170517,-8.58E-05,0.007661819,0,
00:02.1,-0.001750946,-0.000217438,0.007667542,0,
00:02.1,-0.00176239,-0.000211716,0.007650375,0,
00:02.1,-0.001756668,-0.00022316,0.007656097,0,
00:02.1,-0.001722336,-8.58E-05,0.007684708,0,
00:02.1,-0.00170517,5.72E-05,0.007667542,0,
00:02.1,-0.001773834,1.72E-05,0.007650375,0,
00:02.1,-0.001768112,-4.01E-05,0.007678986,0,
00:02.1,-0.00176239,-0.000102997,0.007673264,0,
00:02.1,-0.001756668,-0.000154495,0.007678986,0,
00:02.1,-0.001750946,-0.000125885,0.007656097,0,
00:02.1,-0.001768112,-8.58E-05,0.007644653,0,
00:02.1,-0.001739502,-1.72E-05,0.007667542,0,
00:02.1,-0.001750946,-6.87E-05,0.007678986,0,
00:02.1,-0.001791,-0.00028038,0.007678986,0,
00:02.2,-0.001791,-0.000205994,0.00771904,0,
00:02.2,-0.001785278,-0.000143051,0.007713318,0,
00:02.2,-0.001773834,-0.000148773,0.007667542,0,
00:02.2,-0.001773834,-0.000143051,0.007673264,0,
00:02.2,-0.00176239,-9.16E-05,0.007673264,0,
00:02.2,-0.001756668,-0.000137329,0.007661819,0,
00:02.2,-0.001750946,-0.000108719,0.007656097,0,
00:02.2,-0.001768112,-5.72E-06,0.007678986,0,
00:02.2,-0.00176239,-2.86E-05,0.00769043,0,
00:02.2,-0.001728058,-2.29E-05,0.007673264,0,
00:02.2,-0.001699448,3.43E-05,0.007678986,0,
00:02.2,-0.001699448,5.72E-06,0.007696152,0,
00:02.2,-0.001773834,-0.000217438,0.007673264,0,
00:02.2,-0.001773834,-0.00028038,0.007678986,0,
00:02.2,-0.001768112,-0.000205994,0.00769043,0,
00:02.2,-0.001785278,-0.000120163,0.007707596,0,
00:02.2,-0.001728058,-4.01E-05,0.00771904,0,
00:02.2,-0.001716614,-5.72E-05,0.00769043,0,
00:02.2,-0.001750946,-0.000108719,0.007678986,0,
00:02.2,-0.001779556,-0.000171661,0.007713318,0,
00:02.2,-0.00176239,-7.44E-05,0.007701874,0,
00:02.2,-0.001745224,-5.15E-05,0.007701874,0,
00:02.2,-0.001773834,-0.000137329,0.007713318,0,
00:02.2,-0.001756668,-0.000108719,0.007713318,0,
00:02.2,-0.001716614,-8.01E-05,0.00771904,0,
00:02.3,-0.001739502,-6.87E-05,0.007684708,0,
00:02.3,-0.001750946,-8.01E-05,0.007707596,0,
00:02.3,-0.001773834,-8.58E-05,0.007696152,0,
00:02.3,-0.001773834,-8.01E-05,0.007713318,0,
00:02.3,-0.001728058,-2.29E-05,0.00771904,0,
00:02.3,-0.001699448,5.72E-06,0.007644653,0,
00:02.3,-0.00176239,-0.000188828,0.007730484,0,
00:02.3,-0.001779556,-0.000137329,0.007701874,0,
00:02.3,-0.001848221,-0.000114441,0.007736206,0,
00:02.3,-0.001831055,-0.000137329,0.00771904,0,
00:02.3,-0.001739502,-0.000188828,0.007724762,0,
00:02.3,-0.001693726,-9.73E-05,0.007730484,0,
00:02.3,-0.001745224,-7.44E-05,0.00769043,0,
00:02.3,-0.001773834,-0.000120163,0.007736206,0,
00:02.3,-0.001750946,-0.000108719,0.007753372,0,
00:02.3,-0.00173378,-9.73E-05,0.007730484,0,
00:02.3,-0.00173378,-0.000102997,0.007724762,0,
00:02.3,-0.001728058,-0.000143051,0.007724762,0,
00:02.3,-0.00173378,-0.000160217,0.007696152,0,
00:02.3,-0.00173378,-0.000143051,0.007713318,0,
00:02.3,-0.001756668,-0.000137329,0.007741928,0,
00:02.3,-0.00173378,-3.43E-05,0.007713318,0,
00:02.3,-0.001756668,-4.01E-05,0.007713318,0,
00:02.3,-0.001750946,-1.14E-05,0.007736206,0,
00:02.3,-0.001750946,-4.01E-05,0.00777626,0,
00:02.4,-0.001722336,-1.14E-05,0.007753372,0,
00:02.4,-0.00170517,1.72E-05,0.007696152,0,
00:02.4,-0.001768112,-9.73E-05,0.007701874,0,
00:02.4,-0.001773834,-0.000137329,0.007759094,0,
00:02.4,-0.001739502,-4.58E-05,0.007753372,0,
00:02.4,-0.00173378,-6.87E-05,0.007787704,0,
00:02.4,-0.001768112,-0.000160217,0.007793427,0,
00:02.4,-0.001785278,-0.000165939,0.00774765,0,
00:02.4,-0.001825333,-0.000160217,0.007753372,0,
00:02.4,-0.001808167,-0.000177383,0.00774765,0,
00:02.4,-0.001739502,-0.000160217,0.007730484,0,
00:02.4,-0.001722336,-0.000114441,0.007736206,0,
00:02.4,-0.001750946,-0.000120163,0.007741928,0,
00:02.4,-0.00176239,-0.000137329,0.007736206,0,
00:02.4,-0.00176239,-0.000205994,0.007741928,0,
00:02.4,-0.001756668,-0.00019455,0.00771904,0,
00:02.4,-0.001739502,-9.16E-05,0.007724762,0,
00:02.4,-0.001710892,2.29E-05,0.007724762,0,
00:02.4,-0.001722336,-4.01E-05,0.007730484,0,
00:02.4,-0.001796722,-0.000297546,0.00774765,0,
00:02.4,-0.001791,-0.000211716,0.007736206,0,
00:02.4,-0.001773834,-3.43E-05,0.007707596,0,
00:02.4,-0.00176239,-4.01E-05,0.007701874,0,
00:02.4,-0.001756668,-0.000120163,0.007736206,0,
00:02.4,-0.00176239,-1.14E-05,0.007741928,0,
00:02.5,-0.001750946,-1.72E-05,0.00771904,0,
00:02.5,-0.001716614,-4.58E-05,0.007724762,0,
00:02.5,-0.001688004,1.72E-05,0.007696152,0,
00:02.5,-0.001773834,-0.000125885,0.007724762,0,
00:02.5,-0.001813889,-0.00028038,0.007741928,0,
00:02.5,-0.001791,-0.00030899,0.007730484,0,
00:02.5,-0.001779556,-0.000240326,0.007701874,0,
00:02.5,-0.001773834,-0.000131607,0.007713318,0,
00:02.5,-0.001773834,-0.000148773,0.007707596,0,
00:02.5,-0.00176239,-0.000120163,0.007701874,0,
00:02.5,-0.001773834,-0.000102997,0.007713318,0,
00:02.5,-0.001745224,-0.000120163,0.007736206,0,
00:02.5,-0.001745224,-0.000125885,0.007713318,0,
00:02.5,-0.001745224,-1.72E-05,0.007707596,0,
00:02.5,-0.001716614,8.58E-05,0.00769043,0,
00:02.5,-0.001750946,-2.86E-05,0.007684708,0,
00:02.5,-0.001756668,-8.01E-05,0.00769043,0,
00:02.5,-0.001756668,-8.01E-05,0.007667542,0,
00:02.5,-0.00173378,-4.58E-05,0.007696152,0,
00:02.5,-0.001728058,-4.58E-05,0.007701874,0,
00:02.5,-0.001750946,-0.000114441,0.007684708,0,
00:02.5,-0.001750946,-0.000108719,0.007638931,0,
00:02.5,-0.001773834,-0.000137329,0.007644653,0,
00:02.5,-0.001773834,-0.000165939,0.007701874,0,
00:02.5,-0.001785278,-0.00022316,0.007684708,0,
00:02.6,-0.001791,-0.000274658,0.007684708,0,
00:02.6,-0.001808167,-0.000263214,0.007684708,0,
00:02.6,-0.001773834,-0.000120163,0.007661819,0,
00:02.6,-0.001716614,-5.72E-05,0.007673264,0,
00:02.6,-0.00173378,-0.000143051,0.007673264,0,
00:02.6,-0.00173378,-7.44E-05,0.007673264,0,
00:02.6,-0.001756668,-5.15E-05,0.007678986,0,
00:02.6,-0.001785278,-0.000131607,0.007661819,0,
00:02.6,-0.001756668,-0.000114441,0.007638931,0,
00:02.6,-0.001745224,-6.87E-05,0.007627487,0,
00:02.6,-0.001785278,-0.000102997,0.007678986,0,
00:02.6,-0.001785278,-9.16E-05,0.007684708,0,
00:02.6,-0.001768112,-9.16E-05,0.007684708,0,
00:02.6,-0.00176239,-0.000120163,0.007667542,0,
00:02.6,-0.001756668,-0.000148773,0.007656097,0,
00:02.6,-0.00176239,-0.000160217,0.007656097,0,
00:02.6,-0.001768112,-0.000154495,0.007661819,0,
00:02.6,-0.00176239,-0.000154495,0.007661819,0,
00:02.6,-0.001773834,-0.000211716,0.007661819,0,
00:02.6,-0.001768112,-0.000263214,0.007656097,0,
00:02.6,-0.001722336,-0.000102997,0.007644653,0,
00:02.6,-0.001710892,2.86E-05,0.007621765,0,
00:02.6,-0.001716614,5.15E-05,0.007627487,0,
00:02.6,-0.001785278,-0.000125885,0.007661819,0,
00:02.6,-0.001785278,-0.000165939,0.007684708,0,
00:02.7,-0.001785278,-0.000205994,0.007678986,0,
00:02.7,-0.001791,-0.00022316,0.007656097,0,
00:02.7,-0.001768112,-0.000246048,0.007656097,0,
00:02.7,-0.001756668,-0.000148773,0.007656097,0,
00:02.7,-0.00176239,-4.01E-05,0.007656097,0,
00:02.7,-0.001750946,5.72E-06,0.007638931,0,
00:02.7,-0.001750946,-6.87E-05,0.007633209,0,
00:02.7,-0.001716614,-4.58E-05,0.007627487,0,
00:02.7,-0.001745224,-9.73E-05,0.007633209,0,
00:02.7,-0.00176239,-0.000148773,0.007656097,0,
00:02.7,-0.001796722,-0.00019455,0.007661819,0,
00:02.7,-0.001802444,-0.00022316,0.007644653,0,
00:02.7,-0.001796722,-0.000234604,0.007633209,0,
00:02.7,-0.001779556,-0.000291824,0.007638931,0,
00:02.7,-0.001785278,-0.000366211,0.007650375,0,
00:02.7,-0.001785278,-0.000320435,0.007638931,0,
00:02.7,-0.001756668,-0.000102997,0.007644653,0,
00:02.7,-0.00173378,0.000114441,0.007598877,0,
00:02.7,-0.001728058,4.01E-05,0.007644653,0,
00:02.7,-0.001739502,-4.01E-05,0.007656097,0,
00:02.7,-0.001710892,5.72E-06,0.007627487,0,
00:02.7,-0.001716614,-4.01E-05,0.007616043,0,
00:02.7,-0.001779556,-0.000188828,0.007627487,0,
00:02.7,-0.001808167,-0.00022316,0.007661819,0,
00:02.7,-0.001802444,-0.000188828,0.007667542,0,
00:02.8,-0.001773834,-0.000120163,0.007638931,0,
00:02.8,-0.001756668,-0.000108719,0.007621765,0,
00:02.8,-0.001756668,-0.000137329,0.007621765,0,
00:02.8,-0.001756668,-0.000160217,0.007627487,0,
00:02.8,-0.00176239,-0.000148773,0.007638931,0,
00:02.8,-0.00176239,-0.000114441,0.007621765,0,
00:02.8,-0.001785278,-0.000183105,0.007633209,0,
00:02.8,-0.001796722,-0.00022316,0.007638931,0,
00:02.8,-0.001791,-0.00022316,0.007627487,0,
00:02.8,-0.00176239,-0.000171661,0.007644653,0,
00:02.8,-0.001750946,-0.000125885,0.007627487,0,
00:02.8,-0.001745224,-0.000108719,0.007633209,0,
00:02.8,-0.001722336,-4.58E-05,0.007621765,0,
00:02.8,-0.001716614,1.72E-05,0.007575989,0,
00:02.8,-0.001791,-0.000131607,0.007616043,0,
00:02.8,-0.001802444,-0.000148773,0.007638931,0,
00:02.8,-0.001791,-0.000177383,0.007638931,0,
00:02.8,-0.001779556,-0.000200272,0.007650375,0,
00:02.8,-0.001779556,-0.00019455,0.007644653,0,
00:02.8,-0.001773834,-0.000131607,0.007638931,0,
00:02.8,-0.001750946,-9.73E-05,0.007638931,0,
00:02.8,-0.001756668,-0.000125885,0.007627487,0,
00:02.8,-0.001756668,-0.000143051,0.007621765,0,
00:02.8,-0.00176239,-0.000160217,0.007633209,0,
00:02.8,-0.001768112,-0.000165939,0.007633209,0,
00:02.9,-0.001773834,-0.000211716,0.007621765,0,
00:02.9,-0.001785278,-0.000234604,0.007604599,0,
00:02.9,-0.001773834,-0.00022316,0.007627487,0,
00:02.9,-0.00176239,-0.000154495,0.007633209,0,
00:02.9,-0.001745224,-0.000114441,0.007621765,0,
00:02.9,-0.001722336,-6.29E-05,0.007633209,0,
00:02.9,-0.001750946,-7.44E-05,0.007627487,0,
00:02.9,-0.001796722,-0.000137329,0.007621765,0,
00:02.9,-0.001796722,-0.000171661,0.007621765,0,
00:02.9,-0.001768112,-0.000160217,0.007644653,0,
00:02.9,-0.00176239,-0.000148773,0.007650375,0,
00:02.9,-0.00176239,-0.000165939,0.007638931,0,
00:02.9,-0.001785278,-0.00025177,0.007633209,0,
00:02.9,-0.001785278,-0.000228882,0.007627487,0,
00:02.9,-0.00176239,-0.000125885,0.007621765,0,
00:02.9,-0.001739502,-0.000108719,0.007610321,0,
00:02.9,-0.001739502,-0.000154495,0.007621765,0,
00:02.9,-0.001768112,-0.00019455,0.007616043,0,
00:02.9,-0.001791,-0.000200272,0.007638931,0,
00:02.9,-0.001785278,-0.000205994,0.007667542,0,
00:02.9,-0.001791,-0.000165939,0.007656097,0,
00:02.9,-0.001791,-0.000177383,0.007638931,0,
00:02.9,-0.001791,-0.00022316,0.007644653,0,
00:02.9,-0.001768112,-0.000160217,0.007633209,0,
00:02.9,-0.00173378,-2.86E-05,0.007616043,0,
00:03.0,-0.001768112,-6.29E-05,0.007627487,0,
00:03.0,-0.001791,-0.000137329,0.007627487,0,
00:03.0,-0.001756668,-0.000120163,0.007621765,0,
00:03.0,-0.001739502,-0.000120163,0.007604599,0,
00:03.0,-0.001745224,-0.000125885,0.007656097,0,
00:03.0,-0.001785278,-0.000177383,0.007656097,0,
00:03.0,-0.001773834,-0.000154495,0.007638931,0,
00:03.0,-0.001773834,-0.000177383,0.007638931,0,
00:03.0,-0.001779556,-0.00019455,0.007633209,0,
00:03.0,-0.001773834,-0.000183105,0.007633209,0,
00:03.0,-0.001756668,-0.000160217,0.007627487,0,
00:03.0,-0.001739502,-0.000148773,0.007616043,0,
00:00:03,-0.001716614,-0.000171661,0.007610321,0,
00:03.0,-0.001791,-0.00025177,0.007621765,0,
00:03.0,-0.001831055,-0.000257492,0.007616043,0,
00:03.0,-0.001773834,-0.000148773,0.007627487,0,
00:03.0,-0.001716614,-7.44E-05,0.007656097,0,
00:03.0,-0.001768112,-0.000177383,0.007627487,0,
00:03.0,-0.001773834,-0.000165939,0.007656097,0,
00:03.0,-0.001791,-0.00022316,0.007661819,0,
00:03.0,-0.001791,-0.000263214,0.007633209,0,
00:03.0,-0.001773834,-0.000177383,0.007621765,0,
00:03.0,-0.00176239,-0.000108719,0.007616043,0,
00:03.0,-0.001756668,-0.000165939,0.007621765,0,
00:03.0,-0.001779556,-0.00019455,0.007627487,0,
00:03.1,-0.001791,-0.000257492,0.007656097,0,
00:03.1,-0.001791,-0.000383377,0.007650375,0,
00:03.1,-0.001819611,-0.000389099,0.007633209,0,
00:03.1,-0.001808167,-0.000240326,0.007621765,0,
00:03.1,-0.00173378,5.72E-06,0.007616043,0,
00:03.1,-0.001716614,3.43E-05,0.007616043,0,
00:03.1,-0.001745224,-0.000131607,0.007593155,0,
00:03.1,-0.001785278,-0.000320435,0.007638931,0,
00:03.1,-0.001813889,-0.000417709,0.007656097,0,
00:03.1,-0.001796722,-0.000411987,0.007633209,0,
00:03.1,-0.001825333,-0.00030899,0.007638931,0,
00:03.1,-0.001802444,-0.000228882,0.007644653,0,
00:03.1,-0.001745224,-0.000114441,0.007627487,0,
00:03.1,-0.001756668,-1.14E-05,0.007616043,0,
00:03.1,-0.001768112,-7.44E-05,0.007627487,0,
00:03.1,-0.001779556,-0.000143051,0.007621765,0,
00:03.1,-0.001779556,-0.000114441,0.007610321,0,
00:03.1,-0.001773834,-7.44E-05,0.007604599,0,
00:03.1,-0.00176239,-0.000137329,0.007610321,0,
00:03.1,-0.00176239,-0.000211716,0.007621765,0,
00:03.1,-0.001773834,-0.000228882,0.007627487,0,
00:03.1,-0.00176239,-0.000165939,0.007621765,0,
00:03.1,-0.001745224,-6.87E-05,0.007627487,0,
00:03.1,-0.001779556,-0.000148773,0.007604599,0,
00:03.1,-0.001773834,-0.000200272,0.007633209,0,
00:03.2,-0.001768112,-0.000211716,0.007633209,0,
00:03.2,-0.001791,-0.000234604,0.007610321,0,
00:03.2,-0.001791,-0.000320435,0.007604599,0,
00:03.2,-0.001779556,-0.00030899,0.007621765,0,
00:03.2,-0.001779556,-0.000200272,0.007633209,0,
00:03.2,-0.001785278,-8.01E-05,0.007621765,0,
00:03.2,-0.001791,-6.29E-05,0.007598877,0,
00:03.2,-0.001722336,-1.14E-05,0.007593155,0,
00:03.2,-0.001745224,-0.000114441,0.007593155,0,
00:03.2,-0.001813889,-0.00028038,0.007581711,0,
00:03.2,-0.001791,-0.00028038,0.007638931,0,
00:03.2,-0.001779556,-0.00028038,0.007638931,0,
00:03.2,-0.001796722,-0.000366211,0.007650375,0,
00:03.2,-0.001808167,-0.000417709,0.007638931,0,
00:03.2,-0.001791,-0.000183105,0.007633209,0,
00:03.2,-0.00176239,-1.72E-05,0.007627487,0,
00:03.2,-0.001722336,-8.01E-05,0.007593155,0,
00:03.2,-0.001750946,-0.000148773,0.007581711,0,
00:03.2,-0.001785278,-0.000154495,0.007627487,0,
00:03.2,-0.001779556,-0.000148773,0.007627487,0,
00:03.2,-0.001779556,-0.000171661,0.007633209,0,
00:03.2,-0.001785278,-0.000205994,0.007616043,0,
00:03.2,-0.001779556,-0.000171661,0.007627487,0,
00:03.2,-0.001773834,-0.000200272,0.007621765,0,
00:03.2,-0.001773834,-0.000211716,0.007610321,0,
00:03.3,-0.001779556,-0.000205994,0.007627487,0,
00:03.3,-0.001779556,-0.000137329,0.007610321,0,
00:03.3,-0.001779556,-0.000137329,0.007610321,0,
00:03.3,-0.001785278,-0.000211716,0.007633209,0,
00:03.3,-0.001773834,-0.000205994,0.007604599,0,
00:03.3,-0.001768112,-0.000165939,0.007593155,0,
00:03.3,-0.001779556,-0.000165939,0.007616043,0,
00:03.3,-0.001791,-0.000234604,0.007627487,0,
00:03.3,-0.001796722,-0.000297546,0.007644653,0,
00:03.3,-0.001796722,-0.000371933,0.007638931,0,
00:03.3,-0.001802444,-0.000354767,0.007633209,0,
00:03.3,-0.001802444,-0.000326157,0.007616043,0,
00:03.3,-0.001779556,-0.000268936,0.007593155,0,
00:03.3,-0.001750946,-3.43E-05,0.007581711,0,
00:03.3,-0.001768112,1.72E-05,0.007616043,0,
00:03.3,-0.00176239,-6.87E-05,0.007616043,0,
00:03.3,-0.001773834,-0.000137329,0.007616043,0,
00:03.3,-0.001773834,-0.000154495,0.007621765,0,
00:03.3,-0.001756668,-0.000120163,0.007633209,0,
00:03.3,-0.001756668,-0.000137329,0.007650375,0,
00:03.3,-0.001791,-0.000228882,0.007638931,0,
00:03.3,-0.001791,-0.000268936,0.007616043,0,
00:03.3,-0.001785278,-0.000228882,0.007593155,0,
00:03.3,-0.001796722,-0.000234604,0.007627487,0,
00:03.3,-0.001785278,-0.000177383,0.007616043,0,
00:03.4,-0.001785278,-0.000183105,0.007627487,0,
00:03.4,-0.001791,-0.000188828,0.007644653,0,
00:03.4,-0.001791,-0.000274658,0.007621765,0,
00:03.4,-0.001779556,-0.000274658,0.007610321,0,
00:03.4,-0.001768112,-0.000205994,0.007587433,0,
00:03.4,-0.001768112,-0.000183105,0.007587433,0,
00:03.4,-0.001796722,-0.000211716,0.007621765,0,
00:03.4,-0.001785278,-0.000183105,0.007621765,0,
00:03.4,-0.001785278,-0.000183105,0.007610321,0,
00:03.4,-0.001802444,-0.000234604,0.007650375,0,
00:03.4,-0.001785278,-0.000217438,0.007650375,0,
00:03.4,-0.001791,-0.000228882,0.007633209,0,
00:03.4,-0.001802444,-0.000217438,0.007616043,0,
00:03.4,-0.001802444,-0.000171661,0.007610321,0,
00:03.4,-0.001773834,-8.58E-05,0.007598877,0,
00:03.4,-0.00176239,-0.000177383,0.007627487,0,
00:03.4,-0.001773834,-0.000228882,0.007616043,0,
00:03.4,-0.00176239,-0.000188828,0.007598877,0,
00:03.4,-0.00176239,-0.000137329,0.007587433,0,
00:03.4,-0.001768112,-0.000131607,0.007610321,0,
00:03.4,-0.001773834,-0.000183105,0.007644653,0,
00:03.4,-0.001796722,-0.000257492,0.007616043,0,
00:03.4,-0.001802444,-0.000360489,0.007627487,0,
00:03.4,-0.001796722,-0.000326157,0.007627487,0,
00:03.4,-0.001773834,-0.000177383,0.007633209,0,
00:03.5,-0.001773834,-0.000131607,0.007627487,0,
00:03.5,-0.001802444,-0.000211716,0.007616043,0,
00:03.5,-0.001791,-0.000200272,0.007581711,0,
00:03.5,-0.001773834,-0.000148773,0.007593155,0,
00:03.5,-0.001768112,-0.000148773,0.007621765,0,
00:03.5,-0.00176239,-0.000154495,0.007627487,0,
00:03.5,-0.00176239,-0.000160217,0.007598877,0,
00:03.5,-0.001773834,-0.000188828,0.007593155,0,
00:03.5,-0.001802444,-0.000228882,0.007593155,0,
00:03.5,-0.001791,-0.00025177,0.007627487,0,
00:03.5,-0.001796722,-0.000240326,0.007644653,0,
00:03.5,-0.001785278,-0.000205994,0.007638931,0,
00:03.5,-0.001779556,-0.000205994,0.007610321,0,
00:03.5,-0.001791,-0.00025177,0.007581711,0,
00:03.5,-0.001813889,-0.000394821,0.007587433,0,
00:03.5,-0.001819611,-0.000440598,0.007633209,0,
00:03.5,-0.001802444,-0.00030899,0.007627487,0,
00:03.5,-0.001785278,-0.000177383,0.007593155,0,
00:03.5,-0.001791,-0.000154495,0.007616043,0,
00:03.5,-0.001779556,-0.000131607,0.007627487,0,
00:03.5,-0.001756668,-0.000114441,0.007610321,0,
00:03.5,-0.001779556,-0.000165939,0.007598877,0,
00:03.5,-0.001785278,-0.000165939,0.007621765,0,
00:03.5,-0.001773834,-0.000160217,0.007610321,0,
00:03.5,-0.001773834,-0.000183105,0.007610321,0,
00:03.6,-0.001791,-0.000183105,0.007610321,0,
00:03.6,-0.001768112,-0.000160217,0.007616043,0,
00:03.6,-0.001745224,-0.000120163,0.007598877,0,
00:03.6,-0.001779556,-0.000171661,0.007581711,0,
00:03.6,-0.001802444,-0.000257492,0.007610321,0,
00:03.6,-0.001796722,-0.000263214,0.007633209,0,
00:03.6,-0.001791,-0.000246048,0.007604599,0,
00:03.6,-0.001791,-0.000268936,0.007621765,0,
00:03.6,-0.001808167,-0.000377655,0.007627487,0,
00:03.6,-0.001825333,-0.000480652,0.007621765,0,
00:03.6,-0.001819611,-0.000389099,0.007616043,0,
00:03.6,-0.001779556,-0.000165939,0.007581711,0,
00:03.6,-0.001750946,-6.29E-05,0.007604599,0,
00:03.6,-0.001756668,-6.87E-05,0.007610321,0,
00:03.6,-0.001768112,-0.000120163,0.007598877,0,
00:03.6,-0.001785278,-0.000200272,0.007633209,0,
00:03.6,-0.001791,-0.000228882,0.007610321,0,
00:03.6,-0.001791,-0.000268936,0.007616043,0,
00:03.6,-0.001791,-0.000268936,0.007627487,0,
00:03.6,-0.001779556,-0.000228882,0.007616043,0,
00:03.6,-0.001756668,-0.000143051,0.007621765,0,
00:03.6,-0.001756668,-9.73E-05,0.007598877,0,
00:03.6,-0.001779556,-0.000165939,0.007610321,0,
00:03.6,-0.001808167,-0.000228882,0.007593155,0,
00:03.6,-0.001825333,-0.000274658,0.007598877,0,
00:03.7,-0.001808167,-0.000263214,0.007621765,0,
00:03.7,-0.001785278,-0.000240326,0.007638931,0,
00:03.7,-0.001773834,-0.000257492,0.007627487,0,
00:03.7,-0.001779556,-0.000286102,0.007621765,0,
00:03.7,-0.001802444,-0.000314713,0.007627487,0,
00:03.7,-0.001808167,-0.000400543,0.007616043,0,
00:03.7,-0.001791,-0.000377655,0.007610321,0,
00:03.7,-0.001779556,-0.00022316,0.007610321,0,
00:03.7,-0.001745224,-2.29E-05,0.007581711,0,
00:03.7,-0.001745224,-5.15E-05,0.007575989,0,
00:03.7,-0.001779556,-0.000160217,0.007581711,0,
00:03.7,-0.001791,-0.00022316,0.007627487,0,
00:03.7,-0.001785278,-0.00025177,0.007644653,0,
00:03.7,-0.001802444,-0.00028038,0.007650375,0,
00:03.7,-0.001796722,-0.000274658,0.007638931,0,
00:03.7,-0.001796722,-0.000263214,0.007621765,0,
00:03.7,-0.001791,-0.000228882,0.007633209,0,
00:03.7,-0.00176239,-0.000131607,0.007616043,0,
00:03.7,-0.001773834,-0.000177383,0.007604599,0,
00:03.7,-0.001785278,-0.000217438,0.007593155,0,
00:03.7,-0.001785278,-0.000228882,0.007610321,0,
00:03.7,-0.001791,-0.000228882,0.007610321,0,
00:03.7,-0.001779556,-0.000188828,0.007587433,0,
00:03.7,-0.001791,-0.000240326,0.007616043,0,
00:03.7,-0.001796722,-0.000320435,0.007650375,0,
00:03.8,-0.001779556,-0.000286102,0.007616043,0,
00:03.8,-0.001802444,-0.000291824,0.007610321,0,
00:03.8,-0.001808167,-0.000274658,0.007627487,0,
00:03.8,-0.001779556,-0.000171661,0.007621765,0,
00:03.8,-0.001791,-0.000160217,0.007593155,0,
00:03.8,-0.001773834,-0.000165939,0.007644653,0,
00:03.8,-0.001779556,-0.000246048,0.007604599,0,
00:03.8,-0.001791,-0.00030899,0.007627487,0,
00:03.8,-0.001819611,-0.000326157,0.007621765,0,
00:03.8,-0.001813889,-0.000331879,0.007638931,0,
00:03.8,-0.001773834,-0.000211716,0.007621765,0,
00:03.8,-0.001768112,-0.000137329,0.007593155,0,
00:03.8,-0.001779556,-0.000188828,0.007638931,0,
00:03.8,-0.001796722,-0.000200272,0.007638931,0,
00:03.8,-0.001796722,-0.000200272,0.007638931,0,
00:03.8,-0.001796722,-0.000234604,0.007616043,0,
00:03.8,-0.001779556,-0.00025177,0.007616043,0,
00:03.8,-0.001768112,-0.000246048,0.007627487,0,
00:03.8,-0.001785278,-0.000286102,0.007604599,0,
00:03.8,-0.001785278,-0.000240326,0.007621765,0,
00:03.8,-0.001785278,-0.00019455,0.007627487,0,
00:03.8,-0.001768112,-0.000165939,0.007616043,0,
00:03.8,-0.001779556,-0.000200272,0.007627487,0,
00:03.8,-0.001808167,-0.00025177,0.007610321,0,
00:03.8,-0.001796722,-0.000263214,0.007638931,0,
00:03.9,-0.001791,-0.000246048,0.007616043,0,
00:03.9,-0.001785278,-0.00025177,0.007627487,0,
00:03.9,-0.001796722,-0.000268936,0.007621765,0,
00:03.9,-0.001791,-0.000228882,0.007621765,0,
00:03.9,-0.001785278,-0.000217438,0.007650375,0,
00:03.9,-0.001779556,-0.000240326,0.007638931,0,
00:03.9,-0.001802444,-0.000257492,0.007633209,0,
00:03.9,-0.001791,-0.000234604,0.007616043,0,
00:03.9,-0.001808167,-0.000291824,0.007581711,0,
00:03.9,-0.001796722,-0.000291824,0.007633209,0,
00:03.9,-0.001796722,-0.00022316,0.007638931,0,
00:03.9,-0.001791,-0.000205994,0.007633209,0,
00:03.9,-0.001791,-0.000240326,0.007621765,0,
00:03.9,-0.001785278,-0.000257492,0.007644653,0,
00:03.9,-0.001785278,-0.000257492,0.007656097,0,
00:03.9,-0.001779556,-0.000274658,0.007650375,0,
00:03.9,-0.001808167,-0.000268936,0.007627487,0,
00:03.9,-0.001802444,-0.00022316,0.007621765,0,
00:03.9,-0.001791,-0.000234604,0.007616043,0,
00:03.9,-0.001785278,-0.000234604,0.007627487,0,
00:03.9,-0.001785278,-0.00025177,0.007650375,0,
00:03.9,-0.001796722,-0.000291824,0.007627487,0,
00:03.9,-0.001802444,-0.00028038,0.007656097,0,
00:03.9,-0.001791,-0.000234604,0.007650375,0,
00:03.9,-0.001791,-0.000211716,0.007638931,0,
00:04.0,-0.001768112,-0.000148773,0.007627487,0,
00:04.0,-0.00173378,-0.000114441,0.007604599,0,
00:04.0,-0.001791,-0.000234604,0.007621765,0,
00:04.0,-0.001831055,-0.000274658,0.007621765,0,
00:04.0,-0.001808167,-0.000297546,0.007638931,0,
00:04.0,-0.001796722,-0.000291824,0.007656097,0,
00:04.0,-0.001791,-0.000257492,0.007656097,0,
00:04.0,-0.001796722,-0.000257492,0.007644653,0,
00:04.0,-0.001796722,-0.000286102,0.007644653,0,
00:04.0,-0.001779556,-0.000263214,0.007644653,0,
00:04.0,-0.00173378,-0.000165939,0.007644653,0,
00:04.0,-0.001808167,-0.000326157,0.007633209,0,
00:00:04,-0.001836777,-0.000360489,0.007650375,0,
00:04.0,-0.001819611,-0.00030899,0.007656097,0,
00:04.0,-0.001785278,-0.000228882,0.007644653,0,
00:04.0,-0.001796722,-0.000228882,0.007638931,0,
00:04.0,-0.001791,-0.000217438,0.007667542,0,
00:04.0,-0.001779556,-0.000228882,0.007650375,0,
00:04.0,-0.001791,-0.00025177,0.007644653,0,
00:04.0,-0.001791,-0.000246048,0.007673264,0,
00:04.0,-0.001791,-0.000228882,0.007661819,0,
00:04.0,-0.001768112,-0.000205994,0.007656097,0,
00:04.0,-0.00176239,-0.000200272,0.007638931,0,
00:04.0,-0.001796722,-0.000263214,0.007627487,0,
00:04.0,-0.001813889,-0.00028038,0.007638931,0,
00:04.1,-0.001808167,-0.00028038,0.007633209,0,
00:04.1,-0.001791,-0.000257492,0.007650375,0,
00:04.1,-0.001785278,-0.000263214,0.007673264,0,
00:04.1,-0.001791,-0.00025177,0.007673264,0,
00:04.1,-0.001768112,-0.000211716,0.007667542,0,
00:04.1,-0.001808167,-0.000371933,0.007644653,0,
00:04.1,-0.001853943,-0.000514984,0.007661819,0,
00:04.1,-0.001831055,-0.000400543,0.007661819,0,
00:04.1,-0.001791,-0.000217438,0.007650375,0,
00:04.1,-0.001768112,-0.000154495,0.007638931,0,
00:04.1,-0.001768112,-0.000205994,0.007673264,0,
00:04.1,-0.001773834,-0.000205994,0.007678986,0,
00:04.1,-0.001785278,-0.000200272,0.007650375,0,
00:04.1,-0.001785278,-0.000217438,0.007667542,0,
00:04.1,-0.001791,-0.000257492,0.007656097,0,
00:04.1,-0.001791,-0.000263214,0.007644653,0,
00:04.1,-0.001773834,-0.000240326,0.007667542,0,
00:04.1,-0.001773834,-0.000234604,0.007667542,0,
00:04.1,-0.001796722,-0.00028038,0.007667542,0,
00:04.1,-0.001796722,-0.000257492,0.007661819,0,
00:04.1,-0.001813889,-0.000297546,0.007673264,0,
00:04.1,-0.001802444,-0.000286102,0.00769043,0,
00:04.1,-0.001791,-0.000297546,0.007673264,0,
00:04.1,-0.001791,-0.00028038,0.007661819,0,
00:04.1,-0.001773834,-0.000228882,0.007673264,0,
00:04.2,-0.001779556,-0.00022316,0.007667542,0,
00:04.2,-0.001785278,-0.000234604,0.007656097,0,
00:04.2,-0.001791,-0.000268936,0.007673264,0,
00:04.2,-0.001813889,-0.000326157,0.007678986,0,
00:04.2,-0.001819611,-0.000383377,0.007667542,0,
00:04.2,-0.001808167,-0.000343323,0.007678986,0,
00:04.2,-0.001791,-0.000263214,0.007701874,0,
00:04.2,-0.001796722,-0.00028038,0.007696152,0,
00:04.2,-0.001796722,-0.000331879,0.00769043,0,
00:04.2,-0.001791,-0.000291824,0.007684708,0,
00:04.2,-0.001796722,-0.000165939,0.007684708,0,
00:04.2,-0.001808167,-0.000114441,0.007673264,0,
00:04.2,-0.001768112,-0.000160217,0.007667542,0,
00:04.2,-0.001756668,-0.000200272,0.007650375,0,
00:04.2,-0.001779556,-0.000268936,0.007650375,0,
00:04.2,-0.001796722,-0.000343323,0.007673264,0,
00:04.2,-0.001808167,-0.000366211,0.007707596,0,
00:04.2,-0.001808167,-0.000354767,0.007707596,0,
00:04.2,-0.001796722,-0.000274658,0.00769043,0,
00:04.2,-0.001785278,-0.000246048,0.007678986,0,
00:04.2,-0.001785278,-0.000286102,0.007678986,0,
00:04.2,-0.001791,-0.000331879,0.00769043,0,
00:04.2,-0.001802444,-0.000286102,0.007678986,0,
00:04.2,-0.001808167,-0.000268936,0.007678986,0,
00:04.2,-0.001802444,-0.000268936,0.007673264,0,
00:04.3,-0.001808167,-0.000268936,0.007673264,0,
00:04.3,-0.001796722,-0.000263214,0.007684708,0,
00:04.3,-0.001785278,-0.000291824,0.007684708,0,
00:04.3,-0.001791,-0.000274658,0.007678986,0,
00:04.3,-0.00176239,-0.000234604,0.007673264,0,
00:04.3,-0.001768112,-0.000240326,0.007678986,0,
00:04.3,-0.001808167,-0.000286102,0.007678986,0,
00:04.3,-0.001808167,-0.000263214,0.007684708,0,
00:04.3,-0.001796722,-0.000268936,0.00769043,0,
00:04.3,-0.001791,-0.00028038,0.007701874,0,
00:04.3,-0.001796722,-0.000286102,0.007673264,0,
00:04.3,-0.001819611,-0.00028038,0.007661819,0,
00:04.3,-0.001819611,-0.00030899,0.007684708,0,
00:04.3,-0.001779556,-0.000349045,0.007696152,0,
00:04.3,-0.001739502,-0.000263214,0.00769043,0,
00:04.3,-0.001779556,-0.000263214,0.007656097,0,
00:04.3,-0.001808167,-0.000291824,0.007684708,0,
00:04.3,-0.001802444,-0.00028038,0.007673264,0,
00:04.3,-0.001813889,-0.000257492,0.007678986,0,
00:04.3,-0.001796722,-0.000246048,0.007701874,0,
00:04.3,-0.001779556,-0.000240326,0.007701874,0,
00:04.3,-0.001773834,-0.000240326,0.00769043,0,
00:04.3,-0.001779556,-0.000246048,0.00769043,0,
00:04.3,-0.001796722,-0.000268936,0.007673264,0,
00:04.3,-0.001796722,-0.000303268,0.007696152,0,
00:04.4,-0.001791,-0.000286102,0.007696152,0,
00:04.4,-0.001773834,-0.000263214,0.007701874,0,
00:04.4,-0.001796722,-0.000303268,0.007661819,0,
00:04.4,-0.001808167,-0.000337601,0.007673264,0,
00:04.4,-0.001808167,-0.000354767,0.007684708,0,
00:04.4,-0.001802444,-0.00030899,0.007696152,0,
00:04.4,-0.001796722,-0.000291824,0.007707596,0,
00:04.4,-0.001785278,-0.00028038,0.007667542,0,
00:04.4,-0.001796722,-0.000303268,0.007678986,0,
00:04.4,-0.001808167,-0.000371933,0.007707596,0,
00:04.4,-0.001796722,-0.000320435,0.007696152,0,
00:04.4,-0.00176239,-0.000183105,0.007701874,0,
00:04.4,-0.001773834,-0.000188828,0.007696152,0,
00:04.4,-0.001791,-0.000257492,0.007696152,0,
00:04.4,-0.001785278,-0.000268936,0.007701874,0,
00:04.4,-0.001791,-0.000263214,0.007678986,0,
00:04.4,-0.001813889,-0.00025177,0.007673264,0,
00:04.4,-0.001808167,-0.000268936,0.00769043,0,
00:04.4,-0.001791,-0.000314713,0.00769043,0,
00:04.4,-0.001791,-0.00030899,0.007684708,0,
00:04.4,-0.001791,-0.000303268,0.007701874,0,
00:04.4,-0.001796722,-0.000326157,0.007713318,0,
00:04.4,-0.001808167,-0.00030899,0.007701874,0,
00:04.4,-0.001802444,-0.00030899,0.007707596,0,
00:04.4,-0.001785278,-0.000274658,0.007707596,0,
00:04.5,-0.001768112,-0.000246048,0.007678986,0,
00:04.5,-0.001791,-0.000303268,0.007678986,0,
00:04.5,-0.001808167,-0.000349045,0.007713318,0,
00:04.5,-0.001802444,-0.000320435,0.007713318,0,
00:04.5,-0.001796722,-0.000303268,0.007707596,0,
00:04.5,-0.001802444,-0.000337601,0.007696152,0,
00:04.5,-0.001802444,-0.000354767,0.007701874,0,
00:04.5,-0.001791,-0.00028038,0.007667542,0,
00:04.5,-0.001785278,-0.000246048,0.007661819,0,
00:04.5,-0.001796722,-0.000291824,0.007713318,0,
00:04.5,-0.001802444,-0.000257492,0.007713318,0,
00:04.5,-0.001796722,-0.000263214,0.007736206,0,
00:04.5,-0.001785278,-0.000234604,0.007707596,0,
00:04.5,-0.00176239,-0.000211716,0.007701874,0,
00:04.5,-0.001791,-0.000297546,0.007707596,0,
00:04.5,-0.001802444,-0.000331879,0.007707596,0,
00:04.5,-0.001808167,-0.000320435,0.00769043,0,
00:04.5,-0.001785278,-0.00025177,0.007701874,0,
00:04.5,-0.001773834,-0.00022316,0.007701874,0,
00:04.5,-0.001825333,-0.00030899,0.007701874,0,
00:04.5,-0.001842499,-0.000366211,0.007707596,0,
00:04.5,-0.001802444,-0.000349045,0.007724762,0,
00:04.5,-0.001779556,-0.000326157,0.007707596,0,
00:04.5,-0.001791,-0.000314713,0.00771904,0,
00:04.5,-0.001802444,-0.000337601,0.007730484,0,
00:04.6,-0.001796722,-0.000337601,0.00771904,0,
00:04.6,-0.001796722,-0.000326157,0.007696152,0,
00:04.6,-0.001791,-0.000263214,0.007696152,0,
00:04.6,-0.001791,-0.000240326,0.007713318,0,
00:04.6,-0.001785278,-0.000240326,0.007713318,0,
00:04.6,-0.001785278,-0.000228882,0.007724762,0,
00:04.6,-0.001796722,-0.000268936,0.007701874,0,
00:04.6,-0.001802444,-0.000297546,0.007724762,0,
00:04.6,-0.001791,-0.00030899,0.007730484,0,
00:04.6,-0.001802444,-0.000349045,0.007724762,0,
00:04.6,-0.001796722,-0.000343323,0.007707596,0,
00:04.6,-0.001808167,-0.000366211,0.007713318,0,
00:04.6,-0.001802444,-0.000326157,0.00771904,0,
00:04.6,-0.001802444,-0.000297546,0.007713318,0,
00:04.6,-0.001785278,-0.000263214,0.007713318,0,
00:04.6,-0.00176239,-0.000234604,0.007713318,0,
00:04.6,-0.001802444,-0.000303268,0.00771904,0,
00:04.6,-0.001808167,-0.000303268,0.007713318,0,
00:04.6,-0.001796722,-0.000257492,0.007730484,0,
00:04.6,-0.001802444,-0.000274658,0.007724762,0,
00:04.6,-0.001796722,-0.00028038,0.007713318,0,
00:04.6,-0.001808167,-0.000331879,0.007730484,0,
00:04.6,-0.001808167,-0.000326157,0.007724762,0,
00:04.6,-0.001796722,-0.000297546,0.00771904,0,
00:04.6,-0.001785278,-0.00028038,0.007707596,0,
00:04.7,-0.001791,-0.000291824,0.007730484,0,
00:04.7,-0.001808167,-0.000320435,0.007713318,0,
00:04.7,-0.001808167,-0.000291824,0.007713318,0,
00:04.7,-0.001791,-0.00028038,0.00771904,0,
00:04.7,-0.001785278,-0.00030899,0.007724762,0,
00:04.7,-0.001785278,-0.000297546,0.007713318,0,
00:04.7,-0.001785278,-0.000268936,0.007707596,0,
00:04.7,-0.001802444,-0.000349045,0.00771904,0,
00:04.7,-0.001813889,-0.000389099,0.007741928,0,
00:04.7,-0.001796722,-0.000337601,0.007741928,0,
00:04.7,-0.001791,-0.000320435,0.007707596,0,
00:04.7,-0.001791,-0.000320435,0.007707596,0,
00:04.7,-0.001796722,-0.00030899,0.007713318,0,
00:04.7,-0.001808167,-0.00030899,0.007713318,0,
00:04.7,-0.001813889,-0.000257492,0.007736206,0,
00:04.7,-0.001819611,-0.00025177,0.007730484,0,
00:04.7,-0.001791,-0.000274658,0.007730484,0,
00:04.7,-0.001768112,-0.000297546,0.00771904,0,
00:04.7,-0.001785278,-0.000354767,0.007736206,0,
00:04.7,-0.001802444,-0.000349045,0.007724762,0,
00:04.7,-0.001813889,-0.00030899,0.007736206,0,
00:04.7,-0.001808167,-0.00030899,0.007730484,0,
00:04.7,-0.001791,-0.00030899,0.00771904,0,
00:04.7,-0.001791,-0.000274658,0.007707596,0,
00:04.7,-0.001791,-0.000268936,0.007730484,0,
00:04.8,-0.001796722,-0.000303268,0.007724762,0,
00:04.8,-0.001796722,-0.000320435,0.00771904,0,
00:04.8,-0.001791,-0.000337601,0.00771904,0,
00:04.8,-0.001791,-0.000343323,0.007730484,0,
00:04.8,-0.001796722,-0.000331879,0.00771904,0,
00:04.8,-0.001796722,-0.000303268,0.007724762,0,
00:04.8,-0.001791,-0.000268936,0.007724762,0,
00:04.8,-0.001813889,-0.000286102,0.007713318,0,
00:04.8,-0.001819611,-0.000314713,0.007736206,0,
00:04.8,-0.001796722,-0.00030899,0.007724762,0,
00:04.8,-0.001785278,-0.000303268,0.007730484,0,
00:04.8,-0.001756668,-0.000268936,0.007707596,0,
00:04.8,-0.00176239,-0.000320435,0.00771904,0,
00:04.8,-0.001813889,-0.000434875,0.007736206,0,
00:04.8,-0.001842499,-0.000423431,0.007707596,0,
00:04.8,-0.001813889,-0.000354767,0.00771904,0,
00:04.8,-0.001796722,-0.000286102,0.007724762,0,
00:04.8,-0.001785278,-0.00025177,0.007724762,0,
00:04.8,-0.001791,-0.000246048,0.007741928,0,
00:04.8,-0.001796722,-0.000274658,0.007741928,0,
00:04.8,-0.001802444,-0.000314713,0.007736206,0,
00:04.8,-0.001802444,-0.000343323,0.007736206,0,
00:04.8,-0.001802444,-0.000360489,0.00771904,0,
00:04.8,-0.001785278,-0.000314713,0.007730484,0,
00:04.8,-0.001791,-0.000268936,0.007736206,0,
00:04.9,-0.001825333,-0.000291824,0.00771904,0,
00:04.9,-0.001808167,-0.000337601,0.007730484,0,
00:04.9,-0.001791,-0.000326157,0.007753372,0,
00:04.9,-0.001791,-0.000303268,0.007741928,0,
00:04.9,-0.001791,-0.00030899,0.007736206,0,
00:04.9,-0.001796722,-0.000354767,0.007724762,0,
00:04.9,-0.001813889,-0.000440598,0.007730484,0,
00:04.9,-0.001813889,-0.000457764,0.00771904,0,
00:04.9,-0.001802444,-0.000343323,0.007713318,0,
00:04.9,-0.001785278,-0.000240326,0.007713318,0,
00:04.9,-0.001750946,-0.000183105,0.007736206,0,
00:04.9,-0.001756668,-0.000200272,0.007730484,0,
00:04.9,-0.001825333,-0.000326157,0.007730484,0,
00:04.9,-0.001813889,-0.000337601,0.007736206,0,
00:04.9,-0.001796722,-0.000349045,0.00774765,0,
00:04.9,-0.001785278,-0.000337601,0.00774765,0,
00:04.9,-0.001802444,-0.000371933,0.007730484,0,
00:04.9,-0.001808167,-0.000354767,0.007724762,0,
00:04.9,-0.001791,-0.000303268,0.007713318,0,
00:04.9,-0.001791,-0.000297546,0.007707596,0,
00:04.9,-0.001802444,-0.000360489,0.007759094,0,
00:04.9,-0.001808167,-0.000326157,0.007730484,0,
00:04.9,-0.001785278,-0.000274658,0.007724762,0,
00:04.9,-0.001791,-0.000291824,0.007724762,0,
00:04.9,-0.001796722,-0.000320435,0.00774765,0,
00:05.0,-0.001796722,-0.000337601,0.007736206,0,
00:05.0,-0.001796722,-0.000349045,0.00774765,0,
00:05.0,-0.001796722,-0.000337601,0.007736206,0,
00:05.0,-0.001779556,-0.000286102,0.007724762,0,
00:05.0,-0.001791,-0.000326157,0.007730484,0,
00:05.0,-0.001819611,-0.000389099,0.007736206,0,
00:05.0,-0.001808167,-0.000349045,0.007736206,0,
00:05.0,-0.001808167,-0.000314713,0.007736206,0,
00:05.0,-0.001796722,-0.000303268,0.007736206,0,
00:05.0,-0.001791,-0.000354767,0.007736206,0,
00:05.0,-0.001791,-0.000331879,0.007741928,0,
00:05.0,-0.001796722,-0.000291824,0.00771904,0,
00:00:05,-0.001808167,-0.000320435,0.007730484,0,
00:05.0,-0.001808167,-0.000343323,0.007736206,0,
00:05.0,-0.001796722,-0.000366211,0.007724762,0,
00:05.0,-0.001802444,-0.000371933,0.007741928,0,
00:05.0,-0.001791,-0.000320435,0.007730484,0,
00:05.0,-0.001796722,-0.000314713,0.007736206,0,
00:05.0,-0.001802444,-0.000337601,0.007736206,0,
00:05.0,-0.001796722,-0.000360489,0.00774765,0,
00:05.0,-0.001791,-0.000337601,0.007736206,0,
00:05.0,-0.001819611,-0.000343323,0.007736206,0,
00:05.0,-0.001825333,-0.000354767,0.007736206,0,
00:05.0,-0.001808167,-0.000394821,0.007730484,0,
00:05.0,-0.001779556,-0.000360489,0.007736206,0,
00:05.1,-0.001791,-0.00030899,0.007736206,0,
00:05.1,-0.001796722,-0.000291824,0.00774765,0,
00:05.1,-0.001796722,-0.000303268,0.007741928,0,
00:05.1,-0.001802444,-0.000326157,0.00774765,0,
00:05.1,-0.001785278,-0.000320435,0.007736206,0,
00:05.1,-0.001768112,-0.00028038,0.007724762,0,
00:05.1,-0.001813889,-0.000366211,0.007736206,0,
00:05.1,-0.001825333,-0.000383377,0.007736206,0,
00:05.1,-0.001808167,-0.000354767,0.007730484,0,
00:05.1,-0.001796722,-0.000331879,0.007753372,0,
00:05.1,-0.001785278,-0.000320435,0.007730484,0,
00:05.1,-0.001808167,-0.000394821,0.007707596,0,
00:05.1,-0.001842499,-0.000406265,0.007730484,0,
00:05.1,-0.001819611,-0.000326157,0.007764816,0,
00:05.1,-0.001791,-0.000286102,0.00774765,0,
00:05.1,-0.001791,-0.000314713,0.00771904,0,
00:05.1,-0.001802444,-0.000337601,0.007736206,0,
00:05.1,-0.001808167,-0.000366211,0.007759094,0,
00:05.1,-0.001819611,-0.000383377,0.007753372,0,
00:05.1,-0.001802444,-0.000343323,0.007753372,0,
00:05.1,-0.001785278,-0.000303268,0.007736206,0,
00:05.1,-0.001791,-0.00030899,0.007736206,0,
00:05.1,-0.001802444,-0.000337601,0.007741928,0,
00:05.1,-0.001802444,-0.000343323,0.007753372,0,
00:05.1,-0.001785278,-0.000314713,0.007736206,0,
00:05.2,-0.001802444,-0.000331879,0.00774765,0,
00:05.2,-0.001802444,-0.000337601,0.00774765,0,
00:05.2,-0.001819611,-0.000366211,0.007741928,0,
00:05.2,-0.001836777,-0.000389099,0.007741928,0,
00:05.2,-0.001791,-0.000360489,0.007759094,0,
00:05.2,-0.001791,-0.000377655,0.007724762,0,
00:05.2,-0.001819611,-0.000406265,0.00771904,0,
00:05.2,-0.001808167,-0.000360489,0.007770538,0,
00:05.2,-0.001802444,-0.000343323,0.007741928,0,
00:05.2,-0.001791,-0.000337601,0.007724762,0,
00:05.2,-0.001802444,-0.000349045,0.007724762,0,
00:05.2,-0.001808167,-0.000343323,0.00777626,0,
00:05.2,-0.001802444,-0.000326157,0.007764816,0,
00:05.2,-0.001785278,-0.00030899,0.007759094,0,
00:05.2,-0.001791,-0.000314713,0.007764816,0,
00:05.2,-0.001819611,-0.000349045,0.007753372,0,
00:05.2,-0.001813889,-0.000331879,0.007736206,0,
00:05.2,-0.001808167,-0.000343323,0.007759094,0,
00:05.2,-0.001813889,-0.000360489,0.007770538,0,
00:05.2,-0.001819611,-0.000371933,0.007753372,0,
00:05.2,-0.001802444,-0.000371933,0.00774765,0,
00:05.2,-0.001785278,-0.000331879,0.007753372,0,
00:05.2,-0.001791,-0.000320435,0.007753372,0,
00:05.2,-0.001802444,-0.000371933,0.007753372,0,
00:05.2,-0.001813889,-0.000394821,0.007764816,0,
00:05.3,-0.001808167,-0.000371933,0.007770538,0,
00:05.3,-0.001808167,-0.000354767,0.00774765,0,
00:05.3,-0.001813889,-0.000377655,0.007753372,0,
00:05.3,-0.001808167,-0.000383377,0.007753372,0,
00:05.3,-0.001796722,-0.000354767,0.00777626,0,
00:05.3,-0.001802444,-0.000343323,0.00777626,0,
00:05.3,-0.001796722,-0.000320435,0.007764816,0,
00:05.3,-0.001791,-0.000314713,0.007741928,0,
00:05.3,-0.001819611,-0.000383377,0.007741928,0,
00:05.3,-0.001819611,-0.000394821,0.007787704,0,
00:05.3,-0.001813889,-0.000371933,0.007770538,0,
00:05.3,-0.001791,-0.000331879,0.007759094,0,
00:05.3,-0.001785278,-0.000320435,0.007764816,0,
00:05.3,-0.001802444,-0.000349045,0.007770538,0,
00:05.3,-0.001819611,-0.000377655,0.007764816,0,
00:05.3,-0.001813889,-0.000394821,0.007770538,0,
00:05.3,-0.001802444,-0.000371933,0.007764816,0,
00:05.3,-0.001802444,-0.000349045,0.007753372,0,
00:05.3,-0.001808167,-0.000354767,0.007753372,0,
00:05.3,-0.001808167,-0.000366211,0.007781982,0,
00:05.3,-0.001802444,-0.000354767,0.007787704,0,
00:05.3,-0.001802444,-0.000349045,0.007770538,0,
00:05.3,-0.001796722,-0.000320435,0.007759094,0,
00:05.3,-0.001802444,-0.000337601,0.007764816,0,
00:05.3,-0.001802444,-0.000337601,0.007770538,0,
00:05.4,-0.001808167,-0.000371933,0.007764816,0,
00:05.4,-0.001813889,-0.000389099,0.007764816,0,
00:05.4,-0.001819611,-0.000371933,0.007781982,0,
00:05.4,-0.001819611,-0.000354767,0.007770538,0,
00:05.4,-0.001796722,-0.000366211,0.007759094,0,
00:05.4,-0.001791,-0.000377655,0.007764816,0,
00:05.4,-0.001813889,-0.000429153,0.007770538,0,
00:05.4,-0.001808167,-0.000411987,0.00777626,0,
00:05.4,-0.001796722,-0.000400543,0.00777626,0,
00:05.4,-0.001808167,-0.000406265,0.007781982,0,
00:05.4,-0.001808167,-0.000326157,0.007764816,0,
00:05.4,-0.001813889,-0.000326157,0.007764816,0,
00:05.4,-0.001819611,-0.000360489,0.007764816,0,
00:05.4,-0.001819611,-0.000360489,0.007764816,0,
00:05.4,-0.001802444,-0.000354767,0.007781982,0,
00:05.4,-0.001808167,-0.000371933,0.007793427,0,
00:05.4,-0.001813889,-0.000411987,0.00777626,0,
00:05.4,-0.001796722,-0.000371933,0.00777626,0,
00:05.4,-0.001796722,-0.000337601,0.00777626,0,
00:05.4,-0.001802444,-0.000337601,0.007781982,0,
00:05.4,-0.001796722,-0.000331879,0.007764816,0,
00:05.4,-0.001813889,-0.000354767,0.007753372,0,
00:05.4,-0.001813889,-0.000383377,0.007781982,0,
00:05.4,-0.001813889,-0.000383377,0.007787704,0,
00:05.4,-0.001813889,-0.000377655,0.007793427,0,
00:05.5,-0.001808167,-0.000371933,0.007787704,0,
00:05.5,-0.001808167,-0.000377655,0.00777626,0,
00:05.5,-0.001785278,-0.000354767,0.00777626,0,
00:05.5,-0.001785278,-0.000400543,0.007770538,0,
00:05.5,-0.001813889,-0.000406265,0.007770538,0,
00:05.5,-0.001831055,-0.000383377,0.007770538,0,
00:05.5,-0.001825333,-0.000400543,0.00777626,0,
00:05.5,-0.001813889,-0.000400543,0.00774765,0,
00:05.5,-0.001802444,-0.000371933,0.007787704,0,
00:05.5,-0.001808167,-0.000366211,0.007799149,0,
00:05.5,-0.001819611,-0.000394821,0.007793427,0,
00:05.5,-0.001825333,-0.000469208,0.007799149,0,
00:05.5,-0.001819611,-0.000457764,0.007793427,0,
00:05.5,-0.001796722,-0.000349045,0.007787704,0,
00:05.5,-0.00176239,-0.00022316,0.007787704,0,
00:05.5,-0.00176239,-0.000228882,0.00777626,0,
00:05.5,-0.001808167,-0.000354767,0.007759094,0,
00:05.5,-0.001825333,-0.000406265,0.007753372,0,
00:05.5,-0.001819611,-0.000394821,0.00777626,0,
00:05.5,-0.001819611,-0.000389099,0.007804871,0,
00:05.5,-0.001813889,-0.000417709,0.007799149,0,
00:05.5,-0.001808167,-0.000411987,0.007793427,0,
00:05.5,-0.001819611,-0.000440598,0.007793427,0,
00:05.5,-0.001813889,-0.000417709,0.007787704,0,
00:05.5,-0.001791,-0.000360489,0.007781982,0,
00:05.6,-0.001802444,-0.000349045,0.00777626,0,
00:05.6,-0.001819611,-0.000383377,0.00777626,0,
00:05.6,-0.001825333,-0.000371933,0.007770538,0,
00:05.6,-0.001819611,-0.000400543,0.007759094,0,
00:05.6,-0.001808167,-0.000406265,0.007781982,0,
00:05.6,-0.001802444,-0.000383377,0.007787704,0,
00:05.6,-0.001802444,-0.000371933,0.007799149,0,
00:05.6,-0.001808167,-0.000394821,0.007787704,0,
00:05.6,-0.001808167,-0.000406265,0.007799149,0,
00:05.6,-0.001808167,-0.000389099,0.007787704,0,
00:05.6,-0.001808167,-0.000389099,0.007787704,0,
00:05.6,-0.001808167,-0.000394821,0.007781982,0,
00:05.6,-0.001796722,-0.000377655,0.00777626,0,
00:05.6,-0.001791,-0.000371933,0.007759094,0,
00:05.6,-0.001802444,-0.000366211,0.007770538,0,
00:05.6,-0.001819611,-0.000423431,0.007781982,0,
00:05.6,-0.001796722,-0.000400543,0.007799149,0,
00:05.6,-0.001791,-0.000400543,0.007804871,0,
00:05.6,-0.001819611,-0.000411987,0.007787704,0,
00:05.6,-0.001825333,-0.000389099,0.007793427,0,
00:05.6,-0.001808167,-0.000389099,0.007781982,0,
00:05.6,-0.001813889,-0.000400543,0.007787704,0,
00:05.6,-0.001808167,-0.000377655,0.007787704,0,
00:05.6,-0.001808167,-0.000360489,0.007793427,0,
00:05.6,-0.001802444,-0.000349045,0.00777626,0,
00:05.7,-0.001808167,-0.000377655,0.007764816,0,
00:05.7,-0.001808167,-0.000394821,0.007799149,0,
00:05.7,-0.001813889,-0.000411987,0.007799149,0,
00:05.7,-0.001819611,-0.000417709,0.007781982,0,
00:05.7,-0.001813889,-0.000411987,0.00777626,0,
00:05.7,-0.001808167,-0.000411987,0.007787704,0,
00:05.7,-0.001796722,-0.000377655,0.007781982,0,
00:05.7,-0.001802444,-0.000383377,0.007759094,0,
00:05.7,-0.001808167,-0.000411987,0.007799149,0,
00:05.7,-0.001831055,-0.00047493,0.007810593,0,
00:05.7,-0.001813889,-0.000417709,0.007804871,0,
00:05.7,-0.001808167,-0.000389099,0.007793427,0,
00:05.7,-0.001808167,-0.000417709,0.007787704,0,
00:05.7,-0.001802444,-0.000434875,0.007804871,0,
00:05.7,-0.001808167,-0.000411987,0.007804871,0,
00:05.7,-0.001813889,-0.000423431,0.007799149,0,
00:05.7,-0.001813889,-0.000394821,0.007781982,0,
00:05.7,-0.001808167,-0.000366211,0.007787704,0,
00:05.7,-0.001808167,-0.000354767,0.007793427,0,
00:05.7,-0.001808167,-0.000354767,0.007781982,0,
00:05.7,-0.001808167,-0.000377655,0.007793427,0,
00:05.7,-0.001808167,-0.000406265,0.007810593,0,
00:05.7,-0.001813889,-0.000423431,0.007793427,0,
00:05.7,-0.001813889,-0.000434875,0.007793427,0,
00:05.7,-0.001796722,-0.000406265,0.007787704,0,
00:05.8,-0.001791,-0.000383377,0.007764816,0,
00:05.8,-0.001813889,-0.000400543,0.00774765,0,
00:05.8,-0.001825333,-0.000429153,0.007787704,0,
00:05.8,-0.001819611,-0.000440598,0.007804871,0,
00:05.8,-0.001813889,-0.000440598,0.007810593,0,
00:05.8,-0.001808167,-0.000417709,0.007804871,0,
00:05.8,-0.001813889,-0.000434875,0.007793427,0,
00:05.8,-0.001813889,-0.000434875,0.007793427,0,
00:05.8,-0.001796722,-0.000400543,0.007799149,0,
00:05.8,-0.001773834,-0.000354767,0.007793427,0,
00:05.8,-0.001808167,-0.00044632,0.007770538,0,
00:05.8,-0.001825333,-0.000480652,0.007793427,0,
00:05.8,-0.001808167,-0.000406265,0.007787704,0,
00:05.8,-0.001808167,-0.000377655,0.007793427,0,
00:05.8,-0.001808167,-0.000377655,0.007799149,0,
00:05.8,-0.001808167,-0.000400543,0.007804871,0,
00:05.8,-0.001819611,-0.000423431,0.007799149,0,
00:05.8,-0.001813889,-0.000423431,0.007799149,0,
00:05.8,-0.001813889,-0.000434875,0.007793427,0,
00:05.8,-0.001813889,-0.000429153,0.007799149,0,
00:05.8,-0.001813889,-0.000423431,0.007793427,0,
00:05.8,-0.001802444,-0.000423431,0.007787704,0,
00:05.8,-0.001791,-0.000383377,0.00774765,0,
00:05.8,-0.001796722,-0.000389099,0.007764816,0,
00:05.8,-0.001819611,-0.000417709,0.007810593,0,
00:05.9,-0.001813889,-0.000400543,0.007799149,0,
00:05.9,-0.001813889,-0.000400543,0.007787704,0,
00:05.9,-0.001802444,-0.000400543,0.007799149,0,
00:05.9,-0.001808167,-0.000457764,0.007810593,0,
00:05.9,-0.001819611,-0.000480652,0.007822037,0,
00:05.9,-0.001813889,-0.000457764,0.007810593,0,
00:05.9,-0.001808167,-0.000440598,0.007781982,0,
00:05.9,-0.001808167,-0.000434875,0.007793427,0,
00:05.9,-0.001813889,-0.000434875,0.007810593,0,
00:05.9,-0.001813889,-0.000423431,0.007787704,0,
00:05.9,-0.001796722,-0.000371933,0.007764816,0,
00:05.9,-0.001796722,-0.000400543,0.007816315,0,
00:05.9,-0.001831055,-0.00047493,0.007810593,0,
00:05.9,-0.001813889,-0.000434875,0.007810593,0,
00:05.9,-0.001808167,-0.000411987,0.007810593,0,
00:05.9,-0.001808167,-0.000389099,0.007799149,0,
00:05.9,-0.001802444,-0.000394821,0.007799149,0,
00:05.9,-0.001802444,-0.000400543,0.007787704,0,
00:05.9,-0.001808167,-0.000434875,0.007781982,0,
00:05.9,-0.001796722,-0.000440598,0.007804871,0,
00:05.9,-0.001819611,-0.000457764,0.007770538,0,
00:05.9,-0.001808167,-0.000406265,0.007816315,0,
00:05.9,-0.001808167,-0.000383377,0.007804871,0,
00:05.9,-0.001796722,-0.000383377,0.007816315,0,
00:05.9,-0.001808167,-0.000417709,0.007793427,0,
00:06.0,-0.001825333,-0.000480652,0.007799149,0,
00:06.0,-0.001825333,-0.000469208,0.007799149,0,
00:06.0,-0.001825333,-0.000463486,0.007799149,0,
00:06.0,-0.001808167,-0.000411987,0.007799149,0,
00:06.0,-0.001808167,-0.000394821,0.007793427,0,
00:06.0,-0.001813889,-0.000417709,0.007793427,0,
00:06.0,-0.001813889,-0.000452042,0.007799149,0,
00:06.0,-0.001802444,-0.000434875,0.007793427,0,
00:06.0,-0.001813889,-0.000440598,0.007793427,0,
00:06.0,-0.001813889,-0.000429153,0.007822037,0,
00:06.0,-0.001813889,-0.000440598,0.007810593,0,
00:06.0,-0.001802444,-0.000434875,0.007799149,0,
00:00:06,-0.001808167,-0.000400543,0.007781982,0,
00:06.0,-0.001808167,-0.000400543,0.007804871,0,
00:06.0,-0.001802444,-0.000417709,0.007781982,0,
00:06.0,-0.001813889,-0.000469208,0.007793427,0,
00:06.0,-0.001825333,-0.00047493,0.007810593,0,
00:06.0,-0.001825333,-0.000434875,0.007787704,0,
00:06.0,-0.001813889,-0.000429153,0.007810593,0,
00:06.0,-0.001819611,-0.000457764,0.007816315,0,
00:06.0,-0.001819611,-0.000480652,0.007822037,0,
00:06.0,-0.001808167,-0.000469208,0.007810593,0,
00:06.0,-0.001802444,-0.000423431,0.007799149,0,
00:06.0,-0.001808167,-0.000434875,0.007810593,0,
00:06.0,-0.001813889,-0.00044632,0.007810593,0,
00:06.1,-0.001808167,-0.000429153,0.007827759,0,
00:06.1,-0.001813889,-0.000406265,0.007804871,0,
00:06.1,-0.001813889,-0.000394821,0.007804871,0,
00:06.1,-0.001808167,-0.000411987,0.007822037,0,
00:06.1,-0.001813889,-0.000423431,0.007804871,0,
00:06.1,-0.001808167,-0.000434875,0.007816315,0,
00:06.1,-0.001808167,-0.000434875,0.007804871,0,
00:06.1,-0.001819611,-0.000486374,0.007804871,0,
00:06.1,-0.001825333,-0.000492096,0.007804871,0,
00:06.1,-0.001813889,-0.000434875,0.007816315,0,
00:06.1,-0.001796722,-0.000389099,0.007787704,0,
00:06.1,-0.001796722,-0.000411987,0.007793427,0,
00:06.1,-0.001808167,-0.000423431,0.007804871,0,
00:06.1,-0.001813889,-0.000434875,0.007816315,0,
00:06.1,-0.001819611,-0.00044632,0.007810593,0,
00:06.1,-0.001825333,-0.000480652,0.007781982,0,
00:06.1,-0.001819611,-0.00047493,0.007810593,0,
00:06.1,-0.001796722,-0.000429153,0.007839203,0,
00:06.1,-0.001813889,-0.00044632,0.007793427,0,
00:06.1,-0.001831055,-0.00047493,0.007816315,0,
00:06.1,-0.001813889,-0.000440598,0.007833481,0,
00:06.1,-0.001802444,-0.000417709,0.007827759,0,
00:06.1,-0.001802444,-0.000423431,0.007810593,0,
00:06.1,-0.001819611,-0.000463486,0.007810593,0,
00:06.1,-0.001831055,-0.000463486,0.007810593,0,
00:06.2,-0.001819611,-0.000480652,0.007816315,0,
00:06.2,-0.001808167,-0.000469208,0.007810593,0,
00:06.2,-0.001808167,-0.000440598,0.007804871,0,
00:06.2,-0.001813889,-0.000423431,0.007804871,0,
00:06.2,-0.001813889,-0.000423431,0.007804871,0,
00:06.2,-0.001802444,-0.000423431,0.007816315,0,
00:06.2,-0.001802444,-0.000423431,0.007816315,0,
00:06.2,-0.001796722,-0.000429153,0.007804871,0,
00:06.2,-0.001819611,-0.000492096,0.007804871,0,
00:06.2,-0.001819611,-0.000480652,0.007810593,0,
00:06.2,-0.001813889,-0.000452042,0.007793427,0,
00:06.2,-0.001819611,-0.000469208,0.007804871,0,
00:06.2,-0.001813889,-0.00044632,0.007839203,0,
00:06.2,-0.001808167,-0.000434875,0.007833481,0,
00:06.2,-0.001796722,-0.000423431,0.007827759,0,
00:06.2,-0.001813889,-0.000463486,0.007810593,0,
00:06.2,-0.001813889,-0.00047493,0.007822037,0,
00:06.2,-0.001808167,-0.000452042,0.007810593,0,
00:06.2,-0.001819611,-0.000469208,0.007799149,0,
00:06.2,-0.001813889,-0.00044632,0.007816315,0,
00:06.2,-0.001813889,-0.00044632,0.007827759,0,
00:06.2,-0.001825333,-0.00047493,0.007810593,0,
00:06.2,-0.001825333,-0.00047493,0.007822037,0,
00:06.2,-0.001819611,-0.000452042,0.007816315,0,
00:06.2,-0.001802444,-0.000440598,0.007816315,0,
00:06.3,-0.001773834,-0.000400543,0.007804871,0,
00:06.3,-0.001808167,-0.000452042,0.007787704,0,
00:06.3,-0.001831055,-0.000480652,0.007816315,0,
00:06.3,-0.001819611,-0.000440598,0.007839203,0,
00:06.3,-0.001819611,-0.00044632,0.007827759,0,
00:06.3,-0.001813889,-0.00044632,0.007827759,0,
00:06.3,-0.001813889,-0.000452042,0.007833481,0,
00:06.3,-0.001813889,-0.000452042,0.007827759,0,
00:06.3,-0.001813889,-0.000452042,0.007833481,0,
00:06.3,-0.001802444,-0.000440598,0.007833481,0,
00:06.3,-0.001802444,-0.00044632,0.007816315,0,
00:06.3,-0.001813889,-0.00047493,0.007781982,0,
00:06.3,-0.001831055,-0.000509262,0.007816315,0,
00:06.3,-0.001819611,-0.00047493,0.007844925,0,
00:06.3,-0.001819611,-0.000457764,0.007833481,0,
00:06.3,-0.001813889,-0.000440598,0.007833481,0,
00:06.3,-0.001819611,-0.000457764,0.007833481,0,
00:06.3,-0.001819611,-0.000497818,0.007827759,0,
00:06.3,-0.001825333,-0.000526428,0.007827759,0,
00:06.3,-0.001813889,-0.000514984,0.007827759,0,
00:06.3,-0.001779556,-0.000423431,0.007822037,0,
00:06.3,-0.001796722,-0.000394821,0.007793427,0,
00:06.3,-0.001825333,-0.000429153,0.007799149,0,
00:06.3,-0.001819611,-0.00047493,0.007833481,0,
00:06.3,-0.001836777,-0.000526428,0.007839203,0,
00:06.4,-0.001825333,-0.000492096,0.007839203,0,
00:06.4,-0.001813889,-0.000452042,0.007839203,0,
00:06.4,-0.001808167,-0.000423431,0.007822037,0,
00:06.4,-0.001808167,-0.000429153,0.007822037,0,
00:06.4,-0.001808167,-0.00044632,0.007827759,0,
00:06.4,-0.001808167,-0.000469208,0.007839203,0,
00:06.4,-0.001825333,-0.00047493,0.007822037,0,
00:06.4,-0.001819611,-0.000457764,0.007804871,0,
00:06.4,-0.001813889,-0.000457764,0.007804871,0,
00:06.4,-0.001813889,-0.000463486,0.007844925,0,
00:06.4,-0.001819611,-0.00047493,0.007856369,0,
00:06.4,-0.001825333,-0.000486374,0.007833481,0,
00:06.4,-0.001819611,-0.000486374,0.007833481,0,
00:06.4,-0.001813889,-0.000469208,0.007833481,0,
00:06.4,-0.001819611,-0.000469208,0.007822037,0,
00:06.4,-0.001819611,-0.00047493,0.007822037,0,
00:06.4,-0.001802444,-0.000440598,0.007810593,0,
00:06.4,-0.001802444,-0.000440598,0.007822037,0,
00:06.4,-0.001825333,-0.000497818,0.007839203,0,
00:06.4,-0.001836777,-0.000537872,0.007844925,0,
00:06.4,-0.001831055,-0.000520706,0.007844925,0,
00:06.4,-0.001819611,-0.000492096,0.007844925,0,
00:06.4,-0.001813889,-0.000463486,0.007833481,0,
00:06.4,-0.001819611,-0.000480652,0.007839203,0,
00:06.4,-0.001819611,-0.000440598,0.007804871,0,
00:06.5,-0.001819611,-0.000440598,0.007833481,0,
00:06.5,-0.001825333,-0.000463486,0.007850647,0,
00:06.5,-0.001825333,-0.000457764,0.007839203,0,
00:06.5,-0.001813889,-0.000452042,0.007862091,0,
00:06.5,-0.001808167,-0.000457764,0.007850647,0,
00:06.5,-0.001808167,-0.00047493,0.007839203,0,
00:06.5,-0.001825333,-0.000514984,0.007833481,0,
00:06.5,-0.001836777,-0.000526428,0.007867813,0,
00:06.5,-0.001819611,-0.00050354,0.007867813,0,
00:06.5,-0.001813889,-0.000457764,0.007844925,0,
00:06.5,-0.001819611,-0.00044632,0.007839203,0,
00:06.5,-0.001825333,-0.000452042,0.007856369,0,
00:06.5,-0.001825333,-0.000463486,0.007844925,0,
00:06.5,-0.001825333,-0.00047493,0.007862091,0,
00:06.5,-0.001819611,-0.000480652,0.007862091,0,
00:06.5,-0.001819611,-0.000497818,0.007856369,0,
00:06.5,-0.001825333,-0.000526428,0.007844925,0,
00:06.5,-0.001825333,-0.000514984,0.007827759,0,
00:06.5,-0.001802444,-0.000457764,0.007844925,0,
00:06.5,-0.001808167,-0.000452042,0.007839203,0,
00:06.5,-0.001819611,-0.000469208,0.007856369,0,
00:06.5,-0.001791,-0.000417709,0.007862091,0,
00:06.5,-0.001836777,-0.000514984,0.007856369,0,
00:06.5,-0.001853943,-0.000526428,0.007873535,0,
00:06.5,-0.001836777,-0.000497818,0.007873535,0,
00:06.6,-0.001825333,-0.000480652,0.007867813,0,
00:06.6,-0.001813889,-0.000452042,0.007862091,0,
00:06.6,-0.001819611,-0.000457764,0.007856369,0,
00:06.6,-0.001813889,-0.000469208,0.007850647,0,
00:06.6,-0.001796722,-0.000469208,0.007833481,0,
00:06.6,-0.001808167,-0.000463486,0.007844925,0,
00:06.6,-0.001831055,-0.000469208,0.007862091,0,
00:06.6,-0.001831055,-0.00047493,0.007867813,0,
00:06.6,-0.001831055,-0.000486374,0.007879257,0,
00:06.6,-0.001825333,-0.000497818,0.007890701,0,
00:06.6,-0.001819611,-0.000486374,0.007879257,0,
00:06.6,-0.001819611,-0.000480652,0.007867813,0,
00:06.6,-0.001825333,-0.000509262,0.007867813,0,
00:06.6,-0.001831055,-0.000549316,0.007873535,0,
00:06.6,-0.001831055,-0.000526428,0.007850647,0,
00:06.6,-0.001819611,-0.000480652,0.007867813,0,
00:06.6,-0.001796722,-0.000429153,0.007867813,0,
00:06.6,-0.001796722,-0.000434875,0.007867813,0,
00:06.6,-0.001831055,-0.000480652,0.007867813,0,
00:06.6,-0.001836777,-0.000492096,0.007902145,0,
00:06.6,-0.001831055,-0.000492096,0.007890701,0,
00:06.6,-0.001825333,-0.000492096,0.007884979,0,
00:06.6,-0.001808167,-0.000452042,0.007890701,0,
00:06.6,-0.001813889,-0.000457764,0.007879257,0,
00:06.6,-0.001836777,-0.00050354,0.007890701,0,
00:06.7,-0.001836777,-0.000497818,0.007902145,0,
00:06.7,-0.001836777,-0.000486374,0.007879257,0,
00:06.7,-0.001831055,-0.000486374,0.007890701,0,
00:06.7,-0.001825333,-0.000509262,0.007896423,0,
00:06.7,-0.001825333,-0.000486374,0.007896423,0,
00:06.7,-0.001825333,-0.00047493,0.007896423,0,
00:06.7,-0.001819611,-0.000469208,0.007890701,0,
00:06.7,-0.001825333,-0.00047493,0.007873535,0,
00:06.7,-0.001825333,-0.000492096,0.007884979,0,
00:06.7,-0.001825333,-0.000486374,0.007907867,0,
00:06.7,-0.001825333,-0.000480652,0.007884979,0,
00:06.7,-0.001819611,-0.000469208,0.007884979,0,
00:06.7,-0.001802444,-0.00044632,0.007907867,0,
00:06.7,-0.001808167,-0.000457764,0.007896423,0,
00:06.7,-0.001842499,-0.00053215,0.007890701,0,
00:06.7,-0.001842499,-0.000526428,0.007890701,0,
00:06.7,-0.001836777,-0.000509262,0.007896423,0,
00:06.7,-0.001836777,-0.000509262,0.007896423,0,
00:06.7,-0.001831055,-0.000492096,0.007884979,0,
00:06.7,-0.001819611,-0.000480652,0.007902145,0,
00:06.7,-0.001819611,-0.000480652,0.007907867,0,
00:06.7,-0.001831055,-0.00050354,0.007890701,0,
00:06.7,-0.001825333,-0.000480652,0.007913589,0,
00:06.7,-0.001831055,-0.000509262,0.007913589,0,
00:06.7,-0.001836777,-0.000497818,0.007896423,0,
00:06.8,-0.001831055,-0.00050354,0.007913589,0,
00:06.8,-0.001831055,-0.00050354,0.007913589,0,
00:06.8,-0.001831055,-0.000497818,0.007907867,0,
00:06.8,-0.001831055,-0.000492096,0.007907867,0,
00:06.8,-0.001825333,-0.000514984,0.007913589,0,
00:06.8,-0.001813889,-0.000486374,0.007913589,0,
00:06.8,-0.001796722,-0.000440598,0.007907867,0,
00:06.8,-0.001819611,-0.000440598,0.007879257,0,
00:06.8,-0.001848221,-0.00050354,0.007896423,0,
00:06.8,-0.001848221,-0.000549316,0.007907867,0,
00:06.8,-0.001831055,-0.000514984,0.007936478,0,
00:06.8,-0.001831055,-0.000486374,0.007913589,0,
00:06.8,-0.001831055,-0.000492096,0.007913589,0,
00:06.8,-0.001831055,-0.000509262,0.007913589,0,
00:06.8,-0.001831055,-0.000509262,0.007936478,0,
00:06.8,-0.001831055,-0.00050354,0.007919312,0,
00:06.8,-0.001831055,-0.000514984,0.007913589,0,
00:06.8,-0.001831055,-0.000509262,0.007907867,0,
00:06.8,-0.001825333,-0.00047493,0.007890701,0,
00:06.8,-0.001808167,-0.000452042,0.007907867,0,
00:06.8,-0.001813889,-0.00047493,0.007919312,0,
00:06.8,-0.001848221,-0.000537872,0.007930756,0,
00:06.8,-0.001836777,-0.000520706,0.007930756,0,
00:06.8,-0.001836777,-0.000509262,0.007936478,0,
00:06.8,-0.001836777,-0.000520706,0.007936478,0,
00:06.9,-0.001836777,-0.00053215,0.007919312,0,
00:06.9,-0.001836777,-0.000509262,0.007925034,0,
00:06.9,-0.001836777,-0.000492096,0.007925034,0,
00:06.9,-0.001831055,-0.00050354,0.007925034,0,
00:06.9,-0.001825333,-0.00050354,0.007925034,0,
00:06.9,-0.001819611,-0.000463486,0.007919312,0,
00:06.9,-0.001808167,-0.000417709,0.007913589,0,
00:06.9,-0.001819611,-0.000463486,0.007902145,0,
00:06.9,-0.001831055,-0.000514984,0.007913589,0,
00:06.9,-0.001836777,-0.000514984,0.007930756,0,
00:06.9,-0.001836777,-0.000549316,0.007953644,0,
00:06.9,-0.001848221,-0.000572205,0.007947922,0,
00:06.9,-0.001848221,-0.000537872,0.007953644,0,
00:06.9,-0.001831055,-0.000509262,0.007947922,0,
00:06.9,-0.001825333,-0.00050354,0.0079422,0,
00:06.9,-0.001819611,-0.000492096,0.0079422,0,
00:06.9,-0.001831055,-0.000492096,0.007936478,0,
00:06.9,-0.001836777,-0.000497818,0.007936478,0,
00:06.9,-0.001831055,-0.000492096,0.007936478,0,
00:06.9,-0.001831055,-0.00050354,0.007930756,0,
00:06.9,-0.001836777,-0.00053215,0.007930756,0,
00:06.9,-0.001842499,-0.00053215,0.007919312,0,
00:06.9,-0.001831055,-0.00050354,0.007902145,0,
00:06.9,-0.001825333,-0.000492096,0.0079422,0,
00:06.9,-0.001836777,-0.000509262,0.007976532,0,
00:07.0,-0.001836777,-0.000509262,0.007953644,0,
00:07.0,-0.001831055,-0.000514984,0.007947922,0,
00:07.0,-0.001836777,-0.00056076,0.0079422,0,
00:07.0,-0.001831055,-0.000555038,0.007947922,0,
00:07.0,-0.001842499,-0.000543594,0.0079422,0,
00:07.0,-0.001836777,-0.000480652,0.007947922,0,
00:07.0,-0.001831055,-0.000463486,0.007930756,0,
00:07.0,-0.001842499,-0.000492096,0.007936478,0,
00:07.0,-0.001836777,-0.000514984,0.007947922,0,
00:07.0,-0.001831055,-0.000514984,0.007959366,0,
00:07.0,-0.001842499,-0.00053215,0.007959366,0,
00:07.0,-0.001848221,-0.00056076,0.007965088,0,
00:00:07,-0.001842499,-0.000555038,0.007953644,0,
00:07.0,-0.001842499,-0.000537872,0.007959366,0,
00:07.0,-0.001836777,-0.000486374,0.0079422,0,
00:07.0,-0.001836777,-0.000497818,0.007965088,0,
00:07.0,-0.001836777,-0.000509262,0.007947922,0,
00:07.0,-0.001836777,-0.000520706,0.007947922,0,
00:07.0,-0.001831055,-0.000520706,0.0079422,0,
00:07.0,-0.001842499,-0.000537872,0.007965088,0,
00:07.0,-0.001853943,-0.000543594,0.007982254,0,
00:07.0,-0.001848221,-0.000497818,0.007959366,0,
00:07.0,-0.001836777,-0.00047493,0.007947922,0,
00:07.0,-0.001836777,-0.000480652,0.007953644,0,
00:07.0,-0.001836777,-0.00050354,0.007982254,0,
00:07.1,-0.001842499,-0.000526428,0.007976532,0,
00:07.1,-0.001842499,-0.000537872,0.007976532,0,
00:07.1,-0.001836777,-0.000520706,0.007965088,0,
00:07.1,-0.001836777,-0.000520706,0.007959366,0,
00:07.1,-0.001842499,-0.000526428,0.007976532,0,
00:07.1,-0.001848221,-0.000526428,0.007976532,0,
00:07.1,-0.001842499,-0.000526428,0.007976532,0,
00:07.1,-0.001842499,-0.00053215,0.00797081,0,
00:07.1,-0.001842499,-0.000537872,0.007982254,0,
00:07.1,-0.001848221,-0.000549316,0.007976532,0,
00:07.1,-0.001842499,-0.000555038,0.007982254,0,
00:07.1,-0.001836777,-0.000543594,0.007965088,0,
00:07.1,-0.001819611,-0.00047493,0.007953644,0,
00:07.1,-0.001825333,-0.000492096,0.007987976,0,
00:07.1,-0.001876831,-0.000617981,0.00799942,0,
00:07.1,-0.001859665,-0.000577927,0.007982254,0,
00:07.1,-0.001848221,-0.00053215,0.007987976,0,
00:07.1,-0.001848221,-0.000520706,0.008010864,0,
00:07.1,-0.001848221,-0.000526428,0.008010864,0,
00:07.1,-0.001848221,-0.000520706,0.008010864,0,
00:07.1,-0.001842499,-0.000509262,0.008005142,0,
00:07.1,-0.001842499,-0.00050354,0.007993698,0,
00:07.1,-0.001842499,-0.000520706,0.007993698,0,
00:07.1,-0.001842499,-0.000537872,0.008005142,0,
00:07.1,-0.001842499,-0.000520706,0.00799942,0,
00:07.2,-0.001842499,-0.00050354,0.008010864,0,
00:07.2,-0.001848221,-0.000526428,0.00799942,0,
00:07.2,-0.001848221,-0.000537872,0.00799942,0,
00:07.2,-0.001859665,-0.000549316,0.008016586,0,
00:07.2,-0.001853943,-0.000537872,0.00802803,0,
00:07.2,-0.001848221,-0.000537872,0.00802803,0,
00:07.2,-0.001848221,-0.000555038,0.008022308,0,
00:07.2,-0.001853943,-0.000572205,0.008022308,0,
00:07.2,-0.001842499,-0.000572205,0.008033752,0,
00:07.2,-0.001825333,-0.000509262,0.008022308,0,
00:07.2,-0.001853943,-0.000543594,0.008005142,0,
00:07.2,-0.001853943,-0.000543594,0.008045197,0,
00:07.2,-0.001848221,-0.000497818,0.00802803,0,
00:07.2,-0.001853943,-0.000514984,0.00802803,0,
00:07.2,-0.001859665,-0.000537872,0.008050919,0,
00:07.2,-0.001853943,-0.000537872,0.008050919,0,
00:07.2,-0.001853943,-0.000543594,0.008056641,0,
00:07.2,-0.001853943,-0.000549316,0.008050919,0,
00:07.2,-0.001859665,-0.000577927,0.008056641,0,
00:07.2,-0.001853943,-0.000577927,0.008056641,0,
00:07.2,-0.001848221,-0.000543594,0.008062363,0,
00:07.2,-0.001853943,-0.00053215,0.008050919,0,
00:07.2,-0.001836777,-0.000492096,0.008033752,0,
00:07.2,-0.001819611,-0.00044632,0.00802803,0,
00:07.2,-0.001853943,-0.00053215,0.008068085,0,
00:07.3,-0.001876831,-0.000572205,0.008085251,0,
00:07.3,-0.001853943,-0.000537872,0.008096695,0,
00:07.3,-0.001859665,-0.000572205,0.008096695,0,
00:07.3,-0.001848221,-0.000537872,0.008096695,0,
00:07.3,-0.001865387,-0.000555038,0.008085251,0,
00:07.3,-0.001876831,-0.000577927,0.008090973,0,
00:07.3,-0.001859665,-0.00056076,0.008108139,0,
00:07.3,-0.001853943,-0.000537872,0.008085251,0,
00:07.3,-0.001853943,-0.000514984,0.008096695,0,
00:07.3,-0.001853943,-0.000514984,0.008125305,0,
00:07.3,-0.001859665,-0.00053215,0.008119583,0,
00:07.3,-0.001859665,-0.000543594,0.008108139,0,
00:07.3,-0.001859665,-0.000543594,0.008102417,0,
00:07.3,-0.001859665,-0.000537872,0.008119583,0,
00:07.3,-0.001859665,-0.000543594,0.008125305,0,
00:07.3,-0.001853943,-0.000555038,0.008119583,0,
00:07.3,-0.001859665,-0.000572205,0.008119583,0,
00:07.3,-0.001859665,-0.00056076,0.008125305,0,
00:07.3,-0.001836777,-0.000514984,0.008131027,0,
00:07.3,-0.001848221,-0.000514984,0.008125305,0,
00:07.3,-0.001876831,-0.000572205,0.008113861,0,
00:07.3,-0.001871109,-0.000566483,0.008142471,0,
00:07.3,-0.001865387,-0.000577927,0.008165359,0,
00:07.3,-0.001853943,-0.000537872,0.008165359,0,
00:07.3,-0.001865387,-0.000549316,0.008159637,0,
00:07.4,-0.001865387,-0.000537872,0.008153915,0,
00:07.4,-0.001865387,-0.000526428,0.008153915,0,
00:07.4,-0.001859665,-0.000526428,0.008165359,0,
00:07.4,-0.001853943,-0.000526428,0.008159637,0,
00:07.4,-0.001865387,-0.000555038,0.008171082,0,
00:07.4,-0.001871109,-0.00056076,0.008188248,0,
00:07.4,-0.001865387,-0.000549316,0.008182526,0,
00:07.4,-0.001865387,-0.000549316,0.008176804,0,
00:07.4,-0.001859665,-0.000543594,0.00819397,0,
00:07.4,-0.001871109,-0.000577927,0.00819397,0,
00:07.4,-0.001865387,-0.000572205,0.008188248,0,
00:07.4,-0.001865387,-0.000555038,0.008188248,0,
00:07.4,-0.001865387,-0.000537872,0.008199692,0,
00:07.4,-0.001871109,-0.000555038,0.008211136,0,
00:07.4,-0.001871109,-0.00056076,0.008216858,0,
00:07.4,-0.001871109,-0.000566483,0.008216858,0,
00:07.4,-0.001859665,-0.000537872,0.008205414,0,
00:07.4,-0.001842499,-0.000492096,0.008205414,0,
00:07.4,-0.001865387,-0.000537872,0.008234024,0,
00:07.4,-0.001876831,-0.000577927,0.00822258,0,
00:07.4,-0.001859665,-0.000572205,0.00825119,0,
00:07.4,-0.001876831,-0.000606537,0.00825119,0,
00:07.4,-0.001882553,-0.000583649,0.008234024,0,
00:07.4,-0.001871109,-0.000577927,0.008262634,0,
00:07.4,-0.001848221,-0.00053215,0.008262634,0,
00:07.5,-0.001859665,-0.000526428,0.008228302,0,
00:07.5,-0.001893997,-0.000566483,0.008216858,0,
00:07.5,-0.001871109,-0.000549316,0.008291245,0,
00:07.5,-0.001876831,-0.000566483,0.008274078,0,
00:07.5,-0.001876831,-0.000572205,0.008274078,0,
00:07.5,-0.001876831,-0.000572205,0.008291245,0,
00:07.5,-0.001876831,-0.000572205,0.008285522,0,
00:07.5,-0.001876831,-0.00056076,0.008291245,0,
00:07.5,-0.001876831,-0.000577927,0.008302689,0,
00:07.5,-0.001876831,-0.000577927,0.008296967,0,
00:07.5,-0.001871109,-0.000549316,0.008291245,0,
00:07.5,-0.001859665,-0.000526428,0.008285522,0,
00:07.5,-0.001871109,-0.000549316,0.008291245,0,
00:07.5,-0.001871109,-0.00056076,0.008331299,0,
00:07.5,-0.001865387,-0.000566483,0.008319855,0,
00:07.5,-0.001853943,-0.000526428,0.008337021,0,
00:07.5,-0.001871109,-0.00056076,0.008325577,0,
00:07.5,-0.001899719,-0.000629425,0.008331299,0,
00:07.5,-0.001893997,-0.000612259,0.008342743,0,
00:07.5,-0.001876831,-0.000612259,0.008348465,0,
00:07.5,-0.001871109,-0.000606537,0.008331299,0,
00:07.5,-0.001888275,-0.000577927,0.008331299,0,
00:07.5,-0.001882553,-0.00053215,0.008354187,0,
00:07.5,-0.001871109,-0.000520706,0.008348465,0,
00:07.5,-0.001865387,-0.00053215,0.008365631,0,
00:07.6,-0.001871109,-0.000537872,0.008348465,0,
00:07.6,-0.001859665,-0.000526428,0.008371353,0,
00:07.6,-0.001853943,-0.000543594,0.008388519,0,
00:07.6,-0.001893997,-0.000600815,0.008371353,0,
00:07.6,-0.001882553,-0.000577927,0.008394241,0,
00:07.6,-0.001876831,-0.000555038,0.008405685,0,
00:07.6,-0.001876831,-0.00056076,0.008388519,0,
00:07.6,-0.001882553,-0.000583649,0.008382797,0,
00:07.6,-0.001876831,-0.000577927,0.008394241,0,
00:07.6,-0.001876831,-0.000577927,0.008405685,0,
00:07.6,-0.001871109,-0.000572205,0.008422852,0,
00:07.6,-0.001882553,-0.000566483,0.008411407,0,
00:07.6,-0.001893997,-0.000572205,0.008394241,0,
00:07.6,-0.001882553,-0.00056076,0.00841713,0,
00:07.6,-0.001882553,-0.000583649,0.008434296,0,
00:07.6,-0.001882553,-0.000583649,0.008434296,0,
00:07.6,-0.001882553,-0.000583649,0.008428574,0,
00:07.6,-0.001888275,-0.000583649,0.008422852,0,
00:07.6,-0.001888275,-0.000566483,0.00844574,0,
00:07.6,-0.001968384,-0.00056076,0.00844574,0,
00:07.6,-0.00198555,-0.000589371,0.008440018,0,
00:07.6,-0.001865387,-0.000595093,0.008428574,0,
00:07.6,-0.001825333,-0.000589371,0.008457184,0,
00:07.6,-0.001882553,-0.000577927,0.008457184,0,
00:07.6,-0.001888275,-0.000583649,0.00847435,0,
00:07.7,-0.001859665,-0.000583649,0.00847435,0,
00:07.7,-0.001859665,-0.000566483,0.008491516,0,
00:07.7,-0.001876831,-0.000577927,0.00847435,0,
00:07.7,-0.001882553,-0.000583649,0.008485794,0,
00:07.7,-0.001876831,-0.000577927,0.008514404,0,
00:07.7,-0.001876831,-0.000572205,0.00850296,0,
00:07.7,-0.001876831,-0.000589371,0.008520126,0,
00:07.7,-0.001876831,-0.000600815,0.008514404,0,
00:07.7,-0.001893997,-0.000612259,0.008514404,0,
00:07.7,-0.001893997,-0.000617981,0.008514404,0,
00:07.7,-0.001888275,-0.000623703,0.008514404,0,
00:07.7,-0.001882553,-0.000612259,0.008525848,0,
00:07.7,-0.001888275,-0.000612259,0.008525848,0,
00:07.7,-0.001888275,-0.000572205,0.00853157,0,
00:07.7,-0.001876831,-0.000537872,0.008554459,0,
00:07.7,-0.001865387,-0.000520706,0.008565903,0,
00:07.7,-0.001876831,-0.00056076,0.008554459,0,
00:07.7,-0.001888275,-0.000583649,0.008554459,0,
00:07.7,-0.001888275,-0.000589371,0.008577347,0,
00:07.7,-0.001899719,-0.000595093,0.008560181,0,
00:07.7,-0.001905441,-0.000617981,0.008565903,0,
00:07.7,-0.001882553,-0.000600815,0.008594513,0,
00:07.7,-0.001876831,-0.000549316,0.008560181,0,
00:07.7,-0.001893997,-0.000543594,0.008583069,0,
00:07.7,-0.001893997,-0.000566483,0.008611679,0,
00:07.8,-0.001882553,-0.000589371,0.008605957,0,
00:07.8,-0.001871109,-0.000606537,0.008600235,0,
00:07.8,-0.001876831,-0.000606537,0.008623123,0,
00:07.8,-0.001905441,-0.000589371,0.008628845,0,
00:07.8,-0.001905441,-0.000577927,0.008617401,0,
00:07.8,-0.001893997,-0.000595093,0.008605957,0,
00:07.8,-0.001876831,-0.000595093,0.008623123,0,
00:07.8,-0.001876831,-0.000606537,0.008623123,0,
00:07.8,-0.001865387,-0.000595093,0.008623123,0,
00:07.8,-0.001871109,-0.000595093,0.008634567,0,
00:07.8,-0.001888275,-0.000600815,0.008651733,0,
00:07.8,-0.001916885,-0.000606537,0.0086689,0,
00:07.8,-0.001905441,-0.000589371,0.008651733,0,
00:07.8,-0.001859665,-0.000555038,0.008640289,0,
00:07.8,-0.001876831,-0.000595093,0.008686066,0,
00:07.8,-0.001888275,-0.000595093,0.008686066,0,
00:07.8,-0.001882553,-0.000600815,0.0086689,0,
00:07.8,-0.001876831,-0.000612259,0.008663177,0,
00:07.8,-0.001888275,-0.000623703,0.008674622,0,
00:07.8,-0.001882553,-0.000617981,0.008703232,0,
00:07.8,-0.001876831,-0.000612259,0.008691788,0,
00:07.8,-0.001876831,-0.000595093,0.008708954,0,
00:07.8,-0.001882553,-0.000577927,0.008691788,0,
00:07.8,-0.001882553,-0.000577927,0.008691788,0,
00:07.8,-0.001882553,-0.000600815,0.008691788,0,
00:07.9,-0.001876831,-0.000595093,0.008714676,0,
00:07.9,-0.001871109,-0.000572205,0.008731842,0,
00:07.9,-0.001876831,-0.000577927,0.008720398,0,
00:07.9,-0.001882553,-0.000589371,0.00872612,0,
00:07.9,-0.001876831,-0.000583649,0.008737564,0,
00:07.9,-0.001882553,-0.000600815,0.008743286,0,
00:07.9,-0.001888275,-0.000617981,0.008743286,0,
00:07.9,-0.001876831,-0.000595093,0.008749008,0,
00:07.9,-0.001882553,-0.000600815,0.008731842,0,
00:07.9,-0.001893997,-0.000629425,0.00875473,0,
00:07.9,-0.001905441,-0.000646591,0.008737564,0,
00:07.9,-0.001939774,-0.000663757,0.008777618,0,
00:07.9,-0.001911163,-0.000629425,0.008789063,0,
00:07.9,-0.001853943,-0.000583649,0.008789063,0,
00:07.9,-0.001853943,-0.000577927,0.00878334,0,
00:07.9,-0.001876831,-0.00056076,0.00878334,0,
00:07.9,-0.001893997,-0.000566483,0.008789063,0,
00:07.9,-0.001871109,-0.000577927,0.008789063,0,
00:07.9,-0.001853943,-0.000595093,0.008777618,0,
00:07.9,-0.001893997,-0.000652313,0.008766174,0,
00:07.9,-0.001888275,-0.000652313,0.008806229,0,
00:07.9,-0.001876831,-0.000617981,0.008823395,0,
00:07.9,-0.001871109,-0.000583649,0.008817673,0,
00:07.9,-0.001871109,-0.000566483,0.008823395,0,
00:07.9,-0.001876831,-0.000566483,0.008811951,0,
00:08.0,-0.001871109,-0.000572205,0.008817673,0,
00:08.0,-0.001882553,-0.000600815,0.008817673,0,
00:08.0,-0.001888275,-0.000612259,0.008846283,0,
00:08.0,-0.001893997,-0.000635147,0.008834839,0,
00:08.0,-0.001899719,-0.000617981,0.008852005,0,
00:08.0,-0.001882553,-0.000606537,0.008852005,0,
00:08.0,-0.001865387,-0.000612259,0.008846283,0,
00:08.0,-0.001842499,-0.000600815,0.008846283,0,
00:08.0,-0.001865387,-0.000629425,0.008857727,0,
00:08.0,-0.001893997,-0.000669479,0.008869171,0,
00:08.0,-0.001882553,-0.000623703,0.008874893,0,
00:08.0,-0.001882553,-0.000600815,0.008869171,0,
00:00:08,-0.001888275,-0.000606537,0.008874893,0,
00:08.0,-0.001882553,-0.000606537,0.008886337,0,
00:08.0,-0.001876831,-0.000623703,0.008903503,0,
00:08.0,-0.001882553,-0.000612259,0.008914948,0,
00:08.0,-0.001888275,-0.000623703,0.008903503,0,
00:08.0,-0.001893997,-0.000617981,0.008903503,0,
00:08.0,-0.001888275,-0.000589371,0.008909225,0,
00:08.0,-0.001922607,-0.000606537,0.008914948,0,
00:08.0,-0.001962662,-0.000640869,0.008909225,0,
00:08.0,-0.001882553,-0.000623703,0.008909225,0,
00:08.0,-0.001853943,-0.000617981,0.008886337,0,
00:08.0,-0.001882553,-0.000612259,0.00892067,0,
00:08.0,-0.001871109,-0.000623703,0.008943558,0,
00:08.1,-0.001876831,-0.000623703,0.008926392,0,
00:08.1,-0.001905441,-0.000635147,0.008937836,0,
00:08.1,-0.001905441,-0.000629425,0.00894928,0,
00:08.1,-0.001859665,-0.000606537,0.008955002,0,
00:08.1,-0.001842499,-0.000589371,0.008955002,0,
00:08.1,-0.001859665,-0.000583649,0.008966446,0,
00:08.1,-0.001876831,-0.000600815,0.008955002,0,
00:08.1,-0.001876831,-0.000606537,0.008943558,0,
00:08.1,-0.001871109,-0.000617981,0.008966446,0,
00:08.1,-0.001871109,-0.000612259,0.008983612,0,
00:08.1,-0.001888275,-0.000640869,0.008972168,0,
00:08.1,-0.001888275,-0.000640869,0.008983612,0,
00:08.1,-0.001888275,-0.000635147,0.008966446,0,
00:08.1,-0.001882553,-0.000635147,0.008983612,0,
00:08.1,-0.001876831,-0.000623703,0.0090065,0,
00:08.1,-0.001882553,-0.000623703,0.0090065,0,
00:08.1,-0.001882553,-0.000600815,0.009000778,0,
00:08.1,-0.001882553,-0.000600815,0.00897789,0,
00:08.1,-0.001888275,-0.000629425,0.009000778,0,
00:08.1,-0.001882553,-0.000669479,0.009023666,0,
00:08.1,-0.001871109,-0.000652313,0.009029388,0,
00:08.1,-0.001876831,-0.000669479,0.0090065,0,
00:08.1,-0.001882553,-0.000640869,0.009017944,0,
00:08.1,-0.001876831,-0.000612259,0.009029388,0,
00:08.1,-0.001888275,-0.000606537,0.009040833,0,
00:08.2,-0.001911163,-0.000612259,0.009023666,0,
00:08.2,-0.001882553,-0.000623703,0.009029388,0,
00:08.2,-0.001865387,-0.000629425,0.009046555,0,
00:08.2,-0.001871109,-0.000640869,0.009040833,0,
00:08.2,-0.001882553,-0.000646591,0.009040833,0,
00:08.2,-0.001876831,-0.000640869,0.009069443,0,
00:08.2,-0.001865387,-0.000612259,0.009069443,0,
00:08.2,-0.001865387,-0.000606537,0.009057999,0,
00:08.2,-0.001865387,-0.000595093,0.009046555,0,
00:08.2,-0.001859665,-0.000572205,0.009069443,0,
00:08.2,-0.001888275,-0.000617981,0.009063721,0,
00:08.2,-0.001893997,-0.000617981,0.009075165,0,
00:08.2,-0.001882553,-0.000658035,0.009075165,0,
00:08.2,-0.001876831,-0.000652313,0.009086609,0,
00:08.2,-0.001876831,-0.000629425,0.009086609,0,
00:08.2,-0.001876831,-0.000629425,0.009086609,0,
00:08.2,-0.001876831,-0.000612259,0.009080887,0,
00:08.2,-0.001876831,-0.000635147,0.009092331,0,
00:08.2,-0.001888275,-0.000675201,0.009103775,0,
00:08.2,-0.001905441,-0.000658035,0.009109497,0,
00:08.2,-0.001882553,-0.000617981,0.009098053,0,
00:08.2,-0.001871109,-0.000629425,0.009092331,0,
00:08.2,-0.001882553,-0.000635147,0.009109497,0,
00:08.2,-0.001899719,-0.000663757,0.009115219,0,
00:08.2,-0.001893997,-0.000658035,0.009120941,0,
00:08.3,-0.001882553,-0.000658035,0.009132385,0,
00:08.3,-0.001871109,-0.000658035,0.009126663,0,
00:08.3,-0.001888275,-0.000640869,0.009109497,0,
00:08.3,-0.001893997,-0.000623703,0.009126663,0,
00:08.3,-0.001876831,-0.000640869,0.009132385,0,
00:08.3,-0.001859665,-0.000623703,0.009103775,0,
00:08.3,-0.001859665,-0.000589371,0.009132385,0,
00:08.3,-0.001865387,-0.000600815,0.009143829,0,
00:08.3,-0.001876831,-0.000629425,0.009143829,0,
00:08.3,-0.001882553,-0.000629425,0.009143829,0,
00:08.3,-0.001888275,-0.000635147,0.009149551,0,
00:08.3,-0.001882553,-0.000646591,0.009149551,0,
00:08.3,-0.001882553,-0.000658035,0.009149551,0,
00:08.3,-0.001865387,-0.000629425,0.009138107,0,
00:08.3,-0.001836777,-0.000583649,0.009138107,0,
00:08.3,-0.001865387,-0.000606537,0.009132385,0,
00:08.3,-0.001882553,-0.000652313,0.009160995,0,
00:08.3,-0.001905441,-0.000680923,0.009178162,0,
00:08.3,-0.001911163,-0.000675201,0.009166718,0,
00:08.3,-0.001882553,-0.000652313,0.00917244,0,
00:08.3,-0.001865387,-0.000640869,0.00917244,0,
00:08.3,-0.001876831,-0.000635147,0.009166718,0,
00:08.3,-0.001882553,-0.000640869,0.009160995,0,
00:08.3,-0.001882553,-0.000652313,0.00917244,0,
00:08.3,-0.001882553,-0.000663757,0.00917244,0,
00:08.4,-0.001871109,-0.000635147,0.009166718,0,
00:08.4,-0.001865387,-0.000617981,0.00917244,0,
00:08.4,-0.001871109,-0.000617981,0.009178162,0,
00:08.4,-0.001882553,-0.000640869,0.009195328,0,
00:08.4,-0.001876831,-0.000663757,0.009183884,0,
00:08.4,-0.001871109,-0.000658035,0.009189606,0,
00:08.4,-0.001888275,-0.00069809,0.009195328,0,
00:08.4,-0.001893997,-0.000709534,0.00920105,0,
00:08.4,-0.001893997,-0.000652313,0.00920105,0,
00:08.4,-0.001893997,-0.000617981,0.00920105,0,
00:08.4,-0.001876831,-0.000652313,0.009206772,0,
00:08.4,-0.001859665,-0.000669479,0.00920105,0,
00:08.4,-0.001853943,-0.000635147,0.009206772,0,
00:08.4,-0.001876831,-0.000640869,0.009206772,0,
00:08.4,-0.001882553,-0.000629425,0.009195328,0,
00:08.4,-0.001876831,-0.000635147,0.00920105,0,
00:08.4,-0.001865387,-0.000617981,0.009212494,0,
00:08.4,-0.001876831,-0.000623703,0.00922966,0,
00:08.4,-0.001882553,-0.000646591,0.00922966,0,
00:08.4,-0.001871109,-0.000640869,0.009223938,0,
00:08.4,-0.001871109,-0.000669479,0.009223938,0,
00:08.4,-0.001882553,-0.000652313,0.00922966,0,
00:08.4,-0.001893997,-0.000652313,0.009246826,0,
00:08.4,-0.001876831,-0.000658035,0.009246826,0,
00:08.4,-0.001865387,-0.000663757,0.009246826,0,
00:08.5,-0.001865387,-0.000652313,0.009241104,0,
00:08.5,-0.001871109,-0.000663757,0.009235382,0,
00:08.5,-0.001865387,-0.000646591,0.009235382,0,
00:08.5,-0.001876831,-0.000669479,0.00922966,0,
00:08.5,-0.001876831,-0.000680923,0.00925827,0,
00:08.5,-0.001888275,-0.000658035,0.009263992,0,
00:08.5,-0.001893997,-0.000640869,0.009252548,0,
00:08.5,-0.001876831,-0.000646591,0.009235382,0,
00:08.5,-0.001871109,-0.000658035,0.009252548,0,
00:08.5,-0.001865387,-0.000663757,0.009269714,0,
00:08.5,-0.001871109,-0.000658035,0.009281158,0,
00:08.5,-0.001865387,-0.000629425,0.009263992,0,
00:08.5,-0.001871109,-0.000629425,0.00925827,0,
00:08.5,-0.001893997,-0.000703812,0.009252548,0,
00:08.5,-0.001888275,-0.000692368,0.009263992,0,
00:08.5,-0.001871109,-0.000658035,0.009269714,0,
00:08.5,-0.001859665,-0.000635147,0.00928688,0,
00:08.5,-0.001871109,-0.000663757,0.009292603,0,
00:08.5,-0.001893997,-0.000709534,0.009281158,0,
00:08.5,-0.001888275,-0.000692368,0.00928688,0,
00:08.5,-0.001882553,-0.000663757,0.00928688,0,
00:08.5,-0.001882553,-0.000635147,0.009281158,0,
00:08.5,-0.001865387,-0.000612259,0.009275436,0,
00:08.5,-0.001842499,-0.000606537,0.009263992,0,
00:08.5,-0.001871109,-0.000675201,0.009281158,0,
00:08.6,-0.001871109,-0.000680923,0.009304047,0,
00:08.6,-0.001871109,-0.000663757,0.009304047,0,
00:08.6,-0.001876831,-0.000669479,0.009298325,0,
00:08.6,-0.001876831,-0.000675201,0.009315491,0,
00:08.6,-0.001871109,-0.000675201,0.009304047,0,
00:08.6,-0.001876831,-0.000675201,0.009292603,0,
00:08.6,-0.001876831,-0.00069809,0.009298325,0,
00:08.6,-0.001871109,-0.000675201,0.009304047,0,
00:08.6,-0.001859665,-0.000635147,0.009304047,0,
00:08.6,-0.001876831,-0.000606537,0.009309769,0,
00:08.6,-0.001888275,-0.000635147,0.009298325,0,
00:08.6,-0.001888275,-0.000669479,0.009315491,0,
00:08.6,-0.001859665,-0.000658035,0.009315491,0,
00:08.6,-0.001859665,-0.000675201,0.009332657,0,
00:08.6,-0.001871109,-0.00069809,0.009332657,0,
00:08.6,-0.001871109,-0.000675201,0.009326935,0,
00:08.6,-0.001865387,-0.000652313,0.009326935,0,
00:08.6,-0.001859665,-0.000652313,0.009321213,0,
00:08.6,-0.001871109,-0.000675201,0.009315491,0,
00:08.6,-0.001871109,-0.000658035,0.009332657,0,
00:08.6,-0.001888275,-0.000663757,0.009332657,0,
00:08.6,-0.001888275,-0.000669479,0.009326935,0,
00:08.6,-0.001888275,-0.000680923,0.009338379,0,
00:08.6,-0.001871109,-0.000663757,0.009344101,0,
00:08.6,-0.001848221,-0.000652313,0.009349823,0,
00:08.7,-0.001859665,-0.000680923,0.009355545,0,
00:08.7,-0.001871109,-0.000686646,0.009349823,0,
00:08.7,-0.001871109,-0.000703812,0.009338379,0,
00:08.7,-0.001871109,-0.000692368,0.009332657,0,
00:08.7,-0.001859665,-0.000663757,0.009344101,0,
00:08.7,-0.001848221,-0.000640869,0.009349823,0,
00:08.7,-0.001865387,-0.000669479,0.009338379,0,
00:08.7,-0.001899719,-0.000732422,0.009304047,0,
00:08.7,-0.001876831,-0.000692368,0.009366989,0,
00:08.7,-0.001865387,-0.000669479,0.009378433,0,
00:08.7,-0.001882553,-0.000675201,0.009366989,0,
00:08.7,-0.001882553,-0.000680923,0.009361267,0,
00:08.7,-0.001865387,-0.000680923,0.009366989,0,
00:08.7,-0.001853943,-0.000652313,0.009372711,0,
00:08.7,-0.001859665,-0.000640869,0.009366989,0,
00:08.7,-0.001865387,-0.000652313,0.009361267,0,
00:08.7,-0.001871109,-0.000663757,0.009361267,0,
00:08.7,-0.001871109,-0.000669479,0.009366989,0,
00:08.7,-0.001871109,-0.000663757,0.009366989,0,
00:08.7,-0.001871109,-0.000663757,0.009355545,0,
00:08.7,-0.001888275,-0.000680923,0.009372711,0,
00:08.7,-0.001876831,-0.000686646,0.009366989,0,
00:08.7,-0.001853943,-0.000686646,0.009366989,0,
00:08.7,-0.001865387,-0.000715256,0.009384155,0,
00:08.7,-0.001882553,-0.00069809,0.009384155,0,
00:08.8,-0.001876831,-0.000669479,0.009384155,0,
00:08.8,-0.001871109,-0.000686646,0.009372711,0,
00:08.8,-0.001865387,-0.000692368,0.009349823,0,
00:08.8,-0.001865387,-0.000675201,0.009384155,0,
00:08.8,-0.001865387,-0.000680923,0.009395599,0,
00:08.8,-0.001865387,-0.000686646,0.009395599,0,
00:08.8,-0.001859665,-0.000680923,0.009389877,0,
00:08.8,-0.001848221,-0.000658035,0.009395599,0,
00:08.8,-0.001871109,-0.00069809,0.009384155,0,
00:08.8,-0.001876831,-0.000703812,0.009395599,0,
00:08.8,-0.001876831,-0.000680923,0.009395599,0,
00:08.8,-0.001876831,-0.000663757,0.009372711,0,
00:08.8,-0.001865387,-0.000663757,0.009384155,0,
00:08.8,-0.001865387,-0.000686646,0.009389877,0,
00:08.8,-0.001865387,-0.000675201,0.009401321,0,
00:08.8,-0.001865387,-0.00069809,0.009418488,0,
00:08.8,-0.001876831,-0.0007267,0.009407043,0,
00:08.8,-0.001888275,-0.000709534,0.009401321,0,
00:08.8,-0.001865387,-0.000686646,0.009418488,0,
00:08.8,-0.001848221,-0.000663757,0.009407043,0,
00:08.8,-0.001859665,-0.000680923,0.009407043,0,
00:08.8,-0.001865387,-0.00069809,0.009407043,0,
00:08.8,-0.001865387,-0.000675201,0.009395599,0,
00:08.8,-0.001865387,-0.000663757,0.009389877,0,
00:08.8,-0.001865387,-0.000652313,0.009395599,0,
00:08.9,-0.001865387,-0.000669479,0.009412766,0,
00:08.9,-0.001859665,-0.000675201,0.009412766,0,
00:08.9,-0.001865387,-0.000692368,0.009407043,0,
00:08.9,-0.001871109,-0.000709534,0.009407043,0,
00:08.9,-0.001865387,-0.000692368,0.009418488,0,
00:08.9,-0.001865387,-0.000692368,0.009412766,0,
00:08.9,-0.001865387,-0.00069809,0.009412766,0,
00:08.9,-0.001859665,-0.000692368,0.009395599,0,
00:08.9,-0.001865387,-0.000686646,0.009378433,0,
00:08.9,-0.001871109,-0.000675201,0.009412766,0,
00:08.9,-0.001859665,-0.000675201,0.00942421,0,
00:08.9,-0.001865387,-0.00069809,0.009429932,0,
00:08.9,-0.001871109,-0.00069809,0.009435654,0,
00:08.9,-0.001859665,-0.000675201,0.009435654,0,
00:08.9,-0.001853943,-0.000669479,0.009435654,0,
00:08.9,-0.001859665,-0.000692368,0.009429932,0,
00:08.9,-0.001865387,-0.000709534,0.009412766,0,
00:08.9,-0.001865387,-0.000703812,0.009412766,0,
00:08.9,-0.001859665,-0.000692368,0.009407043,0,
00:08.9,-0.001859665,-0.000732422,0.009418488,0,
00:08.9,-0.001859665,-0.000720978,0.009412766,0,
00:08.9,-0.001871109,-0.000680923,0.009407043,0,
00:08.9,-0.001882553,-0.000658035,0.009429932,0,
00:08.9,-0.001871109,-0.000652313,0.009429932,0,
00:08.9,-0.001848221,-0.000675201,0.009429932,0,
00:09.0,-0.001842499,-0.000680923,0.00942421,0,
00:09.0,-0.001859665,-0.00069809,0.00942421,0,
00:09.0,-0.001865387,-0.00069809,0.00942421,0,
00:09.0,-0.001859665,-0.00069809,0.009418488,0,
00:09.0,-0.001853943,-0.000686646,0.009435654,0,
00:09.0,-0.001859665,-0.000692368,0.009435654,0,
00:09.0,-0.001848221,-0.000680923,0.009429932,0,
00:09.0,-0.001853943,-0.000686646,0.009418488,0,
00:09.0,-0.001859665,-0.000715256,0.009418488,0,
00:09.0,-0.001853943,-0.00069809,0.009435654,0,
00:09.0,-0.001859665,-0.000720978,0.009435654,0,
00:09.0,-0.001853943,-0.00069809,0.00942421,0,
00:00:09,-0.001853943,-0.000686646,0.00942421,0,
00:09.0,-0.001865387,-0.000732422,0.009435654,0,
00:09.0,-0.001859665,-0.000732422,0.009441376,0,
00:09.0,-0.001865387,-0.000720978,0.009429932,0,
00:09.0,-0.001859665,-0.000680923,0.009407043,0,
00:09.0,-0.001865387,-0.000663757,0.009441376,0,
00:09.0,-0.001848221,-0.000658035,0.009447098,0,
00:09.0,-0.001842499,-0.000669479,0.009447098,0,
00:09.0,-0.001853943,-0.00069809,0.009435654,0,
00:09.0,-0.001859665,-0.000703812,0.009429932,0,
00:09.0,-0.001853943,-0.000692368,0.00942421,0,
00:09.0,-0.001853943,-0.00069809,0.009429932,0,
00:09.0,-0.001848221,-0.000703812,0.009458542,0,
00:09.1,-0.001853943,-0.000715256,0.009447098,0,
00:09.1,-0.001859665,-0.0007267,0.009429932,0,
00:09.1,-0.001853943,-0.00069809,0.00942421,0,
00:09.1,-0.001853943,-0.000692368,0.009435654,0,
00:09.1,-0.001865387,-0.000715256,0.009435654,0,
00:09.1,-0.001853943,-0.000703812,0.009441376,0,
00:09.1,-0.001842499,-0.000686646,0.009429932,0,
00:09.1,-0.001853943,-0.000703812,0.009435654,0,
00:09.1,-0.001865387,-0.000720978,0.009429932,0,
00:09.1,-0.001853943,-0.000715256,0.009441376,0,
00:09.1,-0.001865387,-0.000743866,0.00945282,0,
00:09.1,-0.001859665,-0.000709534,0.009441376,0,
00:09.1,-0.001842499,-0.000669479,0.00942421,0,
00:09.1,-0.001853943,-0.00069809,0.009412766,0,
00:09.1,-0.001859665,-0.000709534,0.009429932,0,
00:09.1,-0.001853943,-0.000709534,0.009458542,0,
00:09.1,-0.001853943,-0.00069809,0.009447098,0,
00:09.1,-0.001859665,-0.000715256,0.009429932,0,
00:09.1,-0.001859665,-0.000715256,0.009441376,0,
00:09.1,-0.001865387,-0.000732422,0.009441376,0,
00:09.1,-0.001859665,-0.000732422,0.00942421,0,
00:09.1,-0.001842499,-0.000680923,0.009418488,0,
00:09.1,-0.001842499,-0.000669479,0.009435654,0,
00:09.1,-0.001825333,-0.000658035,0.00945282,0,
00:09.1,-0.001836777,-0.000675201,0.009435654,0,
00:09.2,-0.001865387,-0.000720978,0.00942421,0,
00:09.2,-0.001853943,-0.000692368,0.009418488,0,
00:09.2,-0.001853943,-0.000709534,0.009441376,0,
00:09.2,-0.001853943,-0.000715256,0.009441376,0,
00:09.2,-0.001853943,-0.000709534,0.00942421,0,
00:09.2,-0.001865387,-0.000720978,0.009447098,0,
00:09.2,-0.001859665,-0.000715256,0.009435654,0,
00:09.2,-0.001853943,-0.000703812,0.009441376,0,
00:09.2,-0.001853943,-0.000703812,0.009447098,0,
00:09.2,-0.001859665,-0.000720978,0.009435654,0,
00:09.2,-0.001848221,-0.000720978,0.00942421,0,
00:09.2,-0.001842499,-0.000732422,0.00942421,0,
00:09.2,-0.001848221,-0.000703812,0.009429932,0,
00:09.2,-0.001848221,-0.000709534,0.009441376,0,
00:09.2,-0.001842499,-0.000680923,0.009429932,0,
00:09.2,-0.001853943,-0.000720978,0.009441376,0,
00:09.2,-0.001859665,-0.000720978,0.009441376,0,
00:09.2,-0.001848221,-0.000703812,0.009435654,0,
00:09.2,-0.001853943,-0.000720978,0.00942421,0,
00:09.2,-0.001848221,-0.000732422,0.009429932,0,
00:09.2,-0.001853943,-0.00075531,0.009435654,0,
00:09.2,-0.001865387,-0.000749588,0.009435654,0,
00:09.2,-0.001871109,-0.000732422,0.00942421,0,
00:09.2,-0.001853943,-0.000669479,0.009401321,0,
00:09.2,-0.001831055,-0.000663757,0.009447098,0,
00:09.3,-0.001831055,-0.000680923,0.009447098,0,
00:09.3,-0.001836777,-0.000692368,0.009429932,0,
00:09.3,-0.001842499,-0.000709534,0.00942421,0,
00:09.3,-0.001853943,-0.000743866,0.009429932,0,
00:09.3,-0.001853943,-0.000738144,0.009441376,0,
00:09.3,-0.001853943,-0.000732422,0.009429932,0,
00:09.3,-0.001842499,-0.000709534,0.00942421,0,
00:09.3,-0.001831055,-0.000680923,0.009435654,0,
00:09.3,-0.001848221,-0.000715256,0.00942421,0,
00:09.3,-0.001859665,-0.0007267,0.009418488,0,
00:09.3,-0.001865387,-0.000749588,0.00942421,0,
00:09.3,-0.001853943,-0.000738144,0.009429932,0,
00:09.3,-0.001848221,-0.000703812,0.009429932,0,
00:09.3,-0.001842499,-0.000686646,0.009407043,0,
00:09.3,-0.001848221,-0.00069809,0.009429932,0,
00:09.3,-0.001848221,-0.000720978,0.009441376,0,
00:09.3,-0.001825333,-0.000680923,0.009435654,0,
00:09.3,-0.001836777,-0.000692368,0.009429932,0,
00:09.3,-0.001859665,-0.000732422,0.00942421,0,
00:09.3,-0.001853943,-0.0007267,0.009429932,0,
00:09.3,-0.001848221,-0.000703812,0.00942421,0,
00:09.3,-0.001842499,-0.000709534,0.009412766,0,
00:09.3,-0.001842499,-0.000732422,0.00942421,0,
00:09.3,-0.001848221,-0.000732422,0.00942421,0,
00:09.3,-0.001848221,-0.000720978,0.009429932,0,
00:09.4,-0.001853943,-0.000732422,0.009412766,0,
00:09.4,-0.001848221,-0.000732422,0.009418488,0,
00:09.4,-0.001842499,-0.000703812,0.009429932,0,
00:09.4,-0.001831055,-0.000686646,0.009412766,0,
00:09.4,-0.001842499,-0.000703812,0.009407043,0,
00:09.4,-0.001859665,-0.000761032,0.009418488,0,
00:09.4,-0.001848221,-0.000732422,0.009429932,0,
00:09.4,-0.001848221,-0.000715256,0.009418488,0,
00:09.4,-0.001842499,-0.000703812,0.009401321,0,
00:09.4,-0.001848221,-0.000738144,0.009401321,0,
00:09.4,-0.001848221,-0.000738144,0.009418488,0,
00:09.4,-0.001848221,-0.000766754,0.009412766,0,
00:09.4,-0.001853943,-0.000795364,0.009412766,0,
00:09.4,-0.001853943,-0.000761032,0.009418488,0,
00:09.4,-0.001848221,-0.000703812,0.009412766,0,
00:09.4,-0.001848221,-0.000692368,0.009412766,0,
00:09.4,-0.001848221,-0.000720978,0.009407043,0,
00:09.4,-0.001836777,-0.000703812,0.009401321,0,
00:09.4,-0.001842499,-0.000715256,0.009401321,0,
00:09.4,-0.001848221,-0.000715256,0.009395599,0,
00:09.4,-0.001842499,-0.000709534,0.009418488,0,
00:09.4,-0.001836777,-0.00069809,0.009412766,0,
00:09.4,-0.001853943,-0.0007267,0.009395599,0,
00:09.4,-0.001853943,-0.000738144,0.009407043,0,
00:09.4,-0.001842499,-0.000715256,0.009418488,0,
00:09.5,-0.001842499,-0.000720978,0.009407043,0,
00:09.5,-0.001853943,-0.0007267,0.009401321,0,
00:09.5,-0.001848221,-0.000732422,0.009401321,0,
00:09.5,-0.001842499,-0.000720978,0.009401321,0,
00:09.5,-0.001842499,-0.000709534,0.009389877,0,
00:09.5,-0.001836777,-0.000703812,0.009395599,0,
00:09.5,-0.001848221,-0.0007267,0.009384155,0,
00:09.5,-0.001848221,-0.0007267,0.009401321,0,
00:09.5,-0.001836777,-0.000720978,0.009418488,0,
00:09.5,-0.001836777,-0.000732422,0.009389877,0,
00:09.5,-0.001848221,-0.000772476,0.009401321,0,
00:09.5,-0.001859665,-0.000795364,0.009407043,0,
00:09.5,-0.001859665,-0.000789642,0.009407043,0,
00:09.5,-0.001848221,-0.000732422,0.009389877,0,
00:09.5,-0.001848221,-0.000692368,0.009372711,0,
00:09.5,-0.001831055,-0.000669479,0.009378433,0,
00:09.5,-0.001848221,-0.000709534,0.009389877,0,
00:09.5,-0.001871109,-0.000738144,0.009395599,0,
00:09.5,-0.001853943,-0.000703812,0.009407043,0,
00:09.5,-0.001836777,-0.000732422,0.009395599,0,
00:09.5,-0.001842499,-0.000749588,0.009384155,0,
00:09.5,-0.001848221,-0.000720978,0.009384155,0,
00:09.5,-0.001848221,-0.000743866,0.009395599,0,
00:09.5,-0.001819611,-0.000715256,0.009401321,0,
00:09.5,-0.001836777,-0.000732422,0.009372711,0,
00:09.6,-0.001848221,-0.000732422,0.009366989,0,
00:09.6,-0.001836777,-0.000692368,0.009372711,0,
00:09.6,-0.001831055,-0.00069809,0.009372711,0,
00:09.6,-0.001842499,-0.000738144,0.009378433,0,
00:09.6,-0.001853943,-0.000761032,0.009372711,0,
00:09.6,-0.001853943,-0.000732422,0.009378433,0,
00:09.6,-0.001848221,-0.000732422,0.009378433,0,
00:09.6,-0.001836777,-0.0007267,0.009366989,0,
00:09.6,-0.001831055,-0.000715256,0.009355545,0,
00:09.6,-0.001842499,-0.000738144,0.009372711,0,
00:09.6,-0.001853943,-0.00075531,0.009384155,0,
00:09.6,-0.001842499,-0.000743866,0.009355545,0,
00:09.6,-0.001836777,-0.000749588,0.009366989,0,
00:09.6,-0.001848221,-0.000766754,0.009389877,0,
00:09.6,-0.001848221,-0.000743866,0.009395599,0,
00:09.6,-0.001848221,-0.000715256,0.009361267,0,
00:09.6,-0.001842499,-0.000720978,0.009361267,0,
00:09.6,-0.001848221,-0.000761032,0.009366989,0,
00:09.6,-0.001853943,-0.000772476,0.009361267,0,
00:09.6,-0.001842499,-0.000732422,0.009355545,0,
00:09.6,-0.001836777,-0.00069809,0.009361267,0,
00:09.6,-0.001848221,-0.000732422,0.009366989,0,
00:09.6,-0.001836777,-0.000720978,0.009361267,0,
00:09.6,-0.001813889,-0.000680923,0.009349823,0,
00:09.6,-0.001848221,-0.000738144,0.009338379,0,
00:09.7,-0.001848221,-0.0007267,0.009366989,0,
00:09.7,-0.001831055,-0.00069809,0.009349823,0,
00:09.7,-0.001831055,-0.00069809,0.009338379,0,
00:09.7,-0.001842499,-0.0007267,0.009344101,0,
00:09.7,-0.001848221,-0.000732422,0.009366989,0,
00:09.7,-0.001825333,-0.000715256,0.009349823,0,
00:09.7,-0.001831055,-0.000732422,0.009355545,0,
00:09.7,-0.001848221,-0.00075531,0.009361267,0,
00:09.7,-0.001853943,-0.000795364,0.009372711,0,
00:09.7,-0.001848221,-0.000778198,0.009355545,0,
00:09.7,-0.001836777,-0.000778198,0.009338379,0,
00:09.7,-0.001825333,-0.000749588,0.009344101,0,
00:09.7,-0.001825333,-0.00069809,0.009326935,0,
00:09.7,-0.001848221,-0.000738144,0.009344101,0,
00:09.7,-0.001836777,-0.000709534,0.009349823,0,
00:09.7,-0.001848221,-0.000743866,0.009332657,0,
00:09.7,-0.001831055,-0.000692368,0.009355545,0,
00:09.7,-0.001819611,-0.000680923,0.009344101,0,
00:09.7,-0.001848221,-0.000749588,0.009338379,0,
00:09.7,-0.001842499,-0.000738144,0.009338379,0,
00:09.7,-0.001831055,-0.000715256,0.009338379,0,
00:09.7,-0.001831055,-0.000692368,0.009304047,0,
00:09.7,-0.001819611,-0.000686646,0.009315491,0,
00:09.7,-0.001825333,-0.000709534,0.009338379,0,
00:09.7,-0.001842499,-0.000738144,0.009332657,0,
00:09.8,-0.001848221,-0.000743866,0.009332657,0,
00:09.8,-0.001842499,-0.000732422,0.009338379,0,
00:09.8,-0.001831055,-0.000720978,0.009326935,0,
00:09.8,-0.001842499,-0.000743866,0.009344101,0,
00:09.8,-0.001836777,-0.000738144,0.009332657,0,
00:09.8,-0.001825333,-0.000709534,0.009309769,0,
00:09.8,-0.001831055,-0.000715256,0.009309769,0,
00:09.8,-0.001848221,-0.000743866,0.009315491,0,
00:09.8,-0.001836777,-0.0007267,0.009321213,0,
00:09.8,-0.001831055,-0.0007267,0.009321213,0,
00:09.8,-0.001836777,-0.000732422,0.009326935,0,
00:09.8,-0.001831055,-0.000732422,0.009332657,0,
00:09.8,-0.001831055,-0.0007267,0.009298325,0,
00:09.8,-0.001848221,-0.00075531,0.009309769,0,
00:09.8,-0.001825333,-0.000703812,0.009281158,0,
00:09.8,-0.001842499,-0.000732422,0.009315491,0,
00:09.8,-0.001842499,-0.000766754,0.009344101,0,
00:09.8,-0.001836777,-0.000743866,0.009304047,0,
00:09.8,-0.001842499,-0.000738144,0.009338379,0,
00:09.8,-0.001842499,-0.0007267,0.009315491,0,
00:09.8,-0.001831055,-0.000709534,0.009298325,0,
00:09.8,-0.001842499,-0.000761032,0.009315491,0,
00:09.8,-0.001842499,-0.000743866,0.009315491,0,
00:09.8,-0.001836777,-0.000709534,0.009315491,0,
00:09.8,-0.001848221,-0.0007267,0.009309769,0,
00:09.9,-0.001836777,-0.000709534,0.009298325,0,
00:09.9,-0.001831055,-0.000715256,0.009304047,0,
00:09.9,-0.001836777,-0.0007267,0.009298325,0,
00:09.9,-0.001848221,-0.00075531,0.009304047,0,
00:09.9,-0.001836777,-0.000743866,0.009298325,0,
00:09.9,-0.001808167,-0.000692368,0.009298325,0,
00:09.9,-0.001842499,-0.000738144,0.00928688,0,
00:09.9,-0.001853943,-0.00075531,0.009315491,0,
00:09.9,-0.001848221,-0.000749588,0.009298325,0,
00:09.9,-0.001819611,-0.000709534,0.00928688,0,
00:09.9,-0.001831055,-0.000761032,0.009292603,0,
00:09.9,-0.001859665,-0.000818253,0.009298325,0,
00:09.9,-0.001859665,-0.000778198,0.00928688,0,
00:09.9,-0.001836777,-0.00069809,0.00925827,0,
00:09.9,-0.001813889,-0.000663757,0.009281158,0,
00:09.9,-0.001836777,-0.000749588,0.009315491,0,
00:09.9,-0.001836777,-0.000720978,0.009281158,0,
00:09.9,-0.001819611,-0.000663757,0.009263992,0,
00:09.9,-0.001831055,-0.000675201,0.009298325,0,
00:09.9,-0.001848221,-0.000749588,0.009292603,0,
00:09.9,-0.001831055,-0.000720978,0.009281158,0,
00:09.9,-0.001831055,-0.000720978,0.009269714,0,
00:09.9,-0.001842499,-0.000743866,0.00925827,0,
00:09.9,-0.001842499,-0.0007267,0.009269714,0,
00:09.9,-0.001836777,-0.000749588,0.00928688,0,
00:10.0,-0.001848221,-0.000789642,0.009263992,0,
00:10.0,-0.001825333,-0.000743866,0.009246826,0,
00:10.0,-0.001825333,-0.000720978,0.009223938,0,
00:10.0,-0.001842499,-0.000738144,0.009235382,0,
00:10.0,-0.001836777,-0.000715256,0.009252548,0,
00:10.0,-0.001819611,-0.00069809,0.00925827,0,
00:10.0,-0.001831055,-0.000738144,0.009252548,0,
00:10.0,-0.001853943,-0.000789642,0.009263992,0,
00:10.0,-0.001848221,-0.000772476,0.009263992,0,
00:10.0,-0.001842499,-0.00075531,0.009252548,0,
00:10.0,-0.001842499,-0.00075531,0.009241104,0,
00:10.0,-0.001853943,-0.00078392,0.009235382,0,
00:00:10,-0.001871109,-0.000812531,0.009206772,0,
00:10.0,-0.001859665,-0.000778198,0.009212494,0,
00:10.0,-0.001819611,-0.000703812,0.009218216,0,
