Elapsed_Time,EMG1,EMG2,EMG3,BioRadio Event,Unnamed: 5
00:00:00,-0.000841141,-0.000904083,0.01096344,0,
00:00.0,-0.000858307,-0.000886917,0.010997772,0,
00:00.0,-0.000904083,-0.000881195,0.010969162,0,
00:00.0,-0.000858307,-0.000892639,0.010980606,0,
00:00.0,-0.000892639,-0.000904083,0.010980606,0,
00:00.0,-0.000898361,-0.000909805,0.010877609,0,
00:00.0,-0.000881195,-0.000915527,0.010911942,0,
00:00.0,-0.000869751,-0.000904083,0.011032104,0,
00:00.0,-0.000841141,-0.000881195,0.011026382,0,
00:00.0,-0.000892639,-0.000892639,0.010980606,0,
00:00.0,-0.000886917,-0.000886917,0.01099205,0,
00:00.0,-0.000869751,-0.000904083,0.010894775,0,
00:00.0,-0.000881195,-0.000915527,0.011072159,0,
00:00.1,-0.000875473,-0.000898361,0.01099205,0,
00:00.1,-0.000841141,-0.000904083,0.010974884,0,
00:00.1,-0.000858307,-0.000892639,0.010986328,0,
00:00.1,-0.000869751,-0.000892639,0.010951996,0,
00:00.1,-0.000898361,-0.000904083,0.011014938,0,
00:00.1,-0.000869751,-0.000904083,0.010986328,0,
00:00.1,-0.000886917,-0.000904083,0.010969162,0,
00:00.1,-0.000915527,-0.000898361,0.01102066,0,
00:00.1,-0.000892639,-0.000909805,0.010980606,0,
00:00.1,-0.000806808,-0.000892639,0.010906219,0,
00:00.1,-0.000829697,-0.000886917,0.010974884,0,
00:00.1,-0.000892639,-0.000904083,0.011054993,0,
00:00.1,-0.000881195,-0.000898361,0.010946274,0,
00:00.1,-0.000852585,-0.000904083,0.010929108,0,
00:00.1,-0.000869751,-0.000909805,0.01102066,0,
00:00.1,-0.000944138,-0.000881195,0.010889053,0,
00:00.1,-0.000846863,-0.000881195,0.010877609,0,
00:00.1,-0.000886917,-0.000932693,0.011026382,0,
00:00.1,-0.000892639,-0.000909805,0.011054993,0,
00:00.1,-0.000886917,-0.000915527,0.01099205,0,
00:00.1,-0.000864029,-0.000904083,0.010997772,0,
00:00.1,-0.000864029,-0.000898361,0.010906219,0,
00:00.1,-0.000841141,-0.000881195,0.011037827,0,
00:00.1,-0.000886917,-0.000864029,0.011043549,0,
00:00.1,-0.000841141,-0.000892639,0.010860443,0,
00:00.2,-0.000881195,-0.000915527,0.01096344,0,
00:00.2,-0.000898361,-0.000904083,0.011037827,0,
00:00.2,-0.000875473,-0.000909805,0.010946274,0,
00:00.2,-0.000875473,-0.000898361,0.010974884,0,
00:00.2,-0.000846863,-0.000904083,0.010974884,0,
00:00.2,-0.000841141,-0.000892639,0.011032104,0,
00:00.2,-0.000898361,-0.000892639,0.010917664,0,
00:00.2,-0.000904083,-0.000904083,0.01102066,0,
00:00.2,-0.000852585,-0.000904083,0.011003494,0,
00:00.2,-0.000846863,-0.000904083,0.010906219,0,
00:00.2,-0.000921249,-0.000898361,0.01099205,0,
00:00.2,-0.000881195,-0.000921249,0.010986328,0,
00:00.2,-0.000846863,-0.000904083,0.01102066,0,
00:00.2,-0.000869751,-0.000904083,0.011003494,0,
00:00.2,-0.000955582,-0.000898361,0.010951996,0,
00:00.2,-0.000932693,-0.000892639,0.010917664,0,
00:00.2,-0.000846863,-0.000898361,0.010957718,0,
00:00.2,-0.000864029,-0.000875473,0.011003494,0,
00:00.2,-0.000858307,-0.000892639,0.010969162,0,
00:00.2,-0.000823975,-0.000892639,0.010986328,0,
00:00.2,-0.000858307,-0.000875473,0.01099205,0,
00:00.2,-0.000909805,-0.000909805,0.011032104,0,
00:00.2,-0.000852585,-0.000921249,0.01099205,0,
00:00.2,-0.000835419,-0.000886917,0.010957718,0,
00:00.2,-0.000869751,-0.000869751,0.010929108,0,
00:00.3,-0.000904083,-0.000909805,0.01096344,0,
00:00.3,-0.000892639,-0.000886917,0.010854721,0,
00:00.3,-0.000869751,-0.000898361,0.011054993,0,
00:00.3,-0.000869751,-0.000892639,0.011129379,0,
00:00.3,-0.000875473,-0.000881195,0.010997772,0,
00:00.3,-0.000898361,-0.000909805,0.010946274,0,
00:00.3,-0.000869751,-0.000898361,0.011014938,0,
00:00.3,-0.000858307,-0.000904083,0.010929108,0,
00:00.3,-0.000915527,-0.000904083,0.01102066,0,
00:00.3,-0.000909805,-0.000892639,0.01093483,0,
00:00.3,-0.000806808,-0.000892639,0.010986328,0,
00:00.3,-0.000869751,-0.000898361,0.010911942,0,
00:00.3,-0.000926971,-0.000909805,0.010997772,0,
00:00.3,-0.000944138,-0.000898361,0.01096344,0,
00:00.3,-0.000846863,-0.000898361,0.011026382,0,
00:00.3,-0.000909805,-0.000869751,0.010929108,0,
00:00.3,-0.000875473,-0.000892639,0.010906219,0,
00:00.3,-0.000812531,-0.000904083,0.010969162,0,
00:00.3,-0.000869751,-0.000904083,0.011003494,0,
00:00.3,-0.000886917,-0.000898361,0.011066437,0,
00:00.3,-0.000858307,-0.000869751,0.010889053,0,
00:00.3,-0.000898361,-0.000898361,0.010917664,0,
00:00.3,-0.000829697,-0.000904083,0.01096344,0,
00:00.3,-0.000915527,-0.000898361,0.011009216,0,
00:00.3,-0.000841141,-0.000904083,0.010951996,0,
00:00.4,-0.000904083,-0.000909805,0.010974884,0,
00:00.4,-0.000898361,-0.000904083,0.011060715,0,
00:00.4,-0.000881195,-0.000886917,0.010946274,0,
00:00.4,-0.000886917,-0.000886917,0.010877609,0,
00:00.4,-0.000852585,-0.000892639,0.010957718,0,
00:00.4,-0.000841141,-0.000864029,0.01096344,0,
00:00.4,-0.000881195,-0.000869751,0.010957718,0,
00:00.4,-0.001001358,-0.000921249,0.01099205,0,
00:00.4,-0.000846863,-0.000898361,0.010969162,0,
00:00.4,-0.000841141,-0.000875473,0.01093483,0,
00:00.4,-0.000932693,-0.000898361,0.011026382,0,
00:00.4,-0.000886917,-0.000904083,0.011043549,0,
00:00.4,-0.000829697,-0.000875473,0.011032104,0,
00:00.4,-0.000921249,-0.000886917,0.010917664,0,
00:00.4,-0.000898361,-0.000915527,0.010940552,0,
00:00.4,-0.000875473,-0.000881195,0.010957718,0,
00:00.4,-0.000846863,-0.000898361,0.01096344,0,
00:00.4,-0.00078392,-0.000881195,0.010911942,0,
00:00.4,-0.000875473,-0.000875473,0.010860443,0,
00:00.4,-0.000904083,-0.000892639,0.010969162,0,
00:00.4,-0.000881195,-0.000881195,0.010923386,0,
00:00.4,-0.000835419,-0.000875473,0.010923386,0,
00:00.4,-0.000886917,-0.000898361,0.011037827,0,
00:00.4,-0.000875473,-0.000898361,0.010997772,0,
00:00.4,-0.000858307,-0.000904083,0.010997772,0,
00:00.5,-0.000881195,-0.000892639,0.010911942,0,
00:00.5,-0.000875473,-0.000886917,0.010969162,0,
00:00.5,-0.000909805,-0.000892639,0.01102066,0,
00:00.5,-0.000875473,-0.000869751,0.011003494,0,
00:00.5,-0.000829697,-0.000869751,0.010951996,0,
00:00.5,-0.000915527,-0.000886917,0.010900497,0,
00:00.5,-0.000944138,-0.000898361,0.010969162,0,
00:00.5,-0.000829697,-0.000881195,0.010951996,0,
00:00.5,-0.000869751,-0.000892639,0.010900497,0,
00:00.5,-0.000846863,-0.000881195,0.01093483,0,
00:00.5,-0.000892639,-0.000898361,0.010946274,0,
00:00.5,-0.000932693,-0.000898361,0.01096344,0,
00:00.5,-0.000869751,-0.000898361,0.010974884,0,
00:00.5,-0.000886917,-0.000881195,0.01096344,0,
00:00.5,-0.000852585,-0.000892639,0.010826111,0,
00:00.5,-0.000778198,-0.000886917,0.010980606,0,
00:00.5,-0.000869751,-0.000875473,0.011043549,0,
00:00.5,-0.000869751,-0.000881195,0.010980606,0,
00:00.5,-0.00094986,-0.000892639,0.010986328,0,
00:00.5,-0.000864029,-0.000886917,0.010923386,0,
00:00.5,-0.000852585,-0.000886917,0.010917664,0,
00:00.5,-0.000875473,-0.000881195,0.010906219,0,
00:00.5,-0.000846863,-0.000881195,0.010911942,0,
00:00.5,-0.000869751,-0.000886917,0.01096344,0,
00:00.5,-0.000881195,-0.000881195,0.010946274,0,
00:00.6,-0.000886917,-0.000898361,0.010997772,0,
00:00.6,-0.000881195,-0.000881195,0.010911942,0,
00:00.6,-0.000858307,-0.000881195,0.010911942,0,
00:00.6,-0.000909805,-0.000892639,0.010929108,0,
00:00.6,-0.000915527,-0.000892639,0.010957718,0,
00:00.6,-0.000858307,-0.000875473,0.010889053,0,
00:00.6,-0.000852585,-0.000881195,0.010808945,0,
00:00.6,-0.000892639,-0.000886917,0.010917664,0,
00:00.6,-0.000881195,-0.000892639,0.011037827,0,
00:00.6,-0.000864029,-0.000881195,0.01102066,0,
00:00.6,-0.000892639,-0.000875473,0.010843277,0,
00:00.6,-0.000898361,-0.000886917,0.010923386,0,
00:00.6,-0.000932693,-0.000881195,0.010906219,0,
00:00.6,-0.000915527,-0.000892639,0.010974884,0,
00:00.6,-0.000835419,-0.000892639,0.011003494,0,
00:00.6,-0.000881195,-0.000904083,0.010969162,0,
00:00.6,-0.000904083,-0.000898361,0.010951996,0,
00:00.6,-0.000846863,-0.000869751,0.010911942,0,
00:00.6,-0.000841141,-0.000881195,0.010929108,0,
00:00.6,-0.000881195,-0.000898361,0.010969162,0,
00:00.6,-0.000881195,-0.000886917,0.010866165,0,
00:00.6,-0.000886917,-0.000869751,0.01096344,0,
00:00.6,-0.000858307,-0.000869751,0.010969162,0,
00:00.6,-0.000869751,-0.000881195,0.010860443,0,
00:00.6,-0.000886917,-0.000864029,0.010894775,0,
00:00.7,-0.000886917,-0.000881195,0.01096344,0,
00:00.7,-0.00094986,-0.000909805,0.010860443,0,
00:00.7,-0.000904083,-0.000886917,0.011003494,0,
00:00.7,-0.000886917,-0.000886917,0.01096344,0,
00:00.7,-0.000869751,-0.000875473,0.010900497,0,
00:00.7,-0.000989914,-0.000881195,0.010969162,0,
00:00.7,-0.000904083,-0.000886917,0.010940552,0,
00:00.7,-0.000823975,-0.000892639,0.010911942,0,
00:00.7,-0.000875473,-0.000881195,0.01093483,0,
00:00.7,-0.000864029,-0.000886917,0.011009216,0,
00:00.7,-0.000886917,-0.000875473,0.010900497,0,
00:00.7,-0.000864029,-0.000892639,0.010894775,0,
00:00.7,-0.000921249,-0.000886917,0.01093483,0,
00:00.7,-0.000944138,-0.000886917,0.010957718,0,
00:00.7,-0.000875473,-0.000892639,0.01096344,0,
00:00.7,-0.000852585,-0.000892639,0.011009216,0,
00:00.7,-0.000875473,-0.000886917,0.010894775,0,
00:00.7,-0.000892639,-0.000886917,0.010860443,0,
00:00.7,-0.000898361,-0.000875473,0.010894775,0,
00:00.7,-0.000864029,-0.000864029,0.01096344,0,
00:00.7,-0.000864029,-0.000881195,0.010911942,0,
00:00.7,-0.000881195,-0.000892639,0.01096344,0,
00:00.7,-0.000892639,-0.000886917,0.010974884,0,
00:00.7,-0.000904083,-0.000892639,0.010911942,0,
00:00.7,-0.000909805,-0.000886917,0.010946274,0,
00:00.8,-0.000846863,-0.000881195,0.01093483,0,
00:00.8,-0.000898361,-0.000892639,0.010951996,0,
00:00.8,-0.000881195,-0.000892639,0.010906219,0,
00:00.8,-0.000829697,-0.000846863,0.010871887,0,
00:00.8,-0.000846863,-0.000864029,0.010774612,0,
00:00.8,-0.000972748,-0.000904083,0.010929108,0,
00:00.8,-0.000972748,-0.000915527,0.011037827,0,
00:00.8,-0.000881195,-0.000886917,0.011003494,0,
00:00.8,-0.000818253,-0.000852585,0.010940552,0,
00:00.8,-0.000869751,-0.000881195,0.010906219,0,
00:00.8,-0.000904083,-0.000881195,0.010917664,0,
00:00.8,-0.000864029,-0.000886917,0.010906219,0,
00:00.8,-0.000892639,-0.000892639,0.010957718,0,
00:00.8,-0.000898361,-0.000892639,0.010980606,0,
00:00.8,-0.000892639,-0.000881195,0.010923386,0,
00:00.8,-0.00094986,-0.000886917,0.010877609,0,
00:00.8,-0.000864029,-0.000881195,0.010911942,0,
00:00.8,-0.000823975,-0.000869751,0.010929108,0,
00:00.8,-0.000881195,-0.000892639,0.010951996,0,
00:00.8,-0.000881195,-0.000892639,0.010997772,0,
00:00.8,-0.000869751,-0.000886917,0.010940552,0,
00:00.8,-0.000904083,-0.000904083,0.010917664,0,
00:00.8,-0.000881195,-0.000881195,0.010911942,0,
00:00.8,-0.000915527,-0.000881195,0.010889053,0,
00:00.8,-0.000909805,-0.000858307,0.010854721,0,
00:00.9,-0.000869751,-0.000864029,0.010951996,0,
00:00.9,-0.000921249,-0.000892639,0.010871887,0,
00:00.9,-0.000864029,-0.000881195,0.010883331,0,
00:00.9,-0.000875473,-0.000875473,0.010997772,0,
00:00.9,-0.000892639,-0.000864029,0.010820389,0,
00:00.9,-0.000904083,-0.000886917,0.010940552,0,
00:00.9,-0.000898361,-0.000904083,0.011014938,0,
00:00.9,-0.000869751,-0.000881195,0.01096344,0,
00:00.9,-0.000886917,-0.000869751,0.010831833,0,
00:00.9,-0.000898361,-0.000892639,0.010946274,0,
00:00.9,-0.000904083,-0.000881195,0.010946274,0,
00:00.9,-0.000909805,-0.000875473,0.010940552,0,
00:00.9,-0.000881195,-0.000881195,0.01093483,0,
00:00.9,-0.000852585,-0.000881195,0.010911942,0,
00:00.9,-0.000875473,-0.000892639,0.01093483,0,
00:00.9,-0.000921249,-0.000892639,0.010877609,0,
00:00.9,-0.000909805,-0.000875473,0.010889053,0,
00:00.9,-0.000852585,-0.000858307,0.010871887,0,
00:00.9,-0.000875473,-0.000875473,0.010969162,0,
00:00.9,-0.000904083,-0.000869751,0.010980606,0,
00:00.9,-0.000915527,-0.000864029,0.010854721,0,
00:00.9,-0.000904083,-0.000881195,0.010877609,0,
00:00.9,-0.000898361,-0.000886917,0.010969162,0,
00:00.9,-0.000846863,-0.000881195,0.010871887,0,
00:00.9,-0.000869751,-0.000881195,0.010911942,0,
00:01.0,-0.000904083,-0.000869751,0.01096344,0,
00:01.0,-0.000892639,-0.000864029,0.010946274,0,
00:01.0,-0.000881195,-0.000869751,0.010900497,0,
00:01.0,-0.000926971,-0.000886917,0.010843277,0,
00:01.0,-0.000898361,-0.000886917,0.010900497,0,
00:01.0,-0.000875473,-0.000875473,0.010980606,0,
00:01.0,-0.000892639,-0.000875473,0.010974884,0,
00:01.0,-0.000915527,-0.000869751,0.010860443,0,
00:01.0,-0.000915527,-0.000869751,0.010951996,0,
00:01.0,-0.000881195,-0.000875473,0.010900497,0,
00:01.0,-0.000898361,-0.000881195,0.010894775,0,
00:01.0,-0.000898361,-0.000869751,0.010906219,0,
00:00:01,-0.000921249,-0.000881195,0.01093483,0,
00:01.0,-0.000886917,-0.000875473,0.010894775,0,
00:01.0,-0.000886917,-0.000881195,0.010917664,0,
00:01.0,-0.000909805,-0.000858307,0.010951996,0,
00:01.0,-0.000892639,-0.000858307,0.01093483,0,
00:01.0,-0.000898361,-0.000875473,0.010774612,0,
00:01.0,-0.000909805,-0.000858307,0.010883331,0,
00:01.0,-0.000875473,-0.000864029,0.010969162,0,
00:01.0,-0.000904083,-0.000875473,0.010883331,0,
00:01.0,-0.000869751,-0.000864029,0.010923386,0,
00:01.0,-0.000858307,-0.000869751,0.010866165,0,
00:01.0,-0.00097847,-0.000892639,0.010911942,0,
00:01.0,-0.000892639,-0.000886917,0.010980606,0,
00:01.1,-0.000846863,-0.000864029,0.010900497,0,
00:01.1,-0.000926971,-0.000875473,0.010860443,0,
00:01.1,-0.000915527,-0.000875473,0.010877609,0,
00:01.1,-0.00094986,-0.000875473,0.010860443,0,
00:01.1,-0.000909805,-0.000858307,0.01099205,0,
00:01.1,-0.000881195,-0.000869751,0.010917664,0,
00:01.1,-0.000915527,-0.000875473,0.010848999,0,
00:01.1,-0.000926971,-0.000864029,0.010860443,0,
00:01.1,-0.000898361,-0.000875473,0.01093483,0,
00:01.1,-0.000864029,-0.000869751,0.010894775,0,
00:01.1,-0.000898361,-0.000869751,0.010917664,0,
00:01.1,-0.000909805,-0.000869751,0.010974884,0,
00:01.1,-0.000898361,-0.000864029,0.010837555,0,
00:01.1,-0.000875473,-0.000881195,0.010906219,0,
00:01.1,-0.000944138,-0.000864029,0.01096344,0,
00:01.1,-0.000938416,-0.000881195,0.010940552,0,
00:01.1,-0.000852585,-0.000864029,0.010900497,0,
00:01.1,-0.000886917,-0.000864029,0.010883331,0,
00:01.1,-0.000921249,-0.000875473,0.010854721,0,
00:01.1,-0.000904083,-0.000881195,0.010871887,0,
00:01.1,-0.000915527,-0.000875473,0.010889053,0,
00:01.1,-0.000921249,-0.000881195,0.010894775,0,
00:01.1,-0.000926971,-0.000875473,0.010957718,0,
00:01.1,-0.000875473,-0.000869751,0.010917664,0,
00:01.1,-0.000898361,-0.000875473,0.010866165,0,
00:01.2,-0.000909805,-0.000864029,0.010820389,0,
00:01.2,-0.000858307,-0.000852585,0.010808945,0,
00:01.2,-0.000904083,-0.000864029,0.010871887,0,
00:01.2,-0.000961304,-0.000875473,0.011003494,0,
00:01.2,-0.000915527,-0.000875473,0.010911942,0,
00:01.2,-0.000909805,-0.000869751,0.010906219,0,
00:01.2,-0.000909805,-0.000869751,0.01093483,0,
00:01.2,-0.000869751,-0.000858307,0.010871887,0,
00:01.2,-0.000852585,-0.000852585,0.010831833,0,
00:01.2,-0.000984192,-0.000886917,0.01096344,0,
00:01.2,-0.000869751,-0.000875473,0.010871887,0,
00:01.2,-0.000898361,-0.000858307,0.010791779,0,
00:01.2,-0.000892639,-0.000864029,0.010911942,0,
00:01.2,-0.000932693,-0.000875473,0.010929108,0,
00:01.2,-0.000898361,-0.000852585,0.010843277,0,
00:01.2,-0.000892639,-0.000864029,0.010929108,0,
00:01.2,-0.000886917,-0.000881195,0.010900497,0,
00:01.2,-0.00094986,-0.000886917,0.010889053,0,
00:01.2,-0.00094986,-0.000869751,0.010866165,0,
00:01.2,-0.000881195,-0.000869751,0.010848999,0,
00:01.2,-0.000915527,-0.000875473,0.010860443,0,
00:01.2,-0.000972748,-0.000864029,0.010917664,0,
00:01.2,-0.000898361,-0.000881195,0.010900497,0,
00:01.2,-0.000858307,-0.000858307,0.010866165,0,
00:01.2,-0.000921249,-0.000869751,0.010854721,0,
00:01.3,-0.000898361,-0.000846863,0.010837555,0,
00:01.3,-0.000915527,-0.000875473,0.010871887,0,
00:01.3,-0.000886917,-0.000869751,0.010894775,0,
00:01.3,-0.000915527,-0.000852585,0.010923386,0,
00:01.3,-0.000904083,-0.000864029,0.010877609,0,
00:01.3,-0.000892639,-0.000864029,0.010797501,0,
00:01.3,-0.000926971,-0.000881195,0.010808945,0,
00:01.3,-0.000909805,-0.000875473,0.010940552,0,
00:01.3,-0.000915527,-0.000858307,0.01096344,0,
00:01.3,-0.000932693,-0.000869751,0.010889053,0,
00:01.3,-0.000909805,-0.000864029,0.010843277,0,
00:01.3,-0.000886917,-0.000852585,0.010786057,0,
00:01.3,-0.000904083,-0.000875473,0.010894775,0,
00:01.3,-0.000915527,-0.000869751,0.010923386,0,
00:01.3,-0.000921249,-0.000852585,0.010911942,0,
00:01.3,-0.000915527,-0.000875473,0.010894775,0,
00:01.3,-0.000898361,-0.000852585,0.010820389,0,
00:01.3,-0.000892639,-0.000858307,0.010826111,0,
00:01.3,-0.000926971,-0.000886917,0.010889053,0,
00:01.3,-0.000926971,-0.000852585,0.010894775,0,
00:01.3,-0.000989914,-0.000875473,0.010837555,0,
00:01.3,-0.000915527,-0.000864029,0.010774612,0,
00:01.3,-0.000875473,-0.000852585,0.010837555,0,
00:01.3,-0.000892639,-0.000875473,0.010929108,0,
00:01.3,-0.000938416,-0.000881195,0.010986328,0,
00:01.4,-0.000904083,-0.000858307,0.010877609,0,
00:01.4,-0.000921249,-0.000864029,0.010871887,0,
00:01.4,-0.000926971,-0.000869751,0.010848999,0,
00:01.4,-0.000886917,-0.000858307,0.010854721,0,
00:01.4,-0.000938416,-0.000858307,0.010763168,0,
00:01.4,-0.000944138,-0.000852585,0.010780334,0,
00:01.4,-0.000909805,-0.000875473,0.010929108,0,
00:01.4,-0.000921249,-0.000869751,0.010917664,0,
00:01.4,-0.000875473,-0.000858307,0.010826111,0,
00:01.4,-0.000823975,-0.000829697,0.010717392,0,
00:01.4,-0.000892639,-0.000864029,0.010848999,0,
00:01.4,-0.000955582,-0.000875473,0.010911942,0,
00:01.4,-0.00094986,-0.000858307,0.010911942,0,
00:01.4,-0.000892639,-0.000858307,0.010826111,0,
00:01.4,-0.000926971,-0.000869751,0.010866165,0,
00:01.4,-0.000932693,-0.000852585,0.010860443,0,
00:01.4,-0.000898361,-0.000858307,0.010837555,0,
00:01.4,-0.000909805,-0.000875473,0.010889053,0,
00:01.4,-0.000904083,-0.000869751,0.010894775,0,
00:01.4,-0.000909805,-0.000858307,0.010854721,0,
00:01.4,-0.000932693,-0.000846863,0.010837555,0,
00:01.4,-0.000938416,-0.000864029,0.010894775,0,
00:01.4,-0.000926971,-0.000881195,0.010803223,0,
00:01.4,-0.000944138,-0.000846863,0.010797501,0,
00:01.4,-0.000932693,-0.000858307,0.010831833,0,
00:01.5,-0.000886917,-0.000858307,0.010763168,0,
00:01.5,-0.000944138,-0.000858307,0.010940552,0,
00:01.5,-0.00097847,-0.000858307,0.010929108,0,
00:01.5,-0.000829697,-0.000841141,0.010751724,0,
00:01.5,-0.000875473,-0.000858307,0.010705948,0,
00:01.5,-0.000915527,-0.000864029,0.010889053,0,
00:01.5,-0.000852585,-0.000852585,0.010883331,0,
00:01.5,-0.000892639,-0.000869751,0.010906219,0,
00:01.5,-0.000967026,-0.000875473,0.010883331,0,
00:01.5,-0.000921249,-0.000858307,0.010826111,0,
00:01.5,-0.000921249,-0.000852585,0.010826111,0,
00:01.5,-0.000898361,-0.000858307,0.010831833,0,
00:01.5,-0.000886917,-0.000852585,0.010774612,0,
00:01.5,-0.000886917,-0.000864029,0.010705948,0,
00:01.5,-0.00097847,-0.000869751,0.010923386,0,
00:01.5,-0.000955582,-0.000875473,0.010894775,0,
00:01.5,-0.000944138,-0.000875473,0.010866165,0,
00:01.5,-0.000892639,-0.000829697,0.010763168,0,
00:01.5,-0.000921249,-0.000835419,0.010688782,0,
00:01.5,-0.000984192,-0.000864029,0.010866165,0,
00:01.5,-0.000926971,-0.000869751,0.010780334,0,
00:01.5,-0.000881195,-0.000869751,0.010848999,0,
00:01.5,-0.000955582,-0.000869751,0.010917664,0,
00:01.5,-0.000926971,-0.000852585,0.010826111,0,
00:01.5,-0.000841141,-0.000846863,0.010808945,0,
00:01.6,-0.000938416,-0.000852585,0.010786057,0,
00:01.6,-0.000921249,-0.000852585,0.010826111,0,
00:01.6,-0.000904083,-0.000852585,0.010854721,0,
00:01.6,-0.000921249,-0.000864029,0.010814667,0,
00:01.6,-0.000904083,-0.000869751,0.010780334,0,
00:01.6,-0.000932693,-0.000864029,0.010763168,0,
00:01.6,-0.000926971,-0.000858307,0.010757446,0,
00:01.6,-0.000921249,-0.000846863,0.010871887,0,
00:01.6,-0.000898361,-0.000852585,0.010837555,0,
00:01.6,-0.000846863,-0.000858307,0.010814667,0,
00:01.6,-0.000926971,-0.000858307,0.010826111,0,
00:01.6,-0.000967026,-0.000864029,0.010837555,0,
00:01.6,-0.000926971,-0.000858307,0.010826111,0,
00:01.6,-0.000909805,-0.000852585,0.010814667,0,
00:01.6,-0.000898361,-0.000846863,0.010866165,0,
00:01.6,-0.000915527,-0.000852585,0.010814667,0,
00:01.6,-0.000955582,-0.000846863,0.010751724,0,
00:01.6,-0.000932693,-0.000841141,0.010746002,0,
00:01.6,-0.000909805,-0.000846863,0.010826111,0,
00:01.6,-0.000944138,-0.000858307,0.010831833,0,
00:01.6,-0.000955582,-0.000864029,0.010969162,0,
00:01.6,-0.000932693,-0.000881195,0.010866165,0,
00:01.6,-0.000898361,-0.000858307,0.010763168,0,
00:01.6,-0.000904083,-0.000841141,0.010837555,0,
00:01.6,-0.000932693,-0.000852585,0.010843277,0,
00:01.7,-0.000915527,-0.000846863,0.010883331,0,
00:01.7,-0.000904083,-0.000858307,0.010808945,0,
00:01.7,-0.000921249,-0.000858307,0.010860443,0,
00:01.7,-0.000932693,-0.000852585,0.010854721,0,
00:01.7,-0.000921249,-0.000858307,0.010757446,0,
00:01.7,-0.000938416,-0.000858307,0.010751724,0,
00:01.7,-0.000932693,-0.000852585,0.010837555,0,
00:01.7,-0.000846863,-0.000835419,0.010797501,0,
00:01.7,-0.000875473,-0.000835419,0.010837555,0,
00:01.7,-0.00100708,-0.000864029,0.010906219,0,
00:01.7,-0.000955582,-0.000858307,0.010780334,0,
00:01.7,-0.000881195,-0.000841141,0.010780334,0,
00:01.7,-0.000944138,-0.000858307,0.010883331,0,
00:01.7,-0.001047134,-0.000864029,0.010831833,0,
00:01.7,-0.000915527,-0.000858307,0.010677338,0,
00:01.7,-0.000812531,-0.000823975,0.010820389,0,
00:01.7,-0.000886917,-0.000858307,0.010820389,0,
00:01.7,-0.000972748,-0.000869751,0.010860443,0,
00:01.7,-0.000921249,-0.000823975,0.010797501,0,
00:01.7,-0.000932693,-0.000858307,0.010797501,0,
00:01.7,-0.000909805,-0.000852585,0.010854721,0,
00:01.7,-0.000909805,-0.000841141,0.010786057,0,
00:01.7,-0.000909805,-0.000858307,0.010883331,0,
00:01.7,-0.000944138,-0.000864029,0.010820389,0,
00:01.7,-0.000915527,-0.000823975,0.010780334,0,
00:01.8,-0.000932693,-0.000864029,0.010848999,0,
00:01.8,-0.000932693,-0.000869751,0.010854721,0,
00:01.8,-0.000932693,-0.000852585,0.010803223,0,
00:01.8,-0.000904083,-0.000841141,0.010808945,0,
00:01.8,-0.000909805,-0.000835419,0.010774612,0,
00:01.8,-0.000892639,-0.000852585,0.010751724,0,
00:01.8,-0.000904083,-0.000852585,0.010808945,0,
00:01.8,-0.00094986,-0.000841141,0.010728836,0,
00:01.8,-0.00100708,-0.000852585,0.010780334,0,
00:01.8,-0.00094986,-0.000835419,0.010889053,0,
00:01.8,-0.000926971,-0.000823975,0.010803223,0,
00:01.8,-0.000967026,-0.000841141,0.010831833,0,
00:01.8,-0.000881195,-0.000841141,0.010751724,0,
00:01.8,-0.000875473,-0.000846863,0.010688782,0,
00:01.8,-0.000909805,-0.000869751,0.010837555,0,
00:01.8,-0.000944138,-0.000852585,0.010866165,0,
00:01.8,-0.000944138,-0.000875473,0.010837555,0,
00:01.8,-0.000898361,-0.000858307,0.010843277,0,
00:01.8,-0.000926971,-0.000835419,0.010848999,0,
00:01.8,-0.000926971,-0.000841141,0.010763168,0,
00:01.8,-0.000904083,-0.000852585,0.010797501,0,
00:01.8,-0.000926971,-0.000852585,0.010763168,0,
00:01.8,-0.000904083,-0.000846863,0.010751724,0,
00:01.8,-0.000926971,-0.000846863,0.010826111,0,
00:01.8,-0.000909805,-0.000829697,0.010791779,0,
00:01.9,-0.000858307,-0.000823975,0.010774612,0,
00:01.9,-0.000967026,-0.000841141,0.010786057,0,
00:01.9,-0.001001358,-0.000846863,0.010820389,0,
00:01.9,-0.000938416,-0.000846863,0.010751724,0,
00:01.9,-0.000858307,-0.000829697,0.010757446,0,
00:01.9,-0.000944138,-0.000864029,0.010814667,0,
00:01.9,-0.000944138,-0.000852585,0.010831833,0,
00:01.9,-0.000932693,-0.000841141,0.010751724,0,
00:01.9,-0.000909805,-0.000841141,0.010837555,0,
00:01.9,-0.000967026,-0.000841141,0.010808945,0,
00:01.9,-0.000972748,-0.000829697,0.010791779,0,
00:01.9,-0.000886917,-0.000841141,0.010803223,0,
00:01.9,-0.000909805,-0.000841141,0.010757446,0,
00:01.9,-0.000938416,-0.000858307,0.010780334,0,
00:01.9,-0.000909805,-0.000841141,0.010774612,0,
00:01.9,-0.000915527,-0.000841141,0.010746002,0,
00:01.9,-0.000926971,-0.000823975,0.010665894,0,
00:01.9,-0.000909805,-0.000823975,0.010728836,0,
00:01.9,-0.000944138,-0.000858307,0.010951996,0,
00:01.9,-0.000909805,-0.000852585,0.010780334,0,
00:01.9,-0.00094986,-0.000835419,0.010757446,0,
00:01.9,-0.000972748,-0.000858307,0.010791779,0,
00:01.9,-0.000909805,-0.000841141,0.010791779,0,
00:01.9,-0.000898361,-0.000835419,0.010694504,0,
00:01.9,-0.000909805,-0.000823975,0.010837555,0,
00:02.0,-0.000944138,-0.000852585,0.010860443,0,
00:02.0,-0.000926971,-0.000841141,0.01074028,0,
00:02.0,-0.000944138,-0.000841141,0.010763168,0,
00:02.0,-0.000926971,-0.000835419,0.010808945,0,
00:02.0,-0.000944138,-0.000852585,0.010786057,0,
00:02.0,-0.000926971,-0.000852585,0.010803223,0,
00:02.0,-0.000932693,-0.000846863,0.010751724,0,
00:02.0,-0.000926971,-0.000852585,0.010665894,0,
00:02.0,-0.000932693,-0.000846863,0.010705948,0,
00:02.0,-0.000892639,-0.000841141,0.010866165,0,
00:02.0,-0.000932693,-0.000835419,0.010831833,0,
00:02.0,-0.000955582,-0.000829697,0.010757446,0,
00:00:02,-0.000892639,-0.000778198,0.010677338,0,
00:02.0,-0.000944138,-0.000818253,0.010723114,0,
00:02.0,-0.000995636,-0.000875473,0.010694504,0,
00:02.0,-0.000869751,-0.000841141,0.01068306,0,
00:02.0,-0.000921249,-0.000835419,0.010860443,0,
00:02.0,-0.000926971,-0.000864029,0.010866165,0,
00:02.0,-0.000944138,-0.000858307,0.010826111,0,
00:02.0,-0.000909805,-0.000858307,0.010814667,0,
00:02.0,-0.000926971,-0.000846863,0.010786057,0,
00:02.0,-0.000926971,-0.000829697,0.01074028,0,
00:02.0,-0.000915527,-0.000812531,0.010705948,0,
00:02.0,-0.00094986,-0.000818253,0.010723114,0,
00:02.0,-0.000955582,-0.000829697,0.010648727,0,
00:02.1,-0.000892639,-0.000829697,0.010648727,0,
00:02.1,-0.000886917,-0.000835419,0.010871887,0,
00:02.1,-0.000955582,-0.000852585,0.010791779,0,
00:02.1,-0.00094986,-0.000869751,0.01076889,0,
00:02.1,-0.000944138,-0.000846863,0.010797501,0,
00:02.1,-0.000932693,-0.000852585,0.010797501,0,
00:02.1,-0.000926971,-0.000841141,0.010763168,0,
00:02.1,-0.000926971,-0.000835419,0.010803223,0,
00:02.1,-0.000898361,-0.000806808,0.01068306,0,
00:02.1,-0.00094986,-0.000812531,0.010637283,0,
00:02.1,-0.000995636,-0.000835419,0.010625839,0,
00:02.1,-0.000892639,-0.000823975,0.010625839,0,
00:02.1,-0.000864029,-0.000835419,0.010826111,0,
00:02.1,-0.000944138,-0.000864029,0.010860443,0,
00:02.1,-0.000938416,-0.000846863,0.010820389,0,
00:02.1,-0.000915527,-0.000846863,0.010665894,0,
00:02.1,-0.000961304,-0.000841141,0.01076889,0,
00:02.1,-0.000926971,-0.000829697,0.010843277,0,
00:02.1,-0.000909805,-0.000823975,0.010688782,0,
00:02.1,-0.000921249,-0.000829697,0.01074028,0,
00:02.1,-0.000944138,-0.000823975,0.010786057,0,
00:02.1,-0.000938416,-0.000818253,0.010746002,0,
00:02.1,-0.00094986,-0.000818253,0.01071167,0,
00:02.1,-0.00094986,-0.000846863,0.010705948,0,
00:02.1,-0.000875473,-0.000835419,0.010694504,0,
00:02.2,-0.000881195,-0.000829697,0.010786057,0,
00:02.2,-0.000961304,-0.000835419,0.010797501,0,
00:02.2,-0.000989914,-0.000846863,0.010671616,0,
00:02.2,-0.000955582,-0.000841141,0.010705948,0,
00:02.2,-0.000961304,-0.000841141,0.010763168,0,
00:02.2,-0.000881195,-0.000835419,0.01076889,0,
00:02.2,-0.000909805,-0.000829697,0.01071167,0,
00:02.2,-0.000926971,-0.000818253,0.010746002,0,
00:02.2,-0.000909805,-0.000823975,0.010734558,0,
00:02.2,-0.000915527,-0.000823975,0.010746002,0,
00:02.2,-0.000938416,-0.000846863,0.01076889,0,
00:02.2,-0.000961304,-0.000852585,0.01071167,0,
00:02.2,-0.000938416,-0.000829697,0.010723114,0,
00:02.2,-0.000898361,-0.000818253,0.010746002,0,
00:02.2,-0.000904083,-0.000835419,0.010705948,0,
00:02.2,-0.000961304,-0.000829697,0.010728836,0,
00:02.2,-0.000921249,-0.000823975,0.01068306,0,
00:02.2,-0.000944138,-0.000829697,0.010728836,0,
00:02.2,-0.00094986,-0.000841141,0.010757446,0,
00:02.2,-0.000915527,-0.000823975,0.010751724,0,
00:02.2,-0.000926971,-0.000812531,0.010688782,0,
00:02.2,-0.000915527,-0.000806808,0.010694504,0,
00:02.2,-0.000938416,-0.000806808,0.010660172,0,
00:02.2,-0.000921249,-0.000835419,0.010746002,0,
00:02.2,-0.000984192,-0.000829697,0.010820389,0,
00:02.3,-0.000944138,-0.000818253,0.01071167,0,
00:02.3,-0.000955582,-0.000846863,0.01068306,0,
00:02.3,-0.000915527,-0.000846863,0.010808945,0,
00:02.3,-0.000915527,-0.000829697,0.010751724,0,
00:02.3,-0.000892639,-0.000823975,0.010717392,0,
00:02.3,-0.000955582,-0.000823975,0.010705948,0,
00:02.3,-0.000967026,-0.000812531,0.010654449,0,
00:02.3,-0.00094986,-0.000835419,0.010786057,0,
00:02.3,-0.000921249,-0.000818253,0.01071167,0,
00:02.3,-0.000898361,-0.000812531,0.010705948,0,
00:02.3,-0.000886917,-0.000823975,0.010717392,0,
00:02.3,-0.000995636,-0.000846863,0.010728836,0,
00:02.3,-0.000989914,-0.000829697,0.010746002,0,
00:02.3,-0.000921249,-0.000795364,0.010660172,0,
00:02.3,-0.000886917,-0.000835419,0.010705948,0,
00:02.3,-0.000926971,-0.000835419,0.010826111,0,
00:02.3,-0.00094986,-0.000835419,0.010763168,0,
00:02.3,-0.000955582,-0.000835419,0.010654449,0,
00:02.3,-0.000955582,-0.000829697,0.010734558,0,
00:02.3,-0.00097847,-0.000806808,0.010803223,0,
00:02.3,-0.000904083,-0.000801086,0.010694504,0,
00:02.3,-0.000967026,-0.000823975,0.010677338,0,
00:02.3,-0.000926971,-0.000812531,0.01071167,0,
00:02.3,-0.000875473,-0.000818253,0.010660172,0,
00:02.3,-0.000926971,-0.000818253,0.010734558,0,
00:02.4,-0.000921249,-0.000823975,0.010774612,0,
00:02.4,-0.00094986,-0.000829697,0.010688782,0,
00:02.4,-0.000955582,-0.000823975,0.010717392,0,
00:02.4,-0.000995636,-0.000818253,0.010694504,0,
00:02.4,-0.000989914,-0.000841141,0.010763168,0,
00:02.4,-0.000886917,-0.000823975,0.010774612,0,
00:02.4,-0.000915527,-0.000818253,0.010728836,0,
00:02.4,-0.000944138,-0.000812531,0.010757446,0,
00:02.4,-0.00094986,-0.000778198,0.010648727,0,
00:02.4,-0.000932693,-0.000823975,0.010734558,0,
00:02.4,-0.000921249,-0.000841141,0.010728836,0,
00:02.4,-0.000915527,-0.000829697,0.010694504,0,
00:02.4,-0.000926971,-0.000812531,0.01071167,0,
00:02.4,-0.000967026,-0.000835419,0.010654449,0,
00:02.4,-0.000921249,-0.000829697,0.010780334,0,
00:02.4,-0.000932693,-0.000818253,0.010746002,0,
00:02.4,-0.000926971,-0.000812531,0.010671616,0,
00:02.4,-0.000984192,-0.000823975,0.010637283,0,
00:02.4,-0.000967026,-0.000841141,0.01068306,0,
00:02.4,-0.000938416,-0.000829697,0.010774612,0,
00:02.4,-0.000932693,-0.000823975,0.01074028,0,
00:02.4,-0.000932693,-0.000812531,0.010694504,0,
00:02.4,-0.000926971,-0.000823975,0.010717392,0,
00:02.4,-0.000932693,-0.000812531,0.010705948,0,
00:02.4,-0.000921249,-0.000812531,0.010677338,0,
00:02.5,-0.000926971,-0.000818253,0.010705948,0,
00:02.5,-0.000989914,-0.000829697,0.010717392,0,
00:02.5,-0.000909805,-0.000823975,0.010717392,0,
00:02.5,-0.000944138,-0.000823975,0.010700226,0,
00:02.5,-0.000926971,-0.000806808,0.010602951,0,
00:02.5,-0.000944138,-0.000829697,0.01071167,0,
00:02.5,-0.000944138,-0.000823975,0.01071167,0,
00:02.5,-0.000967026,-0.000823975,0.010780334,0,
00:02.5,-0.000926971,-0.000818253,0.010746002,0,
00:02.5,-0.000915527,-0.000812531,0.010631561,0,
00:02.5,-0.000932693,-0.000812531,0.010637283,0,
00:02.5,-0.00100708,-0.000841141,0.010780334,0,
00:02.5,-0.000932693,-0.000818253,0.010746002,0,
00:02.5,-0.000932693,-0.000812531,0.010700226,0,
00:02.5,-0.000932693,-0.000818253,0.010671616,0,
00:02.5,-0.000944138,-0.000823975,0.010700226,0,
00:02.5,-0.000961304,-0.000818253,0.010700226,0,
00:02.5,-0.000944138,-0.000818253,0.010677338,0,
00:02.5,-0.000921249,-0.000806808,0.010665894,0,
00:02.5,-0.000944138,-0.000812531,0.010654449,0,
00:02.5,-0.00094986,-0.000818253,0.010717392,0,
00:02.5,-0.000938416,-0.000818253,0.010694504,0,
00:02.5,-0.00094986,-0.000823975,0.010637283,0,
00:02.5,-0.000938416,-0.000806808,0.010705948,0,
00:02.5,-0.000926971,-0.000801086,0.01071167,0,
00:02.6,-0.000944138,-0.000806808,0.010620117,0,
00:02.6,-0.000938416,-0.000795364,0.010688782,0,
00:02.6,-0.001001358,-0.000789642,0.010723114,0,
00:02.6,-0.000886917,-0.000801086,0.010665894,0,
00:02.6,-0.000892639,-0.000818253,0.010602951,0,
00:02.6,-0.000972748,-0.000841141,0.01068306,0,
00:02.6,-0.000972748,-0.000818253,0.01076889,0,
00:02.6,-0.000989914,-0.000806808,0.010660172,0,
00:02.6,-0.000915527,-0.000818253,0.010620117,0,
00:02.6,-0.000921249,-0.000823975,0.010797501,0,
00:02.6,-0.000944138,-0.000818253,0.010723114,0,
00:02.6,-0.000926971,-0.000812531,0.010705948,0,
00:02.6,-0.000926971,-0.000806808,0.010665894,0,
00:02.6,-0.00100708,-0.000818253,0.010643005,0,
00:02.6,-0.000955582,-0.000806808,0.01074028,0,
00:02.6,-0.000909805,-0.000789642,0.010648727,0,
00:02.6,-0.000881195,-0.000766754,0.010540009,0,
00:02.6,-0.000989914,-0.000829697,0.010688782,0,
00:02.6,-0.000967026,-0.000835419,0.01074028,0,
00:02.6,-0.000881195,-0.000818253,0.01071167,0,
00:02.6,-0.000915527,-0.000795364,0.010700226,0,
00:02.6,-0.000961304,-0.000795364,0.010700226,0,
00:02.6,-0.000915527,-0.000795364,0.010677338,0,
00:02.6,-0.00097847,-0.000835419,0.010700226,0,
00:02.6,-0.000961304,-0.000823975,0.010660172,0,
00:02.7,-0.000972748,-0.000818253,0.010620117,0,
00:02.7,-0.000938416,-0.000806808,0.010705948,0,
00:02.7,-0.000932693,-0.000812531,0.010688782,0,
00:02.7,-0.000926971,-0.000806808,0.010585785,0,
00:02.7,-0.00094986,-0.000812531,0.010751724,0,
00:02.7,-0.000926971,-0.000801086,0.010700226,0,
00:02.7,-0.000955582,-0.000795364,0.010648727,0,
00:02.7,-0.00094986,-0.000801086,0.010631561,0,
00:02.7,-0.000984192,-0.000795364,0.010625839,0,
00:02.7,-0.00094986,-0.000801086,0.01068306,0,
00:02.7,-0.000961304,-0.000812531,0.01074028,0,
00:02.7,-0.000926971,-0.000818253,0.010734558,0,
00:02.7,-0.000989914,-0.000806808,0.010694504,0,
00:02.7,-0.000898361,-0.000795364,0.010643005,0,
00:02.7,-0.000921249,-0.000801086,0.010694504,0,
00:02.7,-0.000972748,-0.000806808,0.010654449,0,
00:02.7,-0.000926971,-0.000795364,0.010574341,0,
00:02.7,-0.00094986,-0.000812531,0.010625839,0,
00:02.7,-0.000915527,-0.000806808,0.010688782,0,
00:02.7,-0.000955582,-0.000812531,0.010705948,0,
00:02.7,-0.000932693,-0.000801086,0.010671616,0,
00:02.7,-0.000921249,-0.000789642,0.010648727,0,
00:02.7,-0.000972748,-0.000812531,0.010677338,0,
00:02.7,-0.000972748,-0.000812531,0.010648727,0,
00:02.7,-0.00094986,-0.000806808,0.01068306,0,
00:02.8,-0.000989914,-0.000818253,0.010746002,0,
00:02.8,-0.000944138,-0.000801086,0.010637283,0,
00:02.8,-0.000904083,-0.000789642,0.010625839,0,
00:02.8,-0.000909805,-0.000789642,0.01068306,0,
00:02.8,-0.000944138,-0.000818253,0.010700226,0,
00:02.8,-0.000972748,-0.000818253,0.010665894,0,
00:02.8,-0.000955582,-0.000812531,0.010694504,0,
00:02.8,-0.000932693,-0.000795364,0.01068306,0,
00:02.8,-0.000984192,-0.000789642,0.010631561,0,
00:02.8,-0.00097847,-0.00078392,0.010614395,0,
00:02.8,-0.000926971,-0.000801086,0.010648727,0,
00:02.8,-0.000955582,-0.000812531,0.010660172,0,
00:02.8,-0.000921249,-0.000812531,0.010665894,0,
00:02.8,-0.000926971,-0.000801086,0.01068306,0,
00:02.8,-0.000926971,-0.000795364,0.010677338,0,
00:02.8,-0.000932693,-0.000812531,0.010625839,0,
00:02.8,-0.000955582,-0.000801086,0.01071167,0,
00:02.8,-0.00094986,-0.000806808,0.010631561,0,
00:02.8,-0.000955582,-0.000795364,0.010654449,0,
00:02.8,-0.000967026,-0.000801086,0.010660172,0,
00:02.8,-0.000915527,-0.00078392,0.010614395,0,
00:02.8,-0.000921249,-0.000806808,0.010665894,0,
00:02.8,-0.000984192,-0.000812531,0.010746002,0,
00:02.8,-0.000944138,-0.000801086,0.01068306,0,
00:02.8,-0.000944138,-0.000795364,0.010671616,0,
00:02.9,-0.000967026,-0.000806808,0.010648727,0,
00:02.9,-0.000955582,-0.000812531,0.010688782,0,
00:02.9,-0.000961304,-0.000806808,0.010688782,0,
00:02.9,-0.000926971,-0.000789642,0.010654449,0,
00:02.9,-0.000909805,-0.00078392,0.010643005,0,
00:02.9,-0.000926971,-0.00078392,0.010643005,0,
00:02.9,-0.00097847,-0.000795364,0.010637283,0,
00:02.9,-0.00097847,-0.000818253,0.010585785,0,
00:02.9,-0.00094986,-0.000818253,0.010700226,0,
00:02.9,-0.000938416,-0.000789642,0.010688782,0,
00:02.9,-0.000967026,-0.000806808,0.010688782,0,
00:02.9,-0.000961304,-0.000789642,0.010665894,0,
00:02.9,-0.000938416,-0.000766754,0.010540009,0,
00:02.9,-0.000938416,-0.000806808,0.010620117,0,
00:02.9,-0.000932693,-0.000806808,0.010660172,0,
00:02.9,-0.000944138,-0.000795364,0.010688782,0,
00:02.9,-0.000944138,-0.000795364,0.010700226,0,
00:02.9,-0.00097847,-0.000789642,0.010751724,0,
00:02.9,-0.00094986,-0.000789642,0.010677338,0,
00:02.9,-0.000967026,-0.000795364,0.010631561,0,
00:02.9,-0.00094986,-0.000801086,0.010705948,0,
00:02.9,-0.000915527,-0.000789642,0.010723114,0,
00:02.9,-0.000944138,-0.000806808,0.010677338,0,
00:02.9,-0.000955582,-0.000795364,0.010700226,0,
00:02.9,-0.000944138,-0.000789642,0.010608673,0,
00:03.0,-0.00097847,-0.000795364,0.010671616,0,
00:03.0,-0.001001358,-0.000806808,0.010648727,0,
00:03.0,-0.000909805,-0.000801086,0.010643005,0,
00:03.0,-0.000932693,-0.000795364,0.010643005,0,
00:03.0,-0.00097847,-0.000795364,0.010677338,0,
00:03.0,-0.000944138,-0.000795364,0.010717392,0,
00:03.0,-0.000984192,-0.000806808,0.010677338,0,
00:03.0,-0.000898361,-0.000789642,0.010540009,0,
00:03.0,-0.00094986,-0.000806808,0.010780334,0,
00:03.0,-0.000955582,-0.000806808,0.01076889,0,
00:03.0,-0.000932693,-0.000801086,0.010688782,0,
00:03.0,-0.000967026,-0.000795364,0.010677338,0,
00:00:03,-0.000961304,-0.000806808,0.010671616,0,
00:03.0,-0.000955582,-0.000795364,0.010665894,0,
00:03.0,-0.000938416,-0.000789642,0.010671616,0,
00:03.0,-0.000967026,-0.000801086,0.01074028,0,
00:03.0,-0.000938416,-0.000789642,0.010694504,0,
00:03.0,-0.000938416,-0.000795364,0.010534286,0,
00:03.0,-0.001001358,-0.000801086,0.010597229,0,
00:03.0,-0.000932693,-0.000801086,0.010694504,0,
00:03.0,-0.00094986,-0.000801086,0.010757446,0,
00:03.0,-0.000967026,-0.000801086,0.010751724,0,
00:03.0,-0.000938416,-0.000778198,0.010665894,0,
00:03.0,-0.000909805,-0.000778198,0.010585785,0,
00:03.0,-0.00094986,-0.000795364,0.010631561,0,
00:03.1,-0.000967026,-0.000806808,0.010620117,0,
00:03.1,-0.000972748,-0.000812531,0.010717392,0,
00:03.1,-0.000926971,-0.000789642,0.010705948,0,
00:03.1,-0.000938416,-0.000789642,0.010705948,0,
00:03.1,-0.000989914,-0.000801086,0.010717392,0,
00:03.1,-0.000961304,-0.000801086,0.010717392,0,
00:03.1,-0.000984192,-0.000801086,0.010688782,0,
00:03.1,-0.000938416,-0.000801086,0.010688782,0,
00:03.1,-0.000955582,-0.000801086,0.010631561,0,
00:03.1,-0.00094986,-0.000795364,0.010648727,0,
00:03.1,-0.000932693,-0.000789642,0.010671616,0,
00:03.1,-0.00097847,-0.000801086,0.010660172,0,
00:03.1,-0.000955582,-0.000789642,0.010625839,0,
00:03.1,-0.000972748,-0.000806808,0.010688782,0,
00:03.1,-0.000909805,-0.000789642,0.010643005,0,
00:03.1,-0.000938416,-0.000778198,0.010637283,0,
00:03.1,-0.000926971,-0.000789642,0.010660172,0,
00:03.1,-0.000961304,-0.000789642,0.010648727,0,
00:03.1,-0.001001358,-0.000795364,0.010723114,0,
00:03.1,-0.000984192,-0.000806808,0.010643005,0,
00:03.1,-0.000989914,-0.000801086,0.010660172,0,
00:03.1,-0.000938416,-0.000766754,0.01068306,0,
00:03.1,-0.000955582,-0.000795364,0.01068306,0,
00:03.1,-0.000938416,-0.000812531,0.010746002,0,
00:03.1,-0.000967026,-0.000801086,0.010717392,0,
00:03.2,-0.000944138,-0.000801086,0.01068306,0,
00:03.2,-0.00094986,-0.000789642,0.010654449,0,
00:03.2,-0.000926971,-0.000778198,0.010637283,0,
00:03.2,-0.000921249,-0.000778198,0.010614395,0,
00:03.2,-0.000932693,-0.000772476,0.010631561,0,
00:03.2,-0.000938416,-0.000789642,0.010591507,0,
00:03.2,-0.000955582,-0.00078392,0.010700226,0,
00:03.2,-0.000967026,-0.000801086,0.010734558,0,
00:03.2,-0.001012802,-0.000818253,0.010723114,0,
00:03.2,-0.000995636,-0.000806808,0.010637283,0,
00:03.2,-0.000955582,-0.00078392,0.010534286,0,
00:03.2,-0.000967026,-0.000806808,0.010688782,0,
00:03.2,-0.001012802,-0.00078392,0.010751724,0,
00:03.2,-0.000915527,-0.00078392,0.010660172,0,
00:03.2,-0.000881195,-0.000778198,0.010637283,0,
00:03.2,-0.000984192,-0.00078392,0.010717392,0,
00:03.2,-0.000967026,-0.000806808,0.01071167,0,
00:03.2,-0.000944138,-0.000795364,0.01071167,0,
00:03.2,-0.000955582,-0.000795364,0.010677338,0,
00:03.2,-0.000961304,-0.000778198,0.010631561,0,
00:03.2,-0.000995636,-0.000766754,0.010717392,0,
00:03.2,-0.00097847,-0.000801086,0.01071167,0,
00:03.2,-0.000961304,-0.000801086,0.01071167,0,
00:03.2,-0.000875473,-0.000789642,0.010625839,0,
00:03.2,-0.000961304,-0.000789642,0.010648727,0,
00:03.3,-0.000961304,-0.000789642,0.01071167,0,
00:03.3,-0.000967026,-0.000795364,0.01071167,0,
00:03.3,-0.00094986,-0.000789642,0.010637283,0,
00:03.3,-0.000932693,-0.000766754,0.010545731,0,
00:03.3,-0.000972748,-0.000801086,0.010660172,0,
00:03.3,-0.000961304,-0.000789642,0.010751724,0,
00:03.3,-0.00094986,-0.000789642,0.010728836,0,
00:03.3,-0.00094986,-0.000789642,0.010665894,0,
00:03.3,-0.000995636,-0.000795364,0.010705948,0,
00:03.3,-0.000961304,-0.000789642,0.010734558,0,
00:03.3,-0.000926971,-0.00078392,0.010591507,0,
00:03.3,-0.000961304,-0.000789642,0.010694504,0,
00:03.3,-0.00094986,-0.000806808,0.010723114,0,
00:03.3,-0.000926971,-0.000789642,0.010717392,0,
00:03.3,-0.000989914,-0.000778198,0.010625839,0,
00:03.3,-0.00097847,-0.000795364,0.010654449,0,
00:03.3,-0.000932693,-0.000801086,0.010643005,0,
00:03.3,-0.000944138,-0.000778198,0.010597229,0,
00:03.3,-0.000972748,-0.000778198,0.010705948,0,
00:03.3,-0.000972748,-0.000778198,0.010763168,0,
00:03.3,-0.000972748,-0.000789642,0.010700226,0,
00:03.3,-0.000967026,-0.000806808,0.010654449,0,
00:03.3,-0.000961304,-0.00078392,0.010700226,0,
00:03.3,-0.000955582,-0.000772476,0.01068306,0,
00:03.3,-0.001018524,-0.000789642,0.010643005,0,
00:03.4,-0.000967026,-0.000806808,0.01071167,0,
00:03.4,-0.000932693,-0.00078392,0.010700226,0,
00:03.4,-0.000904083,-0.000772476,0.010665894,0,
00:03.4,-0.000967026,-0.00078392,0.01071167,0,
00:03.4,-0.000967026,-0.000795364,0.010625839,0,
00:03.4,-0.000938416,-0.000778198,0.010614395,0,
00:03.4,-0.000921249,-0.000772476,0.010648727,0,
00:03.4,-0.000915527,-0.000789642,0.010562897,0,
00:03.4,-0.000967026,-0.000789642,0.010717392,0,
00:03.4,-0.000972748,-0.000778198,0.01071167,0,
00:03.4,-0.000938416,-0.000761032,0.010660172,0,
00:03.4,-0.000944138,-0.000789642,0.010751724,0,
00:03.4,-0.000967026,-0.000795364,0.010700226,0,
00:03.4,-0.001001358,-0.00078392,0.010660172,0,
00:03.4,-0.000984192,-0.00078392,0.010574341,0,
00:03.4,-0.000938416,-0.000778198,0.010665894,0,
00:03.4,-0.000932693,-0.000778198,0.010665894,0,
00:03.4,-0.000967026,-0.000795364,0.010648727,0,
00:03.4,-0.000995636,-0.000789642,0.010665894,0,
00:03.4,-0.000955582,-0.000772476,0.010728836,0,
00:03.4,-0.000972748,-0.000778198,0.010660172,0,
00:03.4,-0.001012802,-0.000789642,0.010677338,0,
00:03.4,-0.00094986,-0.000778198,0.010631561,0,
00:03.4,-0.00094986,-0.000772476,0.01068306,0,
00:03.4,-0.000921249,-0.000766754,0.010665894,0,
00:03.5,-0.000955582,-0.000778198,0.010694504,0,
00:03.5,-0.000938416,-0.000772476,0.010654449,0,
00:03.5,-0.000972748,-0.000789642,0.010648727,0,
00:03.5,-0.000932693,-0.000789642,0.010677338,0,
00:03.5,-0.000972748,-0.00078392,0.010602951,0,
00:03.5,-0.000984192,-0.00078392,0.010665894,0,
00:03.5,-0.000955582,-0.00078392,0.010717392,0,
00:03.5,-0.000955582,-0.000772476,0.010654449,0,
00:03.5,-0.000989914,-0.000789642,0.010643005,0,
00:03.5,-0.00094986,-0.000778198,0.010677338,0,
00:03.5,-0.000909805,-0.000766754,0.010602951,0,
00:03.5,-0.000955582,-0.000761032,0.010528564,0,
00:03.5,-0.000926971,-0.000778198,0.010660172,0,
00:03.5,-0.000972748,-0.00078392,0.01074028,0,
00:03.5,-0.000989914,-0.000772476,0.010648727,0,
00:03.5,-0.000961304,-0.00078392,0.010671616,0,
00:03.5,-0.000944138,-0.000772476,0.010700226,0,
00:03.5,-0.000967026,-0.000772476,0.010700226,0,
00:03.5,-0.000921249,-0.000761032,0.010654449,0,
00:03.5,-0.00094986,-0.000789642,0.010625839,0,
00:03.5,-0.00094986,-0.00078392,0.01068306,0,
00:03.5,-0.001012802,-0.000795364,0.010654449,0,
00:03.5,-0.000984192,-0.000772476,0.010597229,0,
00:03.5,-0.000955582,-0.000761032,0.010528564,0,
00:03.5,-0.000944138,-0.000772476,0.010677338,0,
00:03.6,-0.000944138,-0.000795364,0.010786057,0,
00:03.6,-0.000967026,-0.000795364,0.010643005,0,
00:03.6,-0.000984192,-0.000778198,0.010631561,0,
00:03.6,-0.000944138,-0.000749588,0.010688782,0,
00:03.6,-0.000955582,-0.00078392,0.010688782,0,
00:03.6,-0.000972748,-0.00078392,0.010643005,0,
00:03.6,-0.00097847,-0.000789642,0.010654449,0,
00:03.6,-0.000984192,-0.000789642,0.010625839,0,
00:03.6,-0.000932693,-0.000766754,0.010568619,0,
00:03.6,-0.00094986,-0.00078392,0.010540009,0,
00:03.6,-0.000961304,-0.000772476,0.010643005,0,
00:03.6,-0.000967026,-0.000766754,0.010625839,0,
00:03.6,-0.00097847,-0.000772476,0.010723114,0,
00:03.6,-0.000926971,-0.000789642,0.010660172,0,
00:03.6,-0.001024246,-0.000789642,0.010688782,0,
00:03.6,-0.000995636,-0.000778198,0.010643005,0,
00:03.6,-0.000938416,-0.000761032,0.010620117,0,
00:03.6,-0.000904083,-0.000761032,0.010562897,0,
00:03.6,-0.000955582,-0.000778198,0.010717392,0,
00:03.6,-0.000984192,-0.000795364,0.010700226,0,
00:03.6,-0.00097847,-0.00078392,0.01071167,0,
00:03.6,-0.00097847,-0.000772476,0.01068306,0,
00:03.6,-0.000961304,-0.000789642,0.010585785,0,
00:03.6,-0.00097847,-0.000778198,0.010597229,0,
00:03.6,-0.000967026,-0.000766754,0.010665894,0,
00:03.7,-0.000926971,-0.00078392,0.010643005,0,
00:03.7,-0.000961304,-0.00078392,0.010545731,0,
00:03.7,-0.000955582,-0.000778198,0.010665894,0,
00:03.7,-0.000961304,-0.000778198,0.010705948,0,
00:03.7,-0.00094986,-0.000766754,0.010602951,0,
00:03.7,-0.000909805,-0.000766754,0.010608673,0,
00:03.7,-0.000989914,-0.00078392,0.010694504,0,
00:03.7,-0.001001358,-0.00078392,0.010700226,0,
00:03.7,-0.000944138,-0.00075531,0.010620117,0,
00:03.7,-0.00097847,-0.000778198,0.010585785,0,
00:03.7,-0.000989914,-0.000766754,0.010499954,0,
00:03.7,-0.00094986,-0.00075531,0.010625839,0,
00:03.7,-0.000967026,-0.00078392,0.010688782,0,
00:03.7,-0.000967026,-0.000789642,0.010671616,0,
00:03.7,-0.000944138,-0.000772476,0.010746002,0,
00:03.7,-0.00097847,-0.000778198,0.010625839,0,
00:03.7,-0.001012802,-0.000795364,0.010671616,0,
00:03.7,-0.000932693,-0.00078392,0.010694504,0,
00:03.7,-0.000961304,-0.000761032,0.010671616,0,
00:03.7,-0.000955582,-0.000761032,0.010614395,0,
00:03.7,-0.00097847,-0.000778198,0.010602951,0,
00:03.7,-0.000955582,-0.000778198,0.010705948,0,
00:03.7,-0.00094986,-0.000761032,0.010568619,0,
00:03.7,-0.00097847,-0.000766754,0.010614395,0,
00:03.7,-0.00097847,-0.000766754,0.010700226,0,
00:03.8,-0.000955582,-0.000772476,0.010637283,0,
00:03.8,-0.00097847,-0.00078392,0.010602951,0,
00:03.8,-0.00094986,-0.000766754,0.010671616,0,
00:03.8,-0.001001358,-0.000772476,0.010660172,0,
00:03.8,-0.000989914,-0.000778198,0.010648727,0,
00:03.8,-0.001029968,-0.000761032,0.010665894,0,
00:03.8,-0.000984192,-0.000772476,0.010665894,0,
00:03.8,-0.000892639,-0.000766754,0.010608673,0,
00:03.8,-0.000938416,-0.000778198,0.010608673,0,
00:03.8,-0.000938416,-0.000772476,0.010654449,0,
00:03.8,-0.000984192,-0.000761032,0.010591507,0,
00:03.8,-0.000967026,-0.000766754,0.010580063,0,
00:03.8,-0.00094986,-0.000778198,0.010671616,0,
00:03.8,-0.000944138,-0.000761032,0.010671616,0,
00:03.8,-0.000989914,-0.000761032,0.010614395,0,
00:03.8,-0.000961304,-0.000761032,0.010608673,0,
00:03.8,-0.000995636,-0.000772476,0.010660172,0,
00:03.8,-0.000967026,-0.00078392,0.010700226,0,
00:03.8,-0.000955582,-0.000766754,0.010694504,0,
00:03.8,-0.000932693,-0.000766754,0.010648727,0,
00:03.8,-0.000944138,-0.00075531,0.010557175,0,
00:03.8,-0.000984192,-0.000778198,0.010620117,0,
00:03.8,-0.001018524,-0.000772476,0.010746002,0,
00:03.8,-0.000972748,-0.000761032,0.010620117,0,
00:03.8,-0.000938416,-0.000749588,0.010557175,0,
00:03.9,-0.000955582,-0.000772476,0.010643005,0,
00:03.9,-0.00097847,-0.000778198,0.010654449,0,
00:03.9,-0.000938416,-0.00075531,0.010654449,0,
00:03.9,-0.00094986,-0.00075531,0.010660172,0,
00:03.9,-0.000932693,-0.00075531,0.010608673,0,
00:03.9,-0.000967026,-0.000772476,0.010620117,0,
00:03.9,-0.001041412,-0.000778198,0.010637283,0,
00:03.9,-0.000995636,-0.000772476,0.010643005,0,
00:03.9,-0.000938416,-0.000778198,0.010665894,0,
00:03.9,-0.000995636,-0.000766754,0.010620117,0,
00:03.9,-0.000984192,-0.000766754,0.01068306,0,
00:03.9,-0.000915527,-0.000749588,0.010631561,0,
00:03.9,-0.000932693,-0.000761032,0.010648727,0,
00:03.9,-0.000955582,-0.00075531,0.010660172,0,
00:03.9,-0.000972748,-0.000778198,0.010614395,0,
00:03.9,-0.000984192,-0.000761032,0.010614395,0,
00:03.9,-0.00097847,-0.00075531,0.010637283,0,
00:03.9,-0.000972748,-0.000778198,0.010648727,0,
00:03.9,-0.000967026,-0.000772476,0.010631561,0,
00:03.9,-0.000961304,-0.000743866,0.010528564,0,
00:03.9,-0.000972748,-0.00075531,0.010688782,0,
00:03.9,-0.00094986,-0.000761032,0.010660172,0,
00:03.9,-0.000984192,-0.00075531,0.010568619,0,
00:03.9,-0.000995636,-0.000772476,0.010631561,0,
00:03.9,-0.001012802,-0.000789642,0.010671616,0,
00:04.0,-0.000967026,-0.000766754,0.010660172,0,
00:04.0,-0.000967026,-0.00075531,0.010694504,0,
00:04.0,-0.00094986,-0.000766754,0.010614395,0,
00:04.0,-0.000909805,-0.000743866,0.010534286,0,
00:04.0,-0.000984192,-0.000766754,0.010574341,0,
00:04.0,-0.001001358,-0.000772476,0.010654449,0,
00:04.0,-0.000961304,-0.000772476,0.01074028,0,
00:04.0,-0.000921249,-0.000732422,0.010677338,0,
00:04.0,-0.000955582,-0.00075531,0.010585785,0,
00:04.0,-0.001012802,-0.000766754,0.010637283,0,
00:04.0,-0.001012802,-0.000766754,0.010660172,0,
00:04.0,-0.000967026,-0.000772476,0.010614395,0,
00:00:04,-0.000932693,-0.000772476,0.010551453,0,
00:04.0,-0.000961304,-0.000772476,0.010585785,0,
00:04.0,-0.000926971,-0.000749588,0.010677338,0,
00:04.0,-0.000984192,-0.000761032,0.010671616,0,
00:04.0,-0.000995636,-0.000766754,0.010625839,0,
00:04.0,-0.000989914,-0.00075531,0.010562897,0,
00:04.0,-0.000938416,-0.000772476,0.010608673,0,
00:04.0,-0.000995636,-0.000778198,0.010625839,0,
00:04.0,-0.001012802,-0.00075531,0.010648727,0,
00:04.0,-0.000989914,-0.00075531,0.01071167,0,
00:04.0,-0.000967026,-0.000749588,0.010591507,0,
00:04.0,-0.000984192,-0.000761032,0.010608673,0,
00:04.0,-0.000967026,-0.000749588,0.010665894,0,
00:04.1,-0.000909805,-0.000743866,0.010545731,0,
00:04.1,-0.000984192,-0.000772476,0.010643005,0,
00:04.1,-0.00097847,-0.000761032,0.010694504,0,
00:04.1,-0.00100708,-0.000749588,0.010625839,0,
00:04.1,-0.000995636,-0.000749588,0.010625839,0,
00:04.1,-0.000944138,-0.000749588,0.010585785,0,
00:04.1,-0.000944138,-0.000732422,0.010580063,0,
00:04.1,-0.000944138,-0.000766754,0.010625839,0,
00:04.1,-0.000984192,-0.000772476,0.010580063,0,
00:04.1,-0.00097847,-0.00075531,0.010568619,0,
00:04.1,-0.000961304,-0.000761032,0.010648727,0,
00:04.1,-0.000955582,-0.000738144,0.010482788,0,
00:04.1,-0.000989914,-0.000778198,0.01068306,0,
00:04.1,-0.000984192,-0.000738144,0.010786057,0,
00:04.1,-0.001024246,-0.00075531,0.010700226,0,
00:04.1,-0.000967026,-0.00075531,0.010625839,0,
00:04.1,-0.000955582,-0.000766754,0.010648727,0,
00:04.1,-0.000972748,-0.000772476,0.010562897,0,
00:04.1,-0.000984192,-0.000766754,0.010660172,0,
00:04.1,-0.000967026,-0.000772476,0.010660172,0,
00:04.1,-0.000944138,-0.000766754,0.010631561,0,
00:04.1,-0.000972748,-0.00075531,0.010614395,0,
00:04.1,-0.00100708,-0.000749588,0.010557175,0,
00:04.1,-0.000967026,-0.000743866,0.010534286,0,
00:04.1,-0.001001358,-0.000738144,0.010625839,0,
00:04.2,-0.000989914,-0.000743866,0.010660172,0,
00:04.2,-0.001001358,-0.000743866,0.010597229,0,
00:04.2,-0.000972748,-0.000766754,0.010568619,0,
00:04.2,-0.00097847,-0.00075531,0.010540009,0,
00:04.2,-0.000938416,-0.00075531,0.010660172,0,
00:04.2,-0.000955582,-0.000761032,0.010734558,0,
00:04.2,-0.001012802,-0.000761032,0.010677338,0,
00:04.2,-0.00094986,-0.000766754,0.010591507,0,
00:04.2,-0.000944138,-0.00075531,0.010643005,0,
00:04.2,-0.000967026,-0.000749588,0.010620117,0,
00:04.2,-0.00094986,-0.000749588,0.010528564,0,
00:04.2,-0.000961304,-0.000761032,0.010568619,0,
00:04.2,-0.001018524,-0.000761032,0.01071167,0,
00:04.2,-0.001029968,-0.000761032,0.010631561,0,
00:04.2,-0.000961304,-0.00075531,0.010585785,0,
00:04.2,-0.000967026,-0.000743866,0.010597229,0,
00:04.2,-0.000972748,-0.000761032,0.010637283,0,
00:04.2,-0.00097847,-0.000766754,0.010608673,0,
00:04.2,-0.000967026,-0.000738144,0.010643005,0,
00:04.2,-0.000932693,-0.000743866,0.010568619,0,
00:04.2,-0.001012802,-0.00075531,0.010540009,0,
00:04.2,-0.000995636,-0.000732422,0.010620117,0,
00:04.2,-0.000995636,-0.000732422,0.010482788,0,
00:04.2,-0.001018524,-0.000761032,0.010580063,0,
00:04.2,-0.000967026,-0.000761032,0.010763168,0,
00:04.3,-0.000926971,-0.000766754,0.010654449,0,
00:04.3,-0.000955582,-0.000766754,0.010608673,0,
00:04.3,-0.000972748,-0.000761032,0.010602951,0,
00:04.3,-0.000984192,-0.00075531,0.010648727,0,
00:04.3,-0.000995636,-0.000749588,0.010614395,0,
00:04.3,-0.000961304,-0.000732422,0.010511398,0,
00:04.3,-0.000967026,-0.000738144,0.010471344,0,
00:04.3,-0.000995636,-0.00075531,0.010660172,0,
00:04.3,-0.001024246,-0.000743866,0.010694504,0,
00:04.3,-0.000984192,-0.000738144,0.010499954,0,
00:04.3,-0.000961304,-0.000761032,0.010585785,0,
00:04.3,-0.000961304,-0.000761032,0.010763168,0,
00:04.3,-0.00094986,-0.000766754,0.01068306,0,
00:04.3,-0.00097847,-0.000743866,0.010637283,0,
00:04.3,-0.000955582,-0.000743866,0.010637283,0,
00:04.3,-0.000938416,-0.000732422,0.010528564,0,
00:04.3,-0.000961304,-0.000743866,0.010568619,0,
00:04.3,-0.000984192,-0.000732422,0.010620117,0,
00:04.3,-0.001024246,-0.000732422,0.010574341,0,
00:04.3,-0.001012802,-0.000766754,0.010608673,0,
00:04.3,-0.000926971,-0.000761032,0.010574341,0,
00:04.3,-0.000967026,-0.000749588,0.010499954,0,
00:04.3,-0.000961304,-0.000743866,0.010574341,0,
00:04.3,-0.000972748,-0.000743866,0.010705948,0,
00:04.3,-0.001024246,-0.000743866,0.010614395,0,
00:04.4,-0.001001358,-0.000743866,0.010620117,0,
00:04.4,-0.000909805,-0.000732422,0.010608673,0,
00:04.4,-0.000921249,-0.000720978,0.010551453,0,
00:04.4,-0.000944138,-0.0007267,0.010540009,0,
00:04.4,-0.000944138,-0.000749588,0.010540009,0,
00:04.4,-0.001012802,-0.000766754,0.010597229,0,
00:04.4,-0.001024246,-0.00075531,0.010734558,0,
00:04.4,-0.001012802,-0.000766754,0.01071167,0,
00:04.4,-0.001001358,-0.000749588,0.010643005,0,
00:04.4,-0.000995636,-0.000743866,0.010597229,0,
00:04.4,-0.001012802,-0.000749588,0.010620117,0,
00:04.4,-0.000961304,-0.000743866,0.010557175,0,
00:04.4,-0.000961304,-0.000743866,0.010454178,0,
00:04.4,-0.000961304,-0.000738144,0.010602951,0,
00:04.4,-0.000989914,-0.000749588,0.010665894,0,
00:04.4,-0.001001358,-0.00075531,0.010688782,0,
00:04.4,-0.000972748,-0.00075531,0.010614395,0,
00:04.4,-0.000955582,-0.000738144,0.010608673,0,
00:04.4,-0.00094986,-0.000732422,0.010568619,0,
00:04.4,-0.000989914,-0.000732422,0.010540009,0,
00:04.4,-0.00094986,-0.000732422,0.010580063,0,
00:04.4,-0.000944138,-0.000743866,0.010557175,0,
00:04.4,-0.00097847,-0.00075531,0.010522842,0,
00:04.4,-0.001018524,-0.000749588,0.010557175,0,
00:04.4,-0.000984192,-0.00075531,0.010694504,0,
00:04.5,-0.000995636,-0.000749588,0.010671616,0,
00:04.5,-0.000995636,-0.000743866,0.010620117,0,
00:04.5,-0.000989914,-0.000743866,0.010540009,0,
00:04.5,-0.000972748,-0.000720978,0.010505676,0,
00:04.5,-0.000915527,-0.000715256,0.010597229,0,
00:04.5,-0.000989914,-0.000732422,0.010608673,0,
00:04.5,-0.001001358,-0.000732422,0.010620117,0,
00:04.5,-0.000984192,-0.000749588,0.010597229,0,
00:04.5,-0.000961304,-0.000743866,0.010585785,0,
00:04.5,-0.00094986,-0.000749588,0.010608673,0,
00:04.5,-0.000984192,-0.000743866,0.010608673,0,
00:04.5,-0.00100708,-0.00075531,0.01068306,0,
00:04.5,-0.00100708,-0.000761032,0.010625839,0,
00:04.5,-0.001012802,-0.000749588,0.010528564,0,
00:04.5,-0.000995636,-0.000743866,0.010585785,0,
00:04.5,-0.000967026,-0.000738144,0.010671616,0,
00:04.5,-0.000995636,-0.000732422,0.010568619,0,
00:04.5,-0.000995636,-0.000732422,0.010465622,0,
00:04.5,-0.000967026,-0.000732422,0.010557175,0,
00:04.5,-0.000995636,-0.000743866,0.010694504,0,
00:04.5,-0.000989914,-0.0007267,0.010643005,0,
00:04.5,-0.000944138,-0.000743866,0.010602951,0,
00:04.5,-0.00094986,-0.000749588,0.010643005,0,
00:04.5,-0.00100708,-0.000738144,0.010625839,0,
00:04.5,-0.000984192,-0.000732422,0.010580063,0,
00:04.6,-0.00097847,-0.000732422,0.010568619,0,
00:04.6,-0.001029968,-0.000732422,0.010614395,0,
00:04.6,-0.000967026,-0.000738144,0.010528564,0,
00:04.6,-0.000989914,-0.0007267,0.010562897,0,
00:04.6,-0.000961304,-0.000743866,0.010557175,0,
00:04.6,-0.000995636,-0.00075531,0.010660172,0,
00:04.6,-0.000995636,-0.000749588,0.010700226,0,
00:04.6,-0.000967026,-0.000743866,0.010614395,0,
00:04.6,-0.000955582,-0.000732422,0.010499954,0,
00:04.6,-0.00097847,-0.000738144,0.010597229,0,
00:04.6,-0.000995636,-0.000738144,0.010625839,0,
00:04.6,-0.000989914,-0.000732422,0.010522842,0,
00:04.6,-0.000955582,-0.000738144,0.010591507,0,
00:04.6,-0.00097847,-0.000738144,0.010677338,0,
00:04.6,-0.000995636,-0.000743866,0.010625839,0,
00:04.6,-0.000955582,-0.0007267,0.010608673,0,
00:04.6,-0.000972748,-0.000738144,0.010608673,0,
00:04.6,-0.000984192,-0.000732422,0.010614395,0,
00:04.6,-0.000989914,-0.000749588,0.010585785,0,
00:04.6,-0.000955582,-0.000732422,0.010545731,0,
00:04.6,-0.00094986,-0.000720978,0.010557175,0,
00:04.6,-0.001029968,-0.000732422,0.010540009,0,
00:04.6,-0.00100708,-0.000743866,0.010620117,0,
00:04.6,-0.000972748,-0.000732422,0.010700226,0,
00:04.6,-0.000989914,-0.000732422,0.010602951,0,
00:04.7,-0.001018524,-0.000743866,0.010608673,0,
00:04.7,-0.001001358,-0.000743866,0.010585785,0,
00:04.7,-0.000984192,-0.000732422,0.010574341,0,
00:04.7,-0.000938416,-0.000732422,0.010562897,0,
00:04.7,-0.00094986,-0.0007267,0.010580063,0,
00:04.7,-0.000989914,-0.000703812,0.010620117,0,
00:04.7,-0.00097847,-0.000720978,0.010620117,0,
00:04.7,-0.00100708,-0.000732422,0.010568619,0,
00:04.7,-0.001024246,-0.000749588,0.010643005,0,
00:04.7,-0.000944138,-0.000732422,0.010631561,0,
00:04.7,-0.000955582,-0.000720978,0.010580063,0,
00:04.7,-0.000989914,-0.0007267,0.010631561,0,
00:04.7,-0.000984192,-0.000738144,0.010620117,0,
00:04.7,-0.000955582,-0.0007267,0.010643005,0,
00:04.7,-0.000926971,-0.000715256,0.010580063,0,
00:04.7,-0.000984192,-0.000720978,0.010540009,0,
00:04.7,-0.001001358,-0.000732422,0.01048851,0,
00:04.7,-0.000944138,-0.000715256,0.01051712,0,
00:04.7,-0.001001358,-0.000743866,0.010620117,0,
00:04.7,-0.000989914,-0.000743866,0.010694504,0,
00:04.7,-0.001012802,-0.000732422,0.010648727,0,
00:04.7,-0.001012802,-0.000743866,0.010557175,0,
00:04.7,-0.000967026,-0.000703812,0.010568619,0,
00:04.7,-0.000984192,-0.0007267,0.010562897,0,
00:04.7,-0.00100708,-0.000732422,0.010568619,0,
00:04.8,-0.000944138,-0.000715256,0.010688782,0,
00:04.8,-0.000955582,-0.000720978,0.010608673,0,
00:04.8,-0.000995636,-0.000732422,0.010494232,0,
00:04.8,-0.000989914,-0.0007267,0.010551453,0,
00:04.8,-0.000926971,-0.0007267,0.010700226,0,
00:04.8,-0.000932693,-0.000709534,0.010477066,0,
00:04.8,-0.001064301,-0.000732422,0.010585785,0,
00:04.8,-0.000989914,-0.000732422,0.010671616,0,
00:04.8,-0.00100708,-0.000732422,0.010637283,0,
00:04.8,-0.000984192,-0.000738144,0.010648727,0,
00:04.8,-0.000995636,-0.000738144,0.010643005,0,
00:04.8,-0.00094986,-0.000715256,0.010614395,0,
00:04.8,-0.00097847,-0.0007267,0.010568619,0,
00:04.8,-0.000984192,-0.0007267,0.010608673,0,
00:04.8,-0.000967026,-0.000720978,0.010551453,0,
00:04.8,-0.001001358,-0.000715256,0.01051712,0,
00:04.8,-0.000944138,-0.000709534,0.010568619,0,
00:04.8,-0.000961304,-0.000709534,0.010471344,0,
00:04.8,-0.000967026,-0.000738144,0.010677338,0,
00:04.8,-0.000967026,-0.0007267,0.010602951,0,
00:04.8,-0.001012802,-0.000715256,0.010522842,0,
00:04.8,-0.001029968,-0.000732422,0.010597229,0,
00:04.8,-0.000989914,-0.000738144,0.010660172,0,
00:04.8,-0.000972748,-0.0007267,0.010625839,0,
00:04.8,-0.001018524,-0.000732422,0.010660172,0,
00:04.9,-0.000944138,-0.0007267,0.010591507,0,
00:04.9,-0.000955582,-0.0007267,0.010545731,0,
00:04.9,-0.000995636,-0.0007267,0.010511398,0,
00:04.9,-0.000984192,-0.000715256,0.010665894,0,
00:04.9,-0.000984192,-0.000732422,0.010637283,0,
00:04.9,-0.00097847,-0.000732422,0.010608673,0,
00:04.9,-0.000961304,-0.000715256,0.010591507,0,
00:04.9,-0.000984192,-0.000715256,0.010562897,0,
00:04.9,-0.001001358,-0.000720978,0.010545731,0,
00:04.9,-0.000972748,-0.000715256,0.010620117,0,
00:04.9,-0.000938416,-0.000715256,0.010597229,0,
00:04.9,-0.000955582,-0.0007267,0.010522842,0,
00:04.9,-0.001018524,-0.0007267,0.010511398,0,
00:04.9,-0.001012802,-0.000720978,0.010648727,0,
00:04.9,-0.000938416,-0.000720978,0.010602951,0,
00:04.9,-0.000972748,-0.000715256,0.010568619,0,
00:04.9,-0.00100708,-0.0007267,0.010643005,0,
00:04.9,-0.00097847,-0.000720978,0.010591507,0,
00:04.9,-0.001001358,-0.0007267,0.010545731,0,
00:04.9,-0.000967026,-0.0007267,0.010442734,0,
00:04.9,-0.000944138,-0.000720978,0.010602951,0,
00:04.9,-0.001012802,-0.000732422,0.010688782,0,
00:04.9,-0.000984192,-0.000720978,0.010562897,0,
00:04.9,-0.000926971,-0.000709534,0.010574341,0,
00:04.9,-0.000972748,-0.000715256,0.010614395,0,
00:05.0,-0.001001358,-0.0007267,0.010660172,0,
00:05.0,-0.000995636,-0.000738144,0.010597229,0,
00:05.0,-0.00094986,-0.000709534,0.010505676,0,
00:05.0,-0.00100708,-0.000720978,0.010602951,0,
00:05.0,-0.00100708,-0.000720978,0.010648727,0,
00:05.0,-0.001001358,-0.000720978,0.010568619,0,
00:05.0,-0.000967026,-0.000715256,0.010551453,0,
00:05.0,-0.000995636,-0.0007267,0.010585785,0,
00:05.0,-0.000972748,-0.000720978,0.010597229,0,
00:05.0,-0.000932693,-0.000720978,0.010602951,0,
00:05.0,-0.000995636,-0.000703812,0.010534286,0,
00:05.0,-0.00100708,-0.000720978,0.010505676,0,
00:00:05,-0.000972748,-0.000720978,0.010540009,0,
00:05.0,-0.000972748,-0.00069809,0.010540009,0,
00:05.0,-0.000972748,-0.000709534,0.010591507,0,
00:05.0,-0.000955582,-0.000715256,0.010660172,0,
00:05.0,-0.001001358,-0.000720978,0.010631561,0,
00:05.0,-0.00103569,-0.000715256,0.010637283,0,
00:05.0,-0.00097847,-0.0007267,0.010557175,0,
00:05.0,-0.000955582,-0.000720978,0.010643005,0,
00:05.0,-0.000995636,-0.000703812,0.010648727,0,
00:05.0,-0.000989914,-0.000709534,0.010585785,0,
00:05.0,-0.000961304,-0.000720978,0.010528564,0,
00:05.0,-0.000938416,-0.000680923,0.010494232,0,
00:05.0,-0.000995636,-0.0007267,0.010580063,0,
00:05.1,-0.001052856,-0.000738144,0.010654449,0,
00:05.1,-0.000972748,-0.000715256,0.010625839,0,
00:05.1,-0.00097847,-0.000715256,0.010591507,0,
00:05.1,-0.00097847,-0.000709534,0.010643005,0,
00:05.1,-0.000995636,-0.000709534,0.010574341,0,
00:05.1,-0.00097847,-0.000709534,0.010471344,0,
00:05.1,-0.000989914,-0.000715256,0.010580063,0,
00:05.1,-0.00100708,-0.000720978,0.010654449,0,
00:05.1,-0.000995636,-0.00069809,0.010568619,0,
00:05.1,-0.00097847,-0.00069809,0.010505676,0,
00:05.1,-0.001001358,-0.000720978,0.010602951,0,
00:05.1,-0.00097847,-0.000715256,0.010540009,0,
00:05.1,-0.000961304,-0.000709534,0.010442734,0,
00:05.1,-0.001012802,-0.000703812,0.010648727,0,
00:05.1,-0.00100708,-0.000715256,0.010705948,0,
00:05.1,-0.000938416,-0.00069809,0.010608673,0,
00:05.1,-0.00100708,-0.000703812,0.010665894,0,
00:05.1,-0.000967026,-0.000709534,0.010585785,0,
00:05.1,-0.000921249,-0.000709534,0.010534286,0,
00:05.1,-0.000989914,-0.000715256,0.010602951,0,
00:05.1,-0.000989914,-0.000715256,0.010608673,0,
00:05.1,-0.000961304,-0.000686646,0.010545731,0,
00:05.1,-0.001012802,-0.000686646,0.010419846,0,
00:05.1,-0.001024246,-0.0007267,0.010505676,0,
00:05.1,-0.001012802,-0.0007267,0.01074028,0,
00:05.2,-0.000995636,-0.000715256,0.010671616,0,
00:05.2,-0.000967026,-0.00069809,0.010528564,0,
00:05.2,-0.000961304,-0.00069809,0.010511398,0,
00:05.2,-0.000984192,-0.000703812,0.010568619,0,
00:05.2,-0.001018524,-0.000703812,0.010660172,0,
00:05.2,-0.000984192,-0.000703812,0.010534286,0,
00:05.2,-0.000967026,-0.000680923,0.010540009,0,
00:05.2,-0.000967026,-0.000686646,0.010620117,0,
00:05.2,-0.001001358,-0.000720978,0.010608673,0,
00:05.2,-0.000989914,-0.000720978,0.010528564,0,
00:05.2,-0.000955582,-0.00069809,0.010545731,0,
00:05.2,-0.001018524,-0.000709534,0.010694504,0,
00:05.2,-0.001041412,-0.000715256,0.010608673,0,
00:05.2,-0.000961304,-0.000720978,0.010545731,0,
00:05.2,-0.000967026,-0.00069809,0.010637283,0,
00:05.2,-0.000989914,-0.00069809,0.010608673,0,
00:05.2,-0.000989914,-0.000692368,0.010568619,0,
00:05.2,-0.001018524,-0.000720978,0.010442734,0,
00:05.2,-0.000961304,-0.000703812,0.010477066,0,
00:05.2,-0.000961304,-0.00069809,0.01074028,0,
00:05.2,-0.001012802,-0.0007267,0.010700226,0,
00:05.2,-0.001012802,-0.000703812,0.010620117,0,
00:05.2,-0.001001358,-0.00069809,0.010574341,0,
00:05.2,-0.000984192,-0.000692368,0.010562897,0,
00:05.2,-0.00097847,-0.00069809,0.010522842,0,
00:05.3,-0.000967026,-0.000703812,0.010568619,0,
00:05.3,-0.000961304,-0.000703812,0.010608673,0,
00:05.3,-0.000967026,-0.000680923,0.010522842,0,
00:05.3,-0.000995636,-0.000703812,0.010551453,0,
00:05.3,-0.001001358,-0.000703812,0.010597229,0,
00:05.3,-0.000955582,-0.000680923,0.010545731,0,
00:05.3,-0.000995636,-0.000692368,0.010568619,0,
00:05.3,-0.000984192,-0.000709534,0.010585785,0,
00:05.3,-0.000995636,-0.000703812,0.010591507,0,
00:05.3,-0.000995636,-0.000692368,0.010528564,0,
00:05.3,-0.000995636,-0.000709534,0.010545731,0,
00:05.3,-0.000972748,-0.000709534,0.010545731,0,
00:05.3,-0.000984192,-0.000692368,0.010665894,0,
00:05.3,-0.000967026,-0.00069809,0.010665894,0,
00:05.3,-0.001001358,-0.000709534,0.010608673,0,
00:05.3,-0.001018524,-0.000703812,0.010568619,0,
00:05.3,-0.001018524,-0.000720978,0.010597229,0,
00:05.3,-0.000995636,-0.000703812,0.010631561,0,
00:05.3,-0.000944138,-0.000686646,0.010591507,0,
00:05.3,-0.000955582,-0.000675201,0.010557175,0,
00:05.3,-0.000972748,-0.000686646,0.010471344,0,
00:05.3,-0.000967026,-0.000680923,0.010551453,0,
00:05.3,-0.000989914,-0.00069809,0.010562897,0,
00:05.3,-0.001001358,-0.000709534,0.010557175,0,
00:05.3,-0.001001358,-0.000692368,0.01051712,0,
00:05.4,-0.001012802,-0.00069809,0.010574341,0,
00:05.4,-0.000995636,-0.000709534,0.010677338,0,
00:05.4,-0.000961304,-0.000703812,0.010660172,0,
00:05.4,-0.000955582,-0.000703812,0.010580063,0,
00:05.4,-0.000972748,-0.000703812,0.010494232,0,
00:05.4,-0.000972748,-0.000692368,0.010534286,0,
00:05.4,-0.001024246,-0.000703812,0.010608673,0,
00:05.4,-0.000984192,-0.000692368,0.010648727,0,
00:05.4,-0.000944138,-0.000680923,0.010608673,0,
00:05.4,-0.00097847,-0.00069809,0.010585785,0,
00:05.4,-0.000995636,-0.000703812,0.010580063,0,
00:05.4,-0.00097847,-0.000686646,0.010545731,0,
00:05.4,-0.000972748,-0.000680923,0.010528564,0,
00:05.4,-0.001018524,-0.000686646,0.010499954,0,
00:05.4,-0.001001358,-0.000709534,0.010620117,0,
00:05.4,-0.000972748,-0.000686646,0.010585785,0,
00:05.4,-0.000967026,-0.000680923,0.010585785,0,
00:05.4,-0.001024246,-0.000709534,0.010648727,0,
00:05.4,-0.000989914,-0.00069809,0.010654449,0,
00:05.4,-0.000967026,-0.000692368,0.01051712,0,
00:05.4,-0.000944138,-0.00069809,0.010608673,0,
00:05.4,-0.000961304,-0.00069809,0.010614395,0,
00:05.4,-0.000989914,-0.000703812,0.010562897,0,
00:05.4,-0.000972748,-0.000680923,0.010580063,0,
00:05.4,-0.00094986,-0.000686646,0.01051712,0,
00:05.5,-0.001001358,-0.000686646,0.010477066,0,
00:05.5,-0.000984192,-0.000686646,0.010671616,0,
00:05.5,-0.001012802,-0.000709534,0.010585785,0,
00:05.5,-0.001001358,-0.000703812,0.010568619,0,
00:05.5,-0.000972748,-0.000692368,0.010551453,0,
00:05.5,-0.000972748,-0.000686646,0.010620117,0,
00:05.5,-0.00097847,-0.000680923,0.010557175,0,
00:05.5,-0.001024246,-0.000686646,0.010614395,0,
00:05.5,-0.001029968,-0.000686646,0.010568619,0,
00:05.5,-0.000898361,-0.000686646,0.010505676,0,
00:05.5,-0.000932693,-0.000686646,0.010557175,0,
00:05.5,-0.000938416,-0.000703812,0.010608673,0,
00:05.5,-0.000967026,-0.000680923,0.010585785,0,
00:05.5,-0.00103569,-0.000692368,0.010562897,0,
00:05.5,-0.000984192,-0.000703812,0.010625839,0,
00:05.5,-0.00097847,-0.000686646,0.010620117,0,
00:05.5,-0.00097847,-0.000686646,0.010602951,0,
00:05.5,-0.000972748,-0.000686646,0.010568619,0,
00:05.5,-0.00097847,-0.000686646,0.0104599,0,
00:05.5,-0.00097847,-0.000675201,0.010568619,0,
00:05.5,-0.00100708,-0.000692368,0.010614395,0,
00:05.5,-0.000967026,-0.00069809,0.010562897,0,
00:05.5,-0.000972748,-0.00069809,0.010665894,0,
00:05.5,-0.000984192,-0.000686646,0.010625839,0,
00:05.5,-0.000984192,-0.000686646,0.010568619,0,
00:05.6,-0.000984192,-0.00069809,0.010494232,0,
00:05.6,-0.00097847,-0.000686646,0.010562897,0,
00:05.6,-0.000989914,-0.000675201,0.010580063,0,
00:05.6,-0.000989914,-0.000669479,0.010568619,0,
00:05.6,-0.000944138,-0.000692368,0.010631561,0,
00:05.6,-0.000932693,-0.000680923,0.010574341,0,
00:05.6,-0.000955582,-0.000692368,0.010614395,0,
00:05.6,-0.00094986,-0.000692368,0.010522842,0,
00:05.6,-0.000995636,-0.00069809,0.010585785,0,
00:05.6,-0.001001358,-0.000692368,0.010585785,0,
00:05.6,-0.000967026,-0.000692368,0.010545731,0,
00:05.6,-0.00094986,-0.000669479,0.010574341,0,
00:05.6,-0.000955582,-0.000680923,0.010580063,0,
00:05.6,-0.001001358,-0.00069809,0.010591507,0,
00:05.6,-0.000938416,-0.000680923,0.010494232,0,
00:05.6,-0.000961304,-0.000686646,0.010522842,0,
00:05.6,-0.001001358,-0.000675201,0.010551453,0,
00:05.6,-0.001012802,-0.000680923,0.010643005,0,
00:05.6,-0.000944138,-0.00069809,0.010602951,0,
00:05.6,-0.000909805,-0.000680923,0.010602951,0,
00:05.6,-0.000967026,-0.000686646,0.010614395,0,
00:05.6,-0.000984192,-0.000686646,0.010557175,0,
00:05.6,-0.00100708,-0.000686646,0.010597229,0,
00:05.6,-0.00094986,-0.00069809,0.010625839,0,
00:05.6,-0.00097847,-0.000669479,0.010614395,0,
00:05.7,-0.000989914,-0.000675201,0.010534286,0,
00:05.7,-0.00097847,-0.000686646,0.010568619,0,
00:05.7,-0.000904083,-0.000675201,0.010522842,0,
00:05.7,-0.000995636,-0.000692368,0.010465622,0,
00:05.7,-0.000989914,-0.000686646,0.010562897,0,
00:05.7,-0.000915527,-0.000675201,0.010614395,0,
00:05.7,-0.000938416,-0.000669479,0.010580063,0,
00:05.7,-0.000989914,-0.00069809,0.010551453,0,
00:05.7,-0.000955582,-0.000686646,0.010562897,0,
00:05.7,-0.000955582,-0.000675201,0.010511398,0,
00:05.7,-0.000972748,-0.000669479,0.010614395,0,
00:05.7,-0.000938416,-0.000669479,0.01051712,0,
00:05.7,-0.000984192,-0.000680923,0.010614395,0,
00:05.7,-0.000961304,-0.00069809,0.010671616,0,
00:05.7,-0.000961304,-0.000680923,0.010608673,0,
00:05.7,-0.00103569,-0.000703812,0.010597229,0,
00:05.7,-0.001029968,-0.000692368,0.010574341,0,
00:05.7,-0.00094986,-0.000669479,0.010637283,0,
00:05.7,-0.000984192,-0.000669479,0.010557175,0,
00:05.7,-0.000989914,-0.000675201,0.010585785,0,
00:05.7,-0.000984192,-0.000663757,0.010528564,0,
00:05.7,-0.000967026,-0.000686646,0.010551453,0,
00:05.7,-0.000995636,-0.000703812,0.010562897,0,
00:05.7,-0.000984192,-0.000680923,0.010528564,0,
00:05.7,-0.00094986,-0.000669479,0.010505676,0,
00:05.8,-0.000984192,-0.000675201,0.010568619,0,
00:05.8,-0.001001358,-0.000686646,0.010654449,0,
00:05.8,-0.000944138,-0.000669479,0.010637283,0,
00:05.8,-0.00100708,-0.000663757,0.010614395,0,
00:05.8,-0.000892639,-0.000658035,0.010391235,0,
00:05.8,-0.000938416,-0.000658035,0.010419846,0,
00:05.8,-0.000989914,-0.000686646,0.010654449,0,
00:05.8,-0.001018524,-0.000692368,0.010602951,0,
00:05.8,-0.000921249,-0.000686646,0.010597229,0,
00:05.8,-0.000938416,-0.000680923,0.010614395,0,
00:05.8,-0.001001358,-0.000675201,0.010562897,0,
00:05.8,-0.00097847,-0.000680923,0.010568619,0,
00:05.8,-0.000926971,-0.000669479,0.010522842,0,
00:05.8,-0.000915527,-0.000663757,0.010522842,0,
00:05.8,-0.000989914,-0.000692368,0.010568619,0,
00:05.8,-0.00103569,-0.000680923,0.01048851,0,
00:05.8,-0.000967026,-0.000675201,0.010574341,0,
00:05.8,-0.000938416,-0.000663757,0.010608673,0,
00:05.8,-0.001018524,-0.000675201,0.01048851,0,
00:05.8,-0.001018524,-0.000686646,0.010534286,0,
00:05.8,-0.000909805,-0.000669479,0.010648727,0,
00:05.8,-0.000972748,-0.000669479,0.010499954,0,
00:05.8,-0.000972748,-0.000680923,0.010545731,0,
00:05.8,-0.000984192,-0.000675201,0.010608673,0,
00:05.8,-0.001001358,-0.000680923,0.010591507,0,
00:05.9,-0.000967026,-0.000675201,0.010471344,0,
00:05.9,-0.000904083,-0.000680923,0.01051712,0,
00:05.9,-0.000995636,-0.000669479,0.010562897,0,
00:05.9,-0.001018524,-0.000675201,0.010551453,0,
00:05.9,-0.000967026,-0.000669479,0.010557175,0,
00:05.9,-0.000961304,-0.000669479,0.010494232,0,
00:05.9,-0.000938416,-0.000669479,0.010499954,0,
00:05.9,-0.000955582,-0.000658035,0.0104599,0,
00:05.9,-0.000995636,-0.000663757,0.010562897,0,
00:05.9,-0.001012802,-0.000680923,0.010557175,0,
00:05.9,-0.000909805,-0.000669479,0.010419846,0,
00:05.9,-0.000995636,-0.000680923,0.010505676,0,
00:05.9,-0.00100708,-0.000692368,0.010614395,0,
00:05.9,-0.000989914,-0.000663757,0.010528564,0,
00:05.9,-0.000932693,-0.000675201,0.01051712,0,
00:05.9,-0.000972748,-0.000675201,0.010494232,0,
00:05.9,-0.00094986,-0.000669479,0.010494232,0,
00:05.9,-0.001041412,-0.000663757,0.010528564,0,
00:05.9,-0.000967026,-0.000663757,0.010511398,0,
00:05.9,-0.000921249,-0.000675201,0.0104599,0,
00:05.9,-0.000967026,-0.000680923,0.010534286,0,
00:05.9,-0.00094986,-0.000675201,0.010602951,0,
00:05.9,-0.000967026,-0.000675201,0.010522842,0,
00:05.9,-0.000972748,-0.000658035,0.01051712,0,
00:05.9,-0.00097847,-0.000675201,0.01043129,0,
00:06.0,-0.000989914,-0.000686646,0.010540009,0,
00:06.0,-0.001024246,-0.000669479,0.010568619,0,
00:06.0,-0.000961304,-0.000663757,0.010557175,0,
00:06.0,-0.000967026,-0.000658035,0.010471344,0,
00:06.0,-0.000961304,-0.000658035,0.010448456,0,
00:06.0,-0.000944138,-0.000675201,0.010442734,0,
00:06.0,-0.000967026,-0.000669479,0.010511398,0,
00:06.0,-0.000984192,-0.000680923,0.010499954,0,
00:06.0,-0.000972748,-0.000669479,0.010545731,0,
00:06.0,-0.001001358,-0.000669479,0.010545731,0,
00:06.0,-0.001001358,-0.000680923,0.01043129,0,
00:06.0,-0.000984192,-0.000669479,0.010454178,0,
00:00:06,-0.000989914,-0.000675201,0.010580063,0,
00:06.0,-0.000972748,-0.000669479,0.010562897,0,
00:06.0,-0.000915527,-0.000663757,0.010522842,0,
00:06.0,-0.000932693,-0.000658035,0.010522842,0,
00:06.0,-0.000852585,-0.000652313,0.010437012,0,
00:06.0,-0.000932693,-0.000663757,0.010379791,0,
00:06.0,-0.00100708,-0.000692368,0.010528564,0,
00:06.0,-0.001001358,-0.000692368,0.010631561,0,
00:06.0,-0.00103569,-0.000658035,0.010482788,0,
00:06.0,-0.000967026,-0.000652313,0.010505676,0,
00:06.0,-0.00097847,-0.000669479,0.010425568,0,
00:06.0,-0.000926971,-0.000652313,0.010356903,0,
00:06.0,-0.001001358,-0.000680923,0.010568619,0,
00:06.1,-0.001001358,-0.000692368,0.010557175,0,
00:06.1,-0.000967026,-0.000669479,0.010534286,0,
00:06.1,-0.001001358,-0.000675201,0.010534286,0,
00:06.1,-0.000944138,-0.000646591,0.010482788,0,
00:06.1,-0.000984192,-0.000652313,0.010419846,0,
00:06.1,-0.000944138,-0.000663757,0.010374069,0,
00:06.1,-0.000898361,-0.000675201,0.010419846,0,
00:06.1,-0.00094986,-0.000686646,0.010574341,0,
00:06.1,-0.000989914,-0.000675201,0.010522842,0,
00:06.1,-0.000967026,-0.000680923,0.010534286,0,
00:06.1,-0.000967026,-0.000663757,0.01051712,0,
00:06.1,-0.00100708,-0.000675201,0.010545731,0,
00:06.1,-0.001052856,-0.000686646,0.010505676,0,
00:06.1,-0.000972748,-0.000663757,0.01048851,0,
00:06.1,-0.000995636,-0.000669479,0.010494232,0,
00:06.1,-0.00100708,-0.000675201,0.010437012,0,
00:06.1,-0.000972748,-0.000669479,0.010465622,0,
00:06.1,-0.000967026,-0.000675201,0.010477066,0,
00:06.1,-0.000926971,-0.000680923,0.010442734,0,
00:06.1,-0.000875473,-0.000646591,0.010465622,0,
00:06.1,-0.000926971,-0.000635147,0.010442734,0,
00:06.1,-0.001052856,-0.000652313,0.010408401,0,
00:06.1,-0.000972748,-0.000680923,0.0104599,0,
00:06.1,-0.000955582,-0.000675201,0.010499954,0,
00:06.1,-0.000938416,-0.000658035,0.010442734,0,
00:06.2,-0.000972748,-0.000663757,0.010482788,0,
00:06.2,-0.000995636,-0.000686646,0.01048851,0,
00:06.2,-0.000972748,-0.000675201,0.010505676,0,
00:06.2,-0.000972748,-0.000675201,0.010471344,0,
00:06.2,-0.001041412,-0.000680923,0.010482788,0,
00:06.2,-0.000989914,-0.000663757,0.010425568,0,
00:06.2,-0.001001358,-0.000652313,0.010499954,0,
00:06.2,-0.00097847,-0.000663757,0.010414124,0,
00:06.2,-0.000944138,-0.000680923,0.010293961,0,
00:06.2,-0.000972748,-0.000652313,0.010385513,0,
00:06.2,-0.00097847,-0.000663757,0.01051712,0,
00:06.2,-0.000938416,-0.000658035,0.010499954,0,
00:06.2,-0.001127243,-0.000640869,0.010402679,0,
00:06.2,-0.001058578,-0.000669479,0.010471344,0,
00:06.2,-0.001075745,-0.000652313,0.01051712,0,
00:06.2,-0.000858307,-0.000669479,0.010477066,0,
00:06.2,-0.000898361,-0.000663757,0.010425568,0,
00:06.2,-0.001012802,-0.000669479,0.010448456,0,
00:06.2,-0.001012802,-0.000675201,0.010471344,0,
00:06.2,-0.000909805,-0.000663757,0.010362625,0,
00:06.2,-0.000944138,-0.000669479,0.010465622,0,
00:06.2,-0.000995636,-0.000658035,0.0104599,0,
00:06.2,-0.001041412,-0.000669479,0.010448456,0,
00:06.2,-0.000967026,-0.000675201,0.010534286,0,
00:06.2,-0.00094986,-0.000669479,0.010437012,0,
00:06.3,-0.000972748,-0.000663757,0.010385513,0,
00:06.3,-0.00100708,-0.000658035,0.01043129,0,
00:06.3,-0.000961304,-0.000646591,0.010396957,0,
00:06.3,-0.000944138,-0.000635147,0.010356903,0,
00:06.3,-0.000967026,-0.000646591,0.010362625,0,
00:06.3,-0.000984192,-0.000686646,0.010465622,0,
00:06.3,-0.000944138,-0.000680923,0.01043129,0,
00:06.3,-0.001029968,-0.000658035,0.010482788,0,
00:06.3,-0.001047134,-0.000669479,0.010454178,0,
00:06.3,-0.000926971,-0.000658035,0.010299683,0,
00:06.3,-0.000869751,-0.000646591,0.010351181,0,
00:06.3,-0.00097847,-0.000663757,0.010402679,0,
00:06.3,-0.001075745,-0.000686646,0.010499954,0,
00:06.3,-0.000944138,-0.000646591,0.010414124,0,
00:06.3,-0.001012802,-0.000663757,0.010482788,0,
00:06.3,-0.000909805,-0.000669479,0.010442734,0,
00:06.3,-0.00097847,-0.000680923,0.010379791,0,
00:06.3,-0.00097847,-0.000658035,0.010351181,0,
00:06.3,-0.00094986,-0.000663757,0.010408401,0,
00:06.3,-0.001012802,-0.000680923,0.010408401,0,
00:06.3,-0.000944138,-0.000663757,0.010334015,0,
00:06.3,-0.00100708,-0.000635147,0.010448456,0,
00:06.3,-0.00100708,-0.000658035,0.010448456,0,
00:06.3,-0.000886917,-0.000663757,0.010328293,0,
00:06.3,-0.00094986,-0.000658035,0.010253906,0,
00:06.4,-0.000995636,-0.000663757,0.010351181,0,
00:06.4,-0.000984192,-0.000652313,0.010356903,0,
00:06.4,-0.00097847,-0.000669479,0.010334015,0,
00:06.4,-0.001041412,-0.000663757,0.010316849,0,
00:06.4,-0.001018524,-0.000652313,0.010425568,0,
00:06.4,-0.000921249,-0.000652313,0.010402679,0,
00:06.4,-0.000972748,-0.000663757,0.010276794,0,
00:06.4,-0.000955582,-0.000669479,0.010299683,0,
00:06.4,-0.00094986,-0.000663757,0.010471344,0,
00:06.4,-0.001012802,-0.000629425,0.010448456,0,
00:06.4,-0.000995636,-0.000663757,0.010311127,0,
00:06.4,-0.000881195,-0.000680923,0.010311127,0,
00:06.4,-0.000898361,-0.000652313,0.010396957,0,
00:06.4,-0.000967026,-0.000675201,0.010419846,0,
00:06.4,-0.001018524,-0.000658035,0.010345459,0,
00:06.4,-0.001012802,-0.000640869,0.010368347,0,
00:06.4,-0.00100708,-0.000646591,0.010316849,0,
00:06.4,-0.000989914,-0.000663757,0.010248184,0,
00:06.4,-0.00094986,-0.000658035,0.010368347,0,
00:06.4,-0.000926971,-0.000640869,0.010328293,0,
00:06.4,-0.00100708,-0.000646591,0.010339737,0,
00:06.4,-0.001001358,-0.000652313,0.010396957,0,
00:06.4,-0.000961304,-0.000663757,0.010311127,0,
00:06.4,-0.000932693,-0.000652313,0.010368347,0,
00:06.4,-0.000967026,-0.000686646,0.010322571,0,
00:06.5,-0.000967026,-0.000652313,0.010328293,0,
00:06.5,-0.000955582,-0.000675201,0.010339737,0,
00:06.5,-0.00100708,-0.000675201,0.010293961,0,
00:06.5,-0.000961304,-0.000652313,0.010362625,0,
00:06.5,-0.000915527,-0.000652313,0.010259628,0,
00:06.5,-0.00097847,-0.000629425,0.010299683,0,
00:06.5,-0.001041412,-0.000652313,0.010356903,0,
00:06.5,-0.00097847,-0.000675201,0.010345459,0,
00:06.5,-0.000932693,-0.000669479,0.010316849,0,
00:06.5,-0.000886917,-0.000646591,0.010311127,0,
00:06.5,-0.000995636,-0.000606537,0.010374069,0,
00:06.5,-0.00094986,-0.000640869,0.010282516,0,
00:06.5,-0.001001358,-0.000686646,0.010328293,0,
00:06.5,-0.001047134,-0.000658035,0.010311127,0,
00:06.5,-0.001041412,-0.000663757,0.010316849,0,
00:06.5,-0.000972748,-0.000652313,0.010385513,0,
00:06.5,-0.000984192,-0.000652313,0.01026535,0,
00:06.5,-0.000961304,-0.000669479,0.010248184,0,
00:06.5,-0.00097847,-0.000669479,0.010345459,0,
00:06.5,-0.000926971,-0.000617981,0.010248184,0,
00:06.5,-0.000926971,-0.000629425,0.010276794,0,
00:06.5,-0.000926971,-0.000658035,0.010282516,0,
00:06.5,-0.001001358,-0.000652313,0.010368347,0,
00:06.5,-0.001001358,-0.000623703,0.010305405,0,
00:06.5,-0.000955582,-0.000663757,0.010156631,0,
00:06.6,-0.000989914,-0.000669479,0.010419846,0,
00:06.6,-0.001041412,-0.000658035,0.010253906,0,
00:06.6,-0.00100708,-0.000663757,0.010293961,0,
00:06.6,-0.001018524,-0.000640869,0.010322571,0,
00:06.6,-0.000909805,-0.000635147,0.010259628,0,
00:06.6,-0.00094986,-0.000658035,0.010253906,0,
00:06.6,-0.000984192,-0.000617981,0.010248184,0,
00:06.6,-0.000921249,-0.000652313,0.010259628,0,
00:06.6,-0.000955582,-0.000675201,0.010316849,0,
00:06.6,-0.001024246,-0.000675201,0.010219574,0,
00:06.6,-0.000972748,-0.000680923,0.010231018,0,
00:06.6,-0.000932693,-0.000663757,0.01023674,0,
00:06.6,-0.000995636,-0.000629425,0.010316849,0,
00:06.6,-0.001012802,-0.000640869,0.010259628,0,
00:06.6,-0.00094986,-0.000635147,0.01017952,0,
00:06.6,-0.000909805,-0.000635147,0.010162354,0,
00:06.6,-0.001001358,-0.000646591,0.010316849,0,
00:06.6,-0.001138687,-0.000663757,0.01020813,0,
00:06.6,-0.000972748,-0.000658035,0.010190964,0,
00:06.6,-0.00075531,-0.000595093,0.010213852,0,
00:06.6,-0.000967026,-0.000635147,0.010173798,0,
00:06.6,-0.000972748,-0.000623703,0.010242462,0,
00:06.6,-0.000972748,-0.000640869,0.010093689,0,
00:06.6,-0.00097847,-0.000680923,0.010162354,0,
00:06.6,-0.000984192,-0.000652313,0.010482788,0,
00:06.7,-0.001001358,-0.000669479,0.010259628,0,
00:06.7,-0.000932693,-0.000646591,0.010242462,0,
00:06.7,-0.000961304,-0.000623703,0.010139465,0,
00:06.7,-0.000944138,-0.000658035,0.010116577,0,
00:06.7,-0.000989914,-0.000686646,0.01017952,0,
00:06.7,-0.000967026,-0.000663757,0.010128021,0,
00:06.7,-0.00097847,-0.000646591,0.010225296,0,
00:06.7,-0.000892639,-0.000640869,0.010219574,0,
00:06.7,-0.000961304,-0.000629425,0.010168076,0,
00:06.7,-0.001092911,-0.000629425,0.010145187,0,
00:06.7,-0.000909805,-0.000652313,0.010156631,0,
00:06.7,-0.001001358,-0.000652313,0.010219574,0,
00:06.7,-0.001052856,-0.000652313,0.010116577,0,
00:06.7,-0.000989914,-0.000617981,0.010082245,0,
00:06.7,-0.000875473,-0.000629425,0.00995636,0,
00:06.7,-0.001087189,-0.000640869,0.010219574,0,
00:06.7,-0.000812531,-0.000663757,0.010087967,0,
00:06.7,-0.00097847,-0.000663757,0.010196686,0,
00:06.7,-0.000944138,-0.000635147,0.009990692,0,
00:06.7,-0.001058578,-0.000635147,0.010030746,0,
00:06.7,-0.001052856,-0.000635147,0.010282516,0,
00:06.7,-0.000812531,-0.000623703,0.010082245,0,
00:06.7,-0.000955582,-0.000646591,0.010105133,0,
00:06.7,-0.001070023,-0.000652313,0.010168076,0,
00:06.7,-0.00100708,-0.000629425,0.010099411,0,
00:06.8,-0.000944138,-0.000640869,0.010116577,0,
00:06.8,-0.000944138,-0.000658035,0.010065079,0,
00:06.8,-0.000915527,-0.000652313,0.010105133,0,
00:06.8,-0.00097847,-0.000652313,0.010105133,0,
00:06.8,-0.00103569,-0.000658035,0.010082245,0,
00:06.8,-0.000961304,-0.000646591,0.009996414,0,
00:06.8,-0.000898361,-0.000617981,0.009887695,0,
00:06.8,-0.000915527,-0.000646591,0.010042191,0,
00:06.8,-0.000961304,-0.000635147,0.010145187,0,
00:06.8,-0.00100708,-0.000617981,0.010025024,0,
00:06.8,-0.00120163,-0.000658035,0.010150909,0,
00:06.8,-0.000869751,-0.000617981,0.010030746,0,
00:06.8,-0.001024246,-0.000612259,0.009967804,0,
00:06.8,-0.001024246,-0.000652313,0.010042191,0,
00:06.8,-0.000926971,-0.000635147,0.00998497,0,
00:06.8,-0.001001358,-0.000652313,0.010059357,0,
00:06.8,-0.00100708,-0.000658035,0.010019302,0,
00:06.8,-0.000909805,-0.000652313,0.010019302,0,
00:06.8,-0.001058578,-0.000635147,0.009973526,0,
00:06.8,-0.000938416,-0.000623703,0.010025024,0,
00:06.8,-0.001052856,-0.000635147,0.009830475,0,
00:06.8,-0.001052856,-0.000640869,0.010002136,0,
00:06.8,-0.00100708,-0.000640869,0.010122299,0,
00:06.8,-0.000886917,-0.000606537,0.009933472,0,
00:06.8,-0.001047134,-0.000635147,0.009893417,0,
00:06.9,-0.000938416,-0.000640869,0.009944916,0,
00:06.9,-0.000938416,-0.000652313,0.010036469,0,
00:06.9,-0.001001358,-0.000646591,0.009922028,0,
00:06.9,-0.001092911,-0.000658035,0.010025024,0,
00:06.9,-0.000898361,-0.000595093,0.009864807,0,
00:06.9,-0.000898361,-0.000612259,0.009881973,0,
00:06.9,-0.000881195,-0.000589371,0.009784698,0,
00:06.9,-0.001190186,-0.000658035,0.009778976,0,
00:06.9,-0.001075745,-0.000658035,0.00998497,0,
00:06.9,-0.000984192,-0.000612259,0.009950638,0,
00:06.9,-0.000892639,-0.000635147,0.009864807,0,
00:06.9,-0.000921249,-0.000589371,0.009687424,0,
00:06.9,-0.001018524,-0.000623703,0.009801865,0,
00:06.9,-0.001041412,-0.000658035,0.010190964,0,
00:06.9,-0.000886917,-0.000612259,0.009824753,0,
00:06.9,-0.000989914,-0.000623703,0.009681702,0,
00:06.9,-0.001052856,-0.000606537,0.009830475,0,
00:06.9,-0.000944138,-0.000640869,0.009756088,0,
00:06.9,-0.001024246,-0.000658035,0.010007858,0,
00:06.9,-0.000955582,-0.000658035,0.009859085,0,
00:06.9,-0.001150131,-0.000606537,0.009710312,0,
00:06.9,-0.000812531,-0.000606537,0.009550095,0,
00:06.9,-0.000789642,-0.000640869,0.009796143,0,
00:06.9,-0.000886917,-0.000617981,0.009698868,0,
00:06.9,-0.001075745,-0.000595093,0.009853363,0,
00:07.0,-0.00100708,-0.000606537,0.009824753,0,
00:07.0,-0.000898361,-0.000652313,0.009710312,0,
00:07.0,-0.00097847,-0.000652313,0.009738922,0,
00:07.0,-0.000961304,-0.000629425,0.009647369,0,
00:07.0,-0.00103569,-0.000617981,0.009641647,0,
00:07.0,-0.000989914,-0.000635147,0.00970459,0,
00:07.0,-0.000961304,-0.000623703,0.009555817,0,
00:07.0,-0.001018524,-0.000555038,0.009601593,0,
00:07.0,-0.000806808,-0.000589371,0.009635925,0,
00:07.0,-0.000864029,-0.000652313,0.009801865,0,
00:07.0,-0.00094986,-0.000606537,0.009687424,0,
00:07.0,-0.000961304,-0.000612259,0.009601593,0,
00:00:07,-0.000801086,-0.000583649,0.009561539,0,
00:07.0,-0.000841141,-0.000635147,0.009624481,0,
00:07.0,-0.001150131,-0.000629425,0.009618759,0,
00:07.0,-0.001058578,-0.000617981,0.009447098,0,
00:07.0,-0.001110077,-0.000663757,0.009767532,0,
00:07.0,-0.000904083,-0.000640869,0.009727478,0,
00:07.0,-0.00094986,-0.000629425,0.009544373,0,
00:07.0,-0.000852585,-0.000635147,0.009532928,0,
00:07.0,-0.000967026,-0.000640869,0.009647369,0,
00:07.0,-0.000944138,-0.000606537,0.009618759,0,
00:07.0,-0.000915527,-0.000595093,0.009407043,0,
00:07.0,-0.000898361,-0.000583649,0.009361267,0,
00:07.0,-0.000932693,-0.000600815,0.009464264,0,
00:07.1,-0.001132965,-0.000680923,0.009653091,0,
00:07.1,-0.000898361,-0.000612259,0.009532928,0,
00:07.1,-0.001064301,-0.000572205,0.009355545,0,
00:07.1,-0.000818253,-0.000612259,0.009469986,0,
00:07.1,-0.001001358,-0.000652313,0.009641647,0,
00:07.1,-0.001058578,-0.000663757,0.009544373,0,
00:07.1,-0.000864029,-0.000595093,0.009441376,0,
00:07.1,-0.000955582,-0.000606537,0.009395599,0,
00:07.1,-0.000801086,-0.000629425,0.009458542,0,
00:07.1,-0.000898361,-0.000629425,0.009515762,0,
00:07.1,-0.000892639,-0.000583649,0.009464264,0,
00:07.1,-0.000984192,-0.000640869,0.009349823,0,
00:07.1,-0.000955582,-0.000635147,0.009492874,0,
00:07.1,-0.000932693,-0.000635147,0.009469986,0,
00:07.1,-0.000984192,-0.000623703,0.009378433,0,
00:07.1,-0.001029968,-0.000635147,0.009475708,0,
00:07.1,-0.001024246,-0.000640869,0.00948143,0,
00:07.1,-0.000789642,-0.000606537,0.009252548,0,
00:07.1,-0.000938416,-0.000629425,0.009492874,0,
00:07.1,-0.001052856,-0.000629425,0.009435654,0,
00:07.1,-0.00103569,-0.000589371,0.009447098,0,
00:07.1,-0.000801086,-0.000646591,0.009361267,0,
00:07.1,-0.000926971,-0.000629425,0.00942421,0,
00:07.1,-0.00097847,-0.000617981,0.009412766,0,
00:07.1,-0.000932693,-0.000623703,0.009138107,0,
00:07.2,-0.000881195,-0.000646591,0.009527206,0,
00:07.2,-0.000995636,-0.000635147,0.009561539,0,
00:07.2,-0.000909805,-0.000635147,0.009389877,0,
00:07.2,-0.000852585,-0.000623703,0.009275436,0,
00:07.2,-0.000823975,-0.000635147,0.009395599,0,
00:07.2,-0.000909805,-0.000658035,0.009429932,0,
00:07.2,-0.001081467,-0.000617981,0.00951004,0,
00:07.2,-0.001132965,-0.000635147,0.009441376,0,
00:07.2,-0.000875473,-0.000612259,0.009321213,0,
00:07.2,-0.001001358,-0.000652313,0.009441376,0,
00:07.2,-0.000961304,-0.000646591,0.00928688,0,
00:07.2,-0.000858307,-0.000629425,0.009332657,0,
00:07.2,-0.000846863,-0.000640869,0.009441376,0,
00:07.2,-0.000898361,-0.000629425,0.009395599,0,
00:07.2,-0.001012802,-0.000595093,0.009355545,0,
00:07.2,-0.000972748,-0.000629425,0.009298325,0,
00:07.2,-0.000898361,-0.000629425,0.009384155,0,
00:07.2,-0.001029968,-0.000617981,0.009275436,0,
00:07.2,-0.000898361,-0.000606537,0.009126663,0,
00:07.2,-0.000989914,-0.000635147,0.009241104,0,
00:07.2,-0.000932693,-0.000658035,0.009544373,0,
00:07.2,-0.000921249,-0.000623703,0.009572983,0,
00:07.2,-0.000875473,-0.000640869,0.009344101,0,
00:07.2,-0.000909805,-0.000646591,0.009344101,0,
00:07.2,-0.000846863,-0.000640869,0.009355545,0,
00:07.3,-0.000944138,-0.000640869,0.009407043,0,
00:07.3,-0.001018524,-0.000635147,0.009378433,0,
00:07.3,-0.000921249,-0.000640869,0.009401321,0,
00:07.3,-0.000989914,-0.000623703,0.009366989,0,
00:07.3,-0.000938416,-0.000646591,0.009332657,0,
00:07.3,-0.000955582,-0.000652313,0.009361267,0,
00:07.3,-0.001029968,-0.000612259,0.009241104,0,
00:07.3,-0.000766754,-0.000623703,0.009263992,0,
00:07.3,-0.000858307,-0.000617981,0.009241104,0,
00:07.3,-0.001098633,-0.000629425,0.009532928,0,
00:07.3,-0.000955582,-0.000577927,0.009332657,0,
00:07.3,-0.000921249,-0.000658035,0.009040833,0,
00:07.3,-0.000892639,-0.000658035,0.009389877,0,
00:07.3,-0.00097847,-0.000652313,0.009389877,0,
00:07.3,-0.000892639,-0.000623703,0.009372711,0,
00:07.3,-0.000846863,-0.000629425,0.009315491,0,
00:07.3,-0.000926971,-0.000635147,0.009395599,0,
00:07.3,-0.000967026,-0.000629425,0.009366989,0,
00:07.3,-0.001001358,-0.000617981,0.009378433,0,
00:07.3,-0.000926971,-0.000623703,0.009338379,0,
00:07.3,-0.000829697,-0.000646591,0.009246826,0,
00:07.3,-0.000932693,-0.000635147,0.009155273,0,
00:07.3,-0.001001358,-0.000623703,0.009304047,0,
00:07.3,-0.000989914,-0.000658035,0.009412766,0,
00:07.3,-0.000967026,-0.000669479,0.009263992,0,
00:07.4,-0.000898361,-0.000658035,0.009309769,0,
00:07.4,-0.000995636,-0.000635147,0.009366989,0,
00:07.4,-0.000972748,-0.000635147,0.009349823,0,
00:07.4,-0.000835419,-0.000617981,0.009315491,0,
00:07.4,-0.000881195,-0.000629425,0.009309769,0,
00:07.4,-0.000869751,-0.000617981,0.009298325,0,
00:07.4,-0.000892639,-0.000646591,0.009206772,0,
00:07.4,-0.001058578,-0.000658035,0.009378433,0,
00:07.4,-0.000961304,-0.000629425,0.009378433,0,
00:07.4,-0.000961304,-0.000623703,0.009304047,0,
00:07.4,-0.000967026,-0.000617981,0.009292603,0,
00:07.4,-0.000915527,-0.000629425,0.009098053,0,
00:07.4,-0.000898361,-0.000652313,0.009378433,0,
00:07.4,-0.00097847,-0.000640869,0.009384155,0,
00:07.4,-0.000864029,-0.000629425,0.009389877,0,
00:07.4,-0.000881195,-0.000612259,0.009338379,0,
00:07.4,-0.000961304,-0.000652313,0.009241104,0,
00:07.4,-0.000898361,-0.000635147,0.009298325,0,
00:07.4,-0.000898361,-0.000663757,0.009366989,0,
00:07.4,-0.000938416,-0.000646591,0.00920105,0,
00:07.4,-0.000921249,-0.000640869,0.009269714,0,
00:07.4,-0.00097847,-0.000658035,0.009366989,0,
00:07.4,-0.000904083,-0.000646591,0.009338379,0,
00:07.4,-0.00094986,-0.000640869,0.009275436,0,
00:07.4,-0.001012802,-0.000617981,0.009401321,0,
00:07.5,-0.00094986,-0.000652313,0.009344101,0,
00:07.5,-0.000886917,-0.000640869,0.00917244,0,
00:07.5,-0.000915527,-0.000635147,0.009155273,0,
00:07.5,-0.000921249,-0.000606537,0.009338379,0,
00:07.5,-0.001041412,-0.000646591,0.009269714,0,
00:07.5,-0.00094986,-0.000640869,0.00928688,0,
00:07.5,-0.000772476,-0.000658035,0.00925827,0,
00:07.5,-0.000864029,-0.000646591,0.009183884,0,
00:07.5,-0.000955582,-0.000658035,0.009361267,0,
00:07.5,-0.000944138,-0.000646591,0.009344101,0,
00:07.5,-0.000944138,-0.000635147,0.00922966,0,
00:07.5,-0.000989914,-0.000658035,0.009435654,0,
00:07.5,-0.000938416,-0.000617981,0.009401321,0,
00:07.5,-0.000881195,-0.000652313,0.009378433,0,
00:07.5,-0.000967026,-0.000635147,0.009326935,0,
00:07.5,-0.000886917,-0.000623703,0.009195328,0,
00:07.5,-0.000835419,-0.000640869,0.009166718,0,
00:07.5,-0.000904083,-0.000652313,0.00922966,0,
00:07.5,-0.000972748,-0.000652313,0.009321213,0,
00:07.5,-0.000921249,-0.000623703,0.009332657,0,
00:07.5,-0.000955582,-0.000623703,0.009183884,0,
00:07.5,-0.001092911,-0.000646591,0.009269714,0,
00:07.5,-0.000841141,-0.000646591,0.009378433,0,
00:07.5,-0.000778198,-0.000663757,0.009298325,0,
00:07.5,-0.000972748,-0.000663757,0.009241104,0,
00:07.6,-0.000972748,-0.000658035,0.009304047,0,
00:07.6,-0.000967026,-0.000652313,0.009355545,0,
00:07.6,-0.000898361,-0.000640869,0.009441376,0,
00:07.6,-0.000846863,-0.000623703,0.009304047,0,
00:07.6,-0.000869751,-0.000629425,0.009195328,0,
00:07.6,-0.00094986,-0.000663757,0.009269714,0,
00:07.6,-0.000898361,-0.000652313,0.009269714,0,
00:07.6,-0.000909805,-0.000663757,0.009401321,0,
00:07.6,-0.000926971,-0.000652313,0.009361267,0,
00:07.6,-0.000886917,-0.000629425,0.009263992,0,
00:07.6,-0.000972748,-0.000640869,0.009223938,0,
00:07.6,-0.000972748,-0.000629425,0.009344101,0,
00:07.6,-0.000881195,-0.000658035,0.009309769,0,
00:07.6,-0.000921249,-0.000658035,0.009252548,0,
00:07.6,-0.000932693,-0.000646591,0.009378433,0,
00:07.6,-0.000989914,-0.000658035,0.009332657,0,
00:07.6,-0.000904083,-0.000635147,0.00917244,0,
00:07.6,-0.000881195,-0.000658035,0.009298325,0,
00:07.6,-0.000926971,-0.000658035,0.009395599,0,
00:07.6,-0.000881195,-0.000635147,0.009235382,0,
00:07.6,-0.000898361,-0.000635147,0.009241104,0,
00:07.6,-0.001052856,-0.000652313,0.009407043,0,
00:07.6,-0.000869751,-0.000629425,0.009235382,0,
00:07.6,-0.000904083,-0.000617981,0.009401321,0,
00:07.6,-0.000852585,-0.000658035,0.009349823,0,
00:07.7,-0.000898361,-0.000663757,0.009304047,0,
00:07.7,-0.000904083,-0.000635147,0.009241104,0,
00:07.7,-0.000864029,-0.000617981,0.009063721,0,
00:07.7,-0.000915527,-0.000652313,0.009366989,0,
00:07.7,-0.000972748,-0.000686646,0.009532928,0,
00:07.7,-0.00103569,-0.000669479,0.009389877,0,
00:07.7,-0.000944138,-0.000658035,0.009361267,0,
00:07.7,-0.000898361,-0.000663757,0.00928688,0,
00:07.7,-0.000869751,-0.000635147,0.009304047,0,
00:07.7,-0.000932693,-0.000652313,0.009304047,0,
00:07.7,-0.00094986,-0.000658035,0.009338379,0,
00:07.7,-0.000904083,-0.000663757,0.009378433,0,
00:07.7,-0.000898361,-0.000640869,0.009372711,0,
00:07.7,-0.000915527,-0.000646591,0.009338379,0,
00:07.7,-0.000955582,-0.000635147,0.009166718,0,
00:07.7,-0.000995636,-0.000635147,0.009281158,0,
00:07.7,-0.000852585,-0.000658035,0.009344101,0,
00:07.7,-0.000869751,-0.000640869,0.00928688,0,
00:07.7,-0.000823975,-0.000623703,0.009332657,0,
00:07.7,-0.000938416,-0.000658035,0.009372711,0,
00:07.7,-0.000955582,-0.000675201,0.009321213,0,
00:07.7,-0.000944138,-0.000686646,0.009429932,0,
00:07.7,-0.000989914,-0.000663757,0.009355545,0,
00:07.7,-0.001001358,-0.000646591,0.009361267,0,
00:07.7,-0.000835419,-0.000629425,0.009355545,0,
00:07.8,-0.000869751,-0.000640869,0.00920105,0,
00:07.8,-0.000944138,-0.000652313,0.009275436,0,
00:07.8,-0.000967026,-0.000652313,0.009349823,0,
00:07.8,-0.000972748,-0.000623703,0.009332657,0,
00:07.8,-0.000932693,-0.000663757,0.009349823,0,
00:07.8,-0.000858307,-0.000635147,0.009384155,0,
00:07.8,-0.000904083,-0.000663757,0.009407043,0,
00:07.8,-0.000932693,-0.000680923,0.009384155,0,
00:07.8,-0.000915527,-0.000646591,0.009384155,0,
00:07.8,-0.000921249,-0.000652313,0.009349823,0,
00:07.8,-0.001018524,-0.000635147,0.009269714,0,
00:07.8,-0.000886917,-0.000640869,0.00917244,0,
00:07.8,-0.000864029,-0.000640869,0.009384155,0,
00:07.8,-0.000932693,-0.000658035,0.009378433,0,
00:07.8,-0.000984192,-0.000663757,0.009366989,0,
00:07.8,-0.000944138,-0.000663757,0.009378433,0,
00:07.8,-0.000892639,-0.000652313,0.00945282,0,
00:07.8,-0.000932693,-0.000658035,0.009332657,0,
00:07.8,-0.000955582,-0.000606537,0.009298325,0,
00:07.8,-0.000926971,-0.000635147,0.00925827,0,
00:07.8,-0.000898361,-0.000658035,0.009315491,0,
00:07.8,-0.000886917,-0.000675201,0.009429932,0,
00:07.8,-0.000898361,-0.000652313,0.009355545,0,
00:07.8,-0.00094986,-0.000658035,0.009275436,0,
00:07.8,-0.000955582,-0.000635147,0.009384155,0,
00:07.9,-0.000904083,-0.000663757,0.009412766,0,
00:07.9,-0.000926971,-0.000663757,0.009498596,0,
00:07.9,-0.000892639,-0.000646591,0.00942421,0,
00:07.9,-0.000869751,-0.000635147,0.009338379,0,
00:07.9,-0.000961304,-0.000658035,0.009275436,0,
00:07.9,-0.000904083,-0.000652313,0.009269714,0,
00:07.9,-0.000892639,-0.000617981,0.009315491,0,
00:07.9,-0.000961304,-0.000652313,0.009435654,0,
00:07.9,-0.000926971,-0.000663757,0.009389877,0,
00:07.9,-0.000921249,-0.000669479,0.009349823,0,
00:07.9,-0.000989914,-0.000652313,0.009447098,0,
00:07.9,-0.000932693,-0.000652313,0.009321213,0,
00:07.9,-0.000904083,-0.000635147,0.009149551,0,
00:07.9,-0.000875473,-0.000652313,0.009315491,0,
00:07.9,-0.000898361,-0.000623703,0.009366989,0,
00:07.9,-0.000898361,-0.000669479,0.009458542,0,
00:07.9,-0.000875473,-0.000652313,0.009349823,0,
00:07.9,-0.00094986,-0.000658035,0.009412766,0,
00:07.9,-0.000869751,-0.000652313,0.009378433,0,
00:07.9,-0.000926971,-0.000652313,0.009412766,0,
00:07.9,-0.000892639,-0.000640869,0.009361267,0,
00:07.9,-0.000944138,-0.000640869,0.009326935,0,
00:07.9,-0.00100708,-0.000652313,0.009435654,0,
00:07.9,-0.000967026,-0.000652313,0.009418488,0,
00:07.9,-0.000961304,-0.000658035,0.009309769,0,
00:08.0,-0.000898361,-0.000640869,0.009361267,0,
00:08.0,-0.000869751,-0.000646591,0.009304047,0,
00:08.0,-0.000886917,-0.000669479,0.009309769,0,
00:08.0,-0.000909805,-0.000658035,0.009412766,0,
00:08.0,-0.000938416,-0.000658035,0.009366989,0,
00:08.0,-0.00097847,-0.000652313,0.009292603,0,
00:08.0,-0.000875473,-0.000663757,0.009498596,0,
00:08.0,-0.000944138,-0.000663757,0.009372711,0,
00:08.0,-0.000921249,-0.000640869,0.00925827,0,
00:08.0,-0.000875473,-0.000658035,0.009355545,0,
00:08.0,-0.000892639,-0.000652313,0.009418488,0,
00:08.0,-0.000921249,-0.000663757,0.009395599,0,
00:00:08,-0.000921249,-0.000629425,0.009418488,0,
00:08.0,-0.000904083,-0.000629425,0.009309769,0,
00:08.0,-0.000944138,-0.000640869,0.009361267,0,
00:08.0,-0.000898361,-0.000652313,0.009355545,0,
00:08.0,-0.000909805,-0.000658035,0.009458542,0,
00:08.0,-0.000944138,-0.000640869,0.009361267,0,
00:08.0,-0.000961304,-0.000629425,0.00922966,0,
00:08.0,-0.000886917,-0.000669479,0.009384155,0,
00:08.0,-0.000869751,-0.000663757,0.00945282,0,
00:08.0,-0.000926971,-0.000658035,0.009395599,0,
00:08.0,-0.001029968,-0.000652313,0.00942421,0,
00:08.0,-0.001058578,-0.000646591,0.00945282,0,
00:08.0,-0.000806808,-0.000629425,0.009281158,0,
00:08.1,-0.000852585,-0.000652313,0.009292603,0,
00:08.1,-0.000881195,-0.000658035,0.009407043,0,
00:08.1,-0.000921249,-0.000669479,0.009527206,0,
00:08.1,-0.000898361,-0.000669479,0.009475708,0,
00:08.1,-0.000915527,-0.000646591,0.009349823,0,
00:08.1,-0.000921249,-0.000646591,0.009384155,0,
00:08.1,-0.000904083,-0.000617981,0.009309769,0,
00:08.1,-0.000932693,-0.000646591,0.00942421,0,
00:08.1,-0.000967026,-0.000663757,0.009469986,0,
00:08.1,-0.001041412,-0.000658035,0.009263992,0,
00:08.1,-0.000944138,-0.000646591,0.009361267,0,
00:08.1,-0.000835419,-0.000652313,0.009555817,0,
00:08.1,-0.000886917,-0.000663757,0.009475708,0,
00:08.1,-0.000892639,-0.000658035,0.009389877,0,
00:08.1,-0.000984192,-0.000652313,0.009349823,0,
00:08.1,-0.000989914,-0.000635147,0.009487152,0,
00:08.1,-0.000852585,-0.000629425,0.009349823,0,
00:08.1,-0.000921249,-0.000646591,0.009212494,0,
00:08.1,-0.000892639,-0.000669479,0.009384155,0,
00:08.1,-0.000972748,-0.000652313,0.009532928,0,
00:08.1,-0.000932693,-0.000646591,0.009527206,0,
00:08.1,-0.000841141,-0.000635147,0.009412766,0,
00:08.1,-0.000909805,-0.000669479,0.009469986,0,
00:08.1,-0.000944138,-0.000652313,0.009458542,0,
00:08.1,-0.000944138,-0.000635147,0.009372711,0,
00:08.2,-0.000932693,-0.000652313,0.009412766,0,
00:08.2,-0.000955582,-0.000675201,0.00951004,0,
00:08.2,-0.000989914,-0.000658035,0.009412766,0,
00:08.2,-0.000852585,-0.000652313,0.009407043,0,
00:08.2,-0.000881195,-0.000646591,0.009395599,0,
00:08.2,-0.000961304,-0.000658035,0.009441376,0,
00:08.2,-0.000909805,-0.000675201,0.009435654,0,
00:08.2,-0.00097847,-0.000663757,0.009429932,0,
00:08.2,-0.00094986,-0.000635147,0.009475708,0,
00:08.2,-0.000955582,-0.000623703,0.009372711,0,
00:08.2,-0.000932693,-0.000600815,0.009344101,0,
00:08.2,-0.000875473,-0.000617981,0.00922966,0,
00:08.2,-0.000892639,-0.000680923,0.009464264,0,
00:08.2,-0.000904083,-0.000663757,0.009567261,0,
00:08.2,-0.000892639,-0.000663757,0.009578705,0,
00:08.2,-0.000932693,-0.000663757,0.009532928,0,
00:08.2,-0.000989914,-0.000658035,0.009418488,0,
00:08.2,-0.000961304,-0.000652313,0.009429932,0,
00:08.2,-0.000875473,-0.000635147,0.009487152,0,
00:08.2,-0.000881195,-0.000646591,0.009504318,0,
00:08.2,-0.000967026,-0.000658035,0.009469986,0,
00:08.2,-0.00100708,-0.000658035,0.009378433,0,
00:08.2,-0.000869751,-0.000646591,0.009435654,0,
00:08.2,-0.000898361,-0.000635147,0.009384155,0,
00:08.2,-0.000932693,-0.000652313,0.009504318,0,
00:08.3,-0.00097847,-0.000658035,0.009527206,0,
00:08.3,-0.000915527,-0.000658035,0.009521484,0,
00:08.3,-0.000926971,-0.000663757,0.009469986,0,
00:08.3,-0.000898361,-0.000617981,0.009384155,0,
00:08.3,-0.000909805,-0.000629425,0.009344101,0,
00:08.3,-0.000875473,-0.000635147,0.009435654,0,
00:08.3,-0.000932693,-0.000652313,0.009527206,0,
00:08.3,-0.000955582,-0.000669479,0.009572983,0,
00:08.3,-0.000892639,-0.000669479,0.009567261,0,
00:08.3,-0.000984192,-0.000686646,0.009538651,0,
00:08.3,-0.000926971,-0.000646591,0.00951004,0,
00:08.3,-0.000938416,-0.000629425,0.009401321,0,
00:08.3,-0.001018524,-0.000652313,0.009538651,0,
00:08.3,-0.000921249,-0.000669479,0.009555817,0,
00:08.3,-0.000881195,-0.000658035,0.009435654,0,
00:08.3,-0.000898361,-0.000640869,0.009429932,0,
00:08.3,-0.000944138,-0.000646591,0.009458542,0,
00:08.3,-0.000886917,-0.000635147,0.009544373,0,
00:08.3,-0.000995636,-0.000652313,0.009590149,0,
00:08.3,-0.001024246,-0.000629425,0.009561539,0,
00:08.3,-0.000915527,-0.000623703,0.00951004,0,
00:08.3,-0.000955582,-0.000640869,0.009458542,0,
00:08.3,-0.001024246,-0.000675201,0.009515762,0,
00:08.3,-0.000909805,-0.000658035,0.009504318,0,
00:08.3,-0.000938416,-0.000652313,0.009532928,0,
00:08.4,-0.000955582,-0.000652313,0.009624481,0,
00:08.4,-0.000995636,-0.000658035,0.009538651,0,
00:08.4,-0.000995636,-0.000629425,0.009321213,0,
00:08.4,-0.001070023,-0.000623703,0.009607315,0,
00:08.4,-0.001052856,-0.000640869,0.009515762,0,
00:08.4,-0.000886917,-0.000680923,0.009584427,0,
00:08.4,-0.000835419,-0.000646591,0.009653091,0,
00:08.4,-0.000921249,-0.000652313,0.009595871,0,
00:08.4,-0.000932693,-0.000629425,0.009595871,0,
00:08.4,-0.000944138,-0.000663757,0.009601593,0,
00:08.4,-0.001104355,-0.000663757,0.00951004,0,
00:08.4,-0.000869751,-0.000640869,0.009635925,0,
00:08.4,-0.000881195,-0.000652313,0.009555817,0,
00:08.4,-0.000938416,-0.000658035,0.009618759,0,
00:08.4,-0.000967026,-0.000635147,0.009664536,0,
00:08.4,-0.000972748,-0.000629425,0.009647369,0,
00:08.4,-0.000989914,-0.000652313,0.009624481,0,
00:08.4,-0.00094986,-0.000669479,0.009647369,0,
00:08.4,-0.000938416,-0.000658035,0.009624481,0,
00:08.4,-0.000984192,-0.000646591,0.009601593,0,
00:08.4,-0.000972748,-0.000635147,0.009647369,0,
00:08.4,-0.001029968,-0.000646591,0.009464264,0,
00:08.4,-0.000989914,-0.000669479,0.009601593,0,
00:08.4,-0.000898361,-0.000658035,0.00970459,0,
00:08.4,-0.000938416,-0.000658035,0.009658813,0,
00:08.5,-0.000972748,-0.000663757,0.00970459,0,
00:08.5,-0.000932693,-0.000646591,0.009698868,0,
00:08.5,-0.000915527,-0.000629425,0.009590149,0,
00:08.5,-0.001047134,-0.000623703,0.009653091,0,
00:08.5,-0.001081467,-0.000652313,0.009595871,0,
00:08.5,-0.000892639,-0.000680923,0.00970459,0,
00:08.5,-0.000886917,-0.000658035,0.009647369,0,
00:08.5,-0.000938416,-0.000646591,0.009738922,0,
00:08.5,-0.000932693,-0.000646591,0.009698868,0,
00:08.5,-0.000932693,-0.000635147,0.009590149,0,
00:08.5,-0.000984192,-0.000652313,0.009550095,0,
00:08.5,-0.000926971,-0.000658035,0.009578705,0,
00:08.5,-0.000875473,-0.000640869,0.009813309,0,
00:08.5,-0.000984192,-0.000658035,0.009744644,0,
00:08.5,-0.000886917,-0.000658035,0.009750366,0,
00:08.5,-0.000921249,-0.000652313,0.009641647,0,
00:08.5,-0.000858307,-0.000652313,0.009550095,0,
00:08.5,-0.000841141,-0.000646591,0.009635925,0,
00:08.5,-0.000915527,-0.000669479,0.009750366,0,
00:08.5,-0.001018524,-0.000680923,0.009853363,0,
00:08.5,-0.000955582,-0.000640869,0.009693146,0,
00:08.5,-0.000967026,-0.000646591,0.009624481,0,
00:08.5,-0.000898361,-0.000629425,0.009710312,0,
00:08.5,-0.000892639,-0.000640869,0.009721756,0,
00:08.5,-0.001041412,-0.000680923,0.009767532,0,
00:08.6,-0.000881195,-0.000680923,0.009727478,0,
00:08.6,-0.000898361,-0.000646591,0.009693146,0,
00:08.6,-0.001001358,-0.000635147,0.009561539,0,
00:08.6,-0.001001358,-0.000658035,0.009550095,0,
00:08.6,-0.000944138,-0.000669479,0.009687424,0,
00:08.6,-0.000852585,-0.000669479,0.009864807,0,
00:08.6,-0.000852585,-0.000640869,0.009778976,0,
00:08.6,-0.000989914,-0.000629425,0.009618759,0,
00:08.6,-0.000972748,-0.000663757,0.00970459,0,
00:08.6,-0.00097847,-0.000646591,0.0097332,0,
00:08.6,-0.000909805,-0.000663757,0.009756088,0,
00:08.6,-0.000806808,-0.000652313,0.009630203,0,
00:08.6,-0.000967026,-0.000663757,0.009756088,0,
00:08.6,-0.000967026,-0.000686646,0.009819031,0,
00:08.6,-0.000858307,-0.000663757,0.009698868,0,
00:08.6,-0.000926971,-0.000646591,0.009618759,0,
00:08.6,-0.000932693,-0.000669479,0.009578705,0,
00:08.6,-0.000938416,-0.000669479,0.009738922,0,
00:08.6,-0.000858307,-0.000629425,0.009721756,0,
00:08.6,-0.000955582,-0.000663757,0.009767532,0,
00:08.6,-0.000909805,-0.000680923,0.009784698,0,
00:08.6,-0.000944138,-0.000669479,0.00976181,0,
00:08.6,-0.001018524,-0.000652313,0.009681702,0,
00:08.6,-0.00097847,-0.000652313,0.009572983,0,
00:08.6,-0.000818253,-0.000646591,0.009561539,0,
00:08.7,-0.000869751,-0.000640869,0.009813309,0,
00:08.7,-0.001029968,-0.000675201,0.009716034,0,
00:08.7,-0.001058578,-0.000675201,0.009767532,0,
00:08.7,-0.000864029,-0.000652313,0.00976181,0,
00:08.7,-0.000932693,-0.000663757,0.009790421,0,
00:08.7,-0.000944138,-0.000663757,0.0097332,0,
00:08.7,-0.000886917,-0.000680923,0.009658813,0,
00:08.7,-0.000875473,-0.000658035,0.0097332,0,
00:08.7,-0.001029968,-0.000652313,0.009744644,0,
00:08.7,-0.000898361,-0.000646591,0.009767532,0,
00:08.7,-0.000812531,-0.000663757,0.009727478,0,
00:08.7,-0.00094986,-0.000686646,0.009670258,0,
00:08.7,-0.001024246,-0.000663757,0.009819031,0,
00:08.7,-0.000875473,-0.000675201,0.009624481,0,
00:08.7,-0.000869751,-0.000652313,0.009670258,0,
00:08.7,-0.000944138,-0.000686646,0.009830475,0,
00:08.7,-0.000926971,-0.000652313,0.009784698,0,
00:08.7,-0.000881195,-0.000669479,0.009807587,0,
00:08.7,-0.000926971,-0.000663757,0.009790421,0,
00:08.7,-0.000932693,-0.000663757,0.009773254,0,
00:08.7,-0.000955582,-0.000669479,0.009716034,0,
00:08.7,-0.00097847,-0.000663757,0.009681702,0,
00:08.7,-0.00097847,-0.000640869,0.00970459,0,
00:08.7,-0.000926971,-0.000669479,0.009796143,0,
00:08.7,-0.000898361,-0.000675201,0.009841919,0,
00:08.8,-0.000892639,-0.000663757,0.009716034,0,
00:08.8,-0.000915527,-0.000675201,0.009687424,0,
00:08.8,-0.000858307,-0.000675201,0.009727478,0,
00:08.8,-0.000869751,-0.000646591,0.009727478,0,
00:08.8,-0.000984192,-0.000686646,0.009870529,0,
00:08.8,-0.001058578,-0.000692368,0.009910583,0,
00:08.8,-0.000961304,-0.000686646,0.009784698,0,
00:08.8,-0.00078392,-0.000663757,0.009750366,0,
00:08.8,-0.000955582,-0.000658035,0.00970459,0,
00:08.8,-0.00097847,-0.000646591,0.009813309,0,
00:08.8,-0.000823975,-0.000640869,0.009807587,0,
00:08.8,-0.00094986,-0.000675201,0.0097332,0,
00:08.8,-0.00094986,-0.000686646,0.009819031,0,
00:08.8,-0.000984192,-0.000686646,0.009710312,0,
00:08.8,-0.000921249,-0.000658035,0.009721756,0,
00:08.8,-0.000904083,-0.000652313,0.009681702,0,
00:08.8,-0.000869751,-0.000669479,0.009830475,0,
00:08.8,-0.000938416,-0.000680923,0.009944916,0,
00:08.8,-0.000938416,-0.000669479,0.009738922,0,
00:08.8,-0.000881195,-0.000652313,0.009744644,0,
00:08.8,-0.000944138,-0.000680923,0.009893417,0,
00:08.8,-0.001001358,-0.000680923,0.009916306,0,
00:08.8,-0.000886917,-0.000663757,0.009870529,0,
00:08.8,-0.001018524,-0.000680923,0.009778976,0,
00:08.8,-0.000967026,-0.000686646,0.009767532,0,
00:08.9,-0.000944138,-0.000663757,0.009778976,0,
00:08.9,-0.000972748,-0.000663757,0.009847641,0,
00:08.9,-0.001024246,-0.000658035,0.009881973,0,
00:08.9,-0.00094986,-0.000640869,0.009756088,0,
00:08.9,-0.000835419,-0.000646591,0.009819031,0,
00:08.9,-0.001041412,-0.000652313,0.009796143,0,
00:08.9,-0.000989914,-0.000686646,0.009830475,0,
00:08.9,-0.000955582,-0.000680923,0.009841919,0,
00:08.9,-0.000961304,-0.000658035,0.00976181,0,
00:08.9,-0.000921249,-0.000675201,0.009864807,0,
00:08.9,-0.000875473,-0.000680923,0.009887695,0,
00:08.9,-0.000892639,-0.000675201,0.009756088,0,
00:08.9,-0.000892639,-0.000680923,0.009910583,0,
00:08.9,-0.000944138,-0.000646591,0.009887695,0,
00:08.9,-0.000869751,-0.000646591,0.009784698,0,
00:08.9,-0.000938416,-0.000669479,0.009859085,0,
00:08.9,-0.000932693,-0.000680923,0.009922028,0,
00:08.9,-0.000989914,-0.000652313,0.009813309,0,
00:08.9,-0.001070023,-0.000663757,0.009824753,0,
00:08.9,-0.001075745,-0.000715256,0.009819031,0,
00:08.9,-0.000772476,-0.000663757,0.00992775,0,
00:08.9,-0.000961304,-0.000658035,0.009910583,0,
00:08.9,-0.001024246,-0.000640869,0.009841919,0,
00:08.9,-0.001001358,-0.000635147,0.009687424,0,
00:08.9,-0.000955582,-0.000606537,0.009876251,0,
00:09.0,-0.00097847,-0.000663757,0.009933472,0,
00:09.0,-0.000846863,-0.000686646,0.009916306,0,
00:09.0,-0.000926971,-0.000640869,0.009773254,0,
00:09.0,-0.000984192,-0.000675201,0.009784698,0,
00:09.0,-0.000881195,-0.000703812,0.010002136,0,
00:09.0,-0.000892639,-0.000663757,0.009990692,0,
00:09.0,-0.000915527,-0.000680923,0.009899139,0,
00:09.0,-0.000898361,-0.000675201,0.009876251,0,
00:09.0,-0.00097847,-0.000658035,0.00970459,0,
00:09.0,-0.001075745,-0.000663757,0.009836197,0,
00:09.0,-0.000841141,-0.000629425,0.009939194,0,
00:09.0,-0.000823975,-0.000640869,0.00992775,0,
00:00:09,-0.000869751,-0.000663757,0.009847641,0,
00:09.0,-0.000938416,-0.000675201,0.009824753,0,
00:09.0,-0.001052856,-0.000669479,0.009801865,0,
00:09.0,-0.000823975,-0.000675201,0.009933472,0,
00:09.0,-0.000766754,-0.000663757,0.009830475,0,
00:09.0,-0.001070023,-0.000663757,0.00995636,0,
00:09.0,-0.00103569,-0.000663757,0.00992775,0,
00:09.0,-0.000881195,-0.000675201,0.009979248,0,
00:09.0,-0.000972748,-0.000675201,0.00995636,0,
00:09.0,-0.000858307,-0.000663757,0.009887695,0,
00:09.0,-0.000823975,-0.000646591,0.009899139,0,
00:09.0,-0.000869751,-0.000623703,0.009853363,0,
00:09.0,-0.00094986,-0.000669479,0.009859085,0,
00:09.1,-0.000909805,-0.000692368,0.009950638,0,
00:09.1,-0.00100708,-0.000663757,0.009899139,0,
00:09.1,-0.000932693,-0.000669479,0.009824753,0,
00:09.1,-0.000881195,-0.000658035,0.009727478,0,
00:09.1,-0.000961304,-0.000658035,0.009950638,0,
00:09.1,-0.000984192,-0.000692368,0.010093689,0,
00:09.1,-0.000846863,-0.000640869,0.009853363,0,
00:09.1,-0.000875473,-0.000629425,0.009870529,0,
00:09.1,-0.000932693,-0.000703812,0.010065079,0,
00:09.1,-0.000921249,-0.000703812,0.010019302,0,
00:09.1,-0.000898361,-0.000680923,0.009962082,0,
00:09.1,-0.000961304,-0.000652313,0.009881973,0,
00:09.1,-0.000898361,-0.000635147,0.009836197,0,
00:09.1,-0.000852585,-0.000680923,0.009904861,0,
00:09.1,-0.000886917,-0.000669479,0.009950638,0,
00:09.1,-0.00094986,-0.000646591,0.00998497,0,
00:09.1,-0.00094986,-0.000686646,0.009962082,0,
00:09.1,-0.000858307,-0.000663757,0.009899139,0,
00:09.1,-0.000886917,-0.000640869,0.009727478,0,
00:09.1,-0.000972748,-0.000675201,0.00992775,0,
00:09.1,-0.00094986,-0.000658035,0.009933472,0,
00:09.1,-0.000778198,-0.000675201,0.009973526,0,
00:09.1,-0.00103569,-0.000680923,0.010030746,0,
00:09.1,-0.001075745,-0.000652313,0.010093689,0,
00:09.1,-0.000841141,-0.000675201,0.009859085,0,
00:09.2,-0.000915527,-0.000663757,0.009853363,0,
00:09.2,-0.000852585,-0.000669479,0.010110855,0,
00:09.2,-0.000921249,-0.000663757,0.01001358,0,
00:09.2,-0.000995636,-0.000686646,0.009973526,0,
00:09.2,-0.000972748,-0.000686646,0.010007858,0,
00:09.2,-0.000864029,-0.000680923,0.009950638,0,
00:09.2,-0.000852585,-0.000680923,0.010002136,0,
00:09.2,-0.000875473,-0.000663757,0.009881973,0,
00:09.2,-0.000881195,-0.000669479,0.009950638,0,
00:09.2,-0.000869751,-0.000669479,0.009939194,0,
00:09.2,-0.000909805,-0.000663757,0.009962082,0,
00:09.2,-0.001012802,-0.000675201,0.010007858,0,
00:09.2,-0.000904083,-0.000669479,0.009933472,0,
00:09.2,-0.000864029,-0.000669479,0.009939194,0,
00:09.2,-0.000858307,-0.000663757,0.009944916,0,
00:09.2,-0.000904083,-0.000680923,0.010030746,0,
00:09.2,-0.000904083,-0.000692368,0.010070801,0,
00:09.2,-0.000875473,-0.000680923,0.009979248,0,
00:09.2,-0.000869751,-0.000675201,0.010070801,0,
00:09.2,-0.000881195,-0.000669479,0.010036469,0,
00:09.2,-0.000984192,-0.000675201,0.009979248,0,
00:09.2,-0.001052856,-0.000635147,0.010025024,0,
00:09.2,-0.000961304,-0.000663757,0.009939194,0,
00:09.2,-0.000835419,-0.000692368,0.009962082,0,
00:09.2,-0.000938416,-0.000663757,0.010047913,0,
00:09.3,-0.000829697,-0.000652313,0.009904861,0,
00:09.3,-0.000835419,-0.000686646,0.00992775,0,
00:09.3,-0.000881195,-0.000686646,0.010087967,0,
00:09.3,-0.000915527,-0.000635147,0.010076523,0,
00:09.3,-0.000892639,-0.000703812,0.010082245,0,
00:09.3,-0.000944138,-0.000692368,0.009962082,0,
00:09.3,-0.000858307,-0.000680923,0.009933472,0,
00:09.3,-0.000858307,-0.000669479,0.010042191,0,
00:09.3,-0.000938416,-0.000669479,0.00995636,0,
00:09.3,-0.000858307,-0.000680923,0.010059357,0,
00:09.3,-0.000921249,-0.000663757,0.010099411,0,
00:09.3,-0.000909805,-0.000663757,0.009996414,0,
00:09.3,-0.000938416,-0.00069809,0.010059357,0,
00:09.3,-0.000995636,-0.000692368,0.010087967,0,
00:09.3,-0.000955582,-0.000686646,0.010087967,0,
00:09.3,-0.000789642,-0.000675201,0.009950638,0,
00:09.3,-0.000852585,-0.000686646,0.01001358,0,
00:09.3,-0.000904083,-0.000692368,0.010087967,0,
00:09.3,-0.000921249,-0.000680923,0.010070801,0,
00:09.3,-0.000921249,-0.000663757,0.010053635,0,
00:09.3,-0.000961304,-0.000629425,0.00992775,0,
00:09.3,-0.000869751,-0.000658035,0.00976181,0,
00:09.3,-0.000749588,-0.000675201,0.010007858,0,
00:09.3,-0.000915527,-0.000709534,0.010202408,0,
00:09.3,-0.000904083,-0.00069809,0.010036469,0,
00:09.4,-0.000909805,-0.000675201,0.010059357,0,
00:09.4,-0.000875473,-0.000675201,0.010128021,0,
00:09.4,-0.000972748,-0.000692368,0.010093689,0,
00:09.4,-0.000926971,-0.000680923,0.010099411,0,
00:09.4,-0.000961304,-0.000669479,0.010030746,0,
00:09.4,-0.000995636,-0.000669479,0.010042191,0,
00:09.4,-0.001041412,-0.00069809,0.010036469,0,
00:09.4,-0.000858307,-0.000663757,0.010070801,0,
00:09.4,-0.000829697,-0.000675201,0.010059357,0,
00:09.4,-0.000778198,-0.000646591,0.010002136,0,
00:09.4,-0.000818253,-0.000658035,0.009950638,0,
00:09.4,-0.000909805,-0.000715256,0.010156631,0,
00:09.4,-0.000904083,-0.00069809,0.010076523,0,
00:09.4,-0.000926971,-0.000680923,0.010133743,0,
00:09.4,-0.000841141,-0.000658035,0.010128021,0,
00:09.4,-0.000886917,-0.000675201,0.009973526,0,
00:09.4,-0.000915527,-0.00069809,0.010099411,0,
00:09.4,-0.000904083,-0.000686646,0.010053635,0,
00:09.4,-0.000886917,-0.000680923,0.010019302,0,
00:09.4,-0.000909805,-0.000658035,0.010087967,0,
00:09.4,-0.000938416,-0.000680923,0.010019302,0,
00:09.4,-0.000864029,-0.000686646,0.010087967,0,
00:09.4,-0.000984192,-0.000658035,0.010030746,0,
00:09.4,-0.00094986,-0.000658035,0.010059357,0,
00:09.4,-0.000995636,-0.00069809,0.010156631,0,
00:09.5,-0.000904083,-0.000680923,0.010065079,0,
00:09.5,-0.000812531,-0.000658035,0.009990692,0,
00:09.5,-0.000909805,-0.000669479,0.009944916,0,
00:09.5,-0.000984192,-0.000680923,0.010082245,0,
00:09.5,-0.000829697,-0.000692368,0.010168076,0,
00:09.5,-0.000858307,-0.000675201,0.010128021,0,
00:09.5,-0.000904083,-0.000658035,0.010059357,0,
00:09.5,-0.000898361,-0.000669479,0.010110855,0,
00:09.5,-0.000886917,-0.000675201,0.010110855,0,
00:09.5,-0.000869751,-0.000680923,0.010076523,0,
00:09.5,-0.000858307,-0.000675201,0.010053635,0,
00:09.5,-0.000915527,-0.000686646,0.010105133,0,
00:09.5,-0.000989914,-0.000680923,0.010059357,0,
00:09.5,-0.000892639,-0.000675201,0.010059357,0,
00:09.5,-0.000881195,-0.000669479,0.00998497,0,
00:09.5,-0.00094986,-0.000686646,0.010110855,0,
00:09.5,-0.000938416,-0.000686646,0.010173798,0,
00:09.5,-0.000898361,-0.000663757,0.010070801,0,
00:09.5,-0.000932693,-0.000680923,0.010059357,0,
00:09.5,-0.000915527,-0.000675201,0.01001358,0,
00:09.5,-0.000852585,-0.000686646,0.010133743,0,
00:09.5,-0.000852585,-0.000675201,0.010070801,0,
00:09.5,-0.000909805,-0.000640869,0.010047913,0,
00:09.5,-0.000989914,-0.000675201,0.010087967,0,
00:09.5,-0.000898361,-0.000669479,0.010162354,0,
00:09.6,-0.000944138,-0.000675201,0.010059357,0,
00:09.6,-0.000921249,-0.00069809,0.010150909,0,
00:09.6,-0.000898361,-0.000675201,0.010116577,0,
00:09.6,-0.000858307,-0.000663757,0.010065079,0,
00:09.6,-0.000886917,-0.000658035,0.009979248,0,
00:09.6,-0.000915527,-0.000669479,0.010059357,0,
00:09.6,-0.001012802,-0.000692368,0.010213852,0,
00:09.6,-0.000938416,-0.000663757,0.010059357,0,
00:09.6,-0.000818253,-0.000669479,0.009893417,0,
00:09.6,-0.000846863,-0.000692368,0.010282516,0,
00:09.6,-0.000869751,-0.000663757,0.010231018,0,
00:09.6,-0.000904083,-0.000658035,0.010059357,0,
00:09.6,-0.000904083,-0.000692368,0.010116577,0,
00:09.6,-0.000909805,-0.000686646,0.010059357,0,
00:09.6,-0.000926971,-0.000686646,0.010122299,0,
00:09.6,-0.001064301,-0.000675201,0.010116577,0,
00:09.6,-0.000955582,-0.000663757,0.010087967,0,
00:09.6,-0.000841141,-0.000680923,0.010047913,0,
00:09.6,-0.000926971,-0.000669479,0.009922028,0,
00:09.6,-0.000915527,-0.000663757,0.010030746,0,
00:09.6,-0.000846863,-0.000658035,0.010122299,0,
00:09.6,-0.000881195,-0.000675201,0.010047913,0,
00:09.6,-0.000955582,-0.00069809,0.010036469,0,
00:09.6,-0.000932693,-0.000652313,0.010196686,0,
00:09.6,-0.000944138,-0.000663757,0.010133743,0,
00:09.7,-0.000909805,-0.00069809,0.010162354,0,
00:09.7,-0.000881195,-0.000675201,0.010070801,0,
00:09.7,-0.000858307,-0.000669479,0.01017952,0,
00:09.7,-0.000864029,-0.000652313,0.010093689,0,
00:09.7,-0.000886917,-0.000680923,0.010042191,0,
00:09.7,-0.000926971,-0.000663757,0.010082245,0,
00:09.7,-0.000944138,-0.000680923,0.010150909,0,
00:09.7,-0.000909805,-0.000663757,0.010053635,0,
00:09.7,-0.000932693,-0.000669479,0.010099411,0,
00:09.7,-0.000892639,-0.000669479,0.010007858,0,
00:09.7,-0.000921249,-0.000675201,0.010093689,0,
00:09.7,-0.000989914,-0.000692368,0.010202408,0,
00:09.7,-0.000904083,-0.000675201,0.010007858,0,
00:09.7,-0.000915527,-0.000675201,0.010036469,0,
00:09.7,-0.000967026,-0.000675201,0.010173798,0,
00:09.7,-0.000932693,-0.000640869,0.010150909,0,
00:09.7,-0.000864029,-0.000658035,0.010053635,0,
00:09.7,-0.000795364,-0.000646591,0.009996414,0,
00:09.7,-0.000886917,-0.00069809,0.010059357,0,
00:09.7,-0.00097847,-0.00069809,0.010156631,0,
00:09.7,-0.000932693,-0.000669479,0.010173798,0,
00:09.7,-0.000881195,-0.000692368,0.010150909,0,
00:09.7,-0.000892639,-0.000686646,0.010128021,0,
00:09.7,-0.000932693,-0.000669479,0.010053635,0,
00:09.7,-0.000898361,-0.000652313,0.009967804,0,
00:09.8,-0.000892639,-0.000669479,0.010150909,0,
00:09.8,-0.000892639,-0.000658035,0.010099411,0,
00:09.8,-0.000926971,-0.000680923,0.010082245,0,
00:09.8,-0.000904083,-0.000686646,0.010185242,0,
00:09.8,-0.000875473,-0.000675201,0.010128021,0,
00:09.8,-0.000909805,-0.000680923,0.010076523,0,
00:09.8,-0.000892639,-0.000680923,0.010099411,0,
00:09.8,-0.000938416,-0.000680923,0.010105133,0,
00:09.8,-0.000886917,-0.000675201,0.010105133,0,
00:09.8,-0.000892639,-0.000663757,0.010105133,0,
00:09.8,-0.000926971,-0.000669479,0.010093689,0,
00:09.8,-0.000898361,-0.000675201,0.010082245,0,
00:09.8,-0.000938416,-0.000669479,0.010070801,0,
00:09.8,-0.000921249,-0.000652313,0.009967804,0,
00:09.8,-0.000875473,-0.000646591,0.009899139,0,
00:09.8,-0.000886917,-0.000652313,0.010145187,0,
00:09.8,-0.000881195,-0.000658035,0.01017952,0,
00:09.8,-0.000892639,-0.000669479,0.01017952,0,
00:09.8,-0.000886917,-0.000669479,0.010082245,0,
00:09.8,-0.000989914,-0.000680923,0.010065079,0,
00:09.8,-0.000864029,-0.000680923,0.010133743,0,
00:09.8,-0.000864029,-0.000680923,0.010173798,0,
