Elapsed_Time,EMG1,EMG2,EMG3,BioRadio Event,Unnamed: 5
00:00:00,0.000932693,-0.006786346,0.008451462,0,
00:00.0,0.000938416,-0.006780624,0.008451462,0,
00:00.0,0.000938416,-0.006774902,0.008451462,0,
00:00.0,0.000938416,-0.006774902,0.008440018,0,
00:00.0,0.00094986,-0.006792068,0.008422852,0,
00:00.0,0.001018524,-0.006637573,0.008405685,0,
00:00.0,0.001029968,-0.006597519,0.008422852,0,
00:00.0,0.000938416,-0.006774902,0.008440018,0,
00:00.0,0.000915527,-0.006814957,0.008480072,0,
00:00.0,0.000904083,-0.006837845,0.008440018,0,
00:00.0,0.000932693,-0.006774902,0.008457184,0,
00:00.0,0.000938416,-0.006780624,0.008468628,0,
00:00.0,0.000938416,-0.006774902,0.00844574,0,
00:00.1,0.000961304,-0.006752014,0.008394241,0,
00:00.1,0.000955582,-0.006746292,0.008422852,0,
00:00.1,0.000955582,-0.00676918,0.008491516,0,
00:00.1,0.000984192,-0.006700516,0.008451462,0,
00:00.1,0.000944138,-0.00674057,0.00847435,0,
00:00.1,0.000926971,-0.006786346,0.00844574,0,
00:00.1,0.000932693,-0.006803513,0.00844574,0,
00:00.1,0.000932693,-0.006786346,0.008457184,0,
00:00.1,0.000932693,-0.006774902,0.008440018,0,
00:00.1,0.000944138,-0.006763458,0.008434296,0,
00:00.1,0.000961304,-0.006729126,0.008462906,0,
00:00.1,0.000961304,-0.006729126,0.008434296,0,
00:00.1,0.000955582,-0.006752014,0.00844574,0,
00:00.1,0.000938416,-0.006837845,0.008457184,0,
00:00.1,0.000961304,-0.006746292,0.008457184,0,
00:00.1,0.001001358,-0.006614685,0.008428574,0,
00:00.1,0.00094986,-0.006752014,0.008451462,0,
00:00.1,0.000926971,-0.006814957,0.00847435,0,
00:00.1,0.000944138,-0.006797791,0.008440018,0,
00:00.1,0.000926971,-0.006814957,0.008451462,0,
00:00.1,0.000932693,-0.006752014,0.008440018,0,
00:00.1,0.000944138,-0.006729126,0.008491516,0,
00:00.1,0.000967026,-0.006717682,0.008508682,0,
00:00.1,0.000955582,-0.00671196,0.008468628,0,
00:00.1,0.000961304,-0.00674057,0.008434296,0,
00:00.2,0.00097847,-0.006694794,0.008451462,0,
00:00.2,0.000944138,-0.006774902,0.00847435,0,
00:00.2,0.000944138,-0.006786346,0.008440018,0,
00:00.2,0.000955582,-0.006763458,0.008485794,0,
00:00.2,0.000944138,-0.006763458,0.008428574,0,
00:00.2,0.00094986,-0.00676918,0.008468628,0,
00:00.2,0.000961304,-0.006763458,0.008514404,0,
00:00.2,0.000972748,-0.006700516,0.008485794,0,
00:00.2,0.000921249,-0.006746292,0.008485794,0,
00:00.2,0.000944138,-0.006752014,0.00847435,0,
00:00.2,0.000967026,-0.006700516,0.00844574,0,
00:00.2,0.000938416,-0.006757736,0.00847435,0,
00:00.2,0.000955582,-0.006763458,0.008468628,0,
00:00.2,0.00094986,-0.006780624,0.008462906,0,
00:00.2,0.000967026,-0.006729126,0.008491516,0,
00:00.2,0.000972748,-0.006700516,0.008497238,0,
00:00.2,0.000955582,-0.006734848,0.008462906,0,
00:00.2,0.000944138,-0.006780624,0.00847435,0,
00:00.2,0.000967026,-0.006734848,0.00844574,0,
00:00.2,0.00094986,-0.006752014,0.008462906,0,
00:00.2,0.000926971,-0.006786346,0.00850296,0,
00:00.2,0.000926971,-0.006792068,0.008514404,0,
00:00.2,0.000944138,-0.006723404,0.008485794,0,
00:00.2,0.000989914,-0.006677628,0.008485794,0,
00:00.2,0.000995636,-0.006660461,0.008497238,0,
00:00.3,0.000921249,-0.006803513,0.008491516,0,
00:00.3,0.000921249,-0.006820679,0.008480072,0,
00:00.3,0.000938416,-0.006757736,0.008497238,0,
00:00.3,0.000972748,-0.00671196,0.008497238,0,
00:00.3,0.000989914,-0.006677628,0.008508682,0,
00:00.3,0.000944138,-0.006746292,0.008491516,0,
00:00.3,0.000909805,-0.006792068,0.008520126,0,
00:00.3,0.000938416,-0.00674057,0.008468628,0,
00:00.3,0.000984192,-0.006660461,0.008451462,0,
00:00.3,0.000961304,-0.006717682,0.008520126,0,
00:00.3,0.000915527,-0.006809235,0.008520126,0,
00:00.3,0.000938416,-0.006752014,0.00853157,0,
00:00.3,0.00094986,-0.006752014,0.008480072,0,
00:00.3,0.000995636,-0.006654739,0.008491516,0,
00:00.3,0.000955582,-0.006723404,0.008508682,0,
00:00.3,0.000909805,-0.006814957,0.00844574,0,
00:00.3,0.000955582,-0.006723404,0.008457184,0,
00:00.3,0.000984192,-0.006660461,0.008514404,0,
00:00.3,0.000921249,-0.006792068,0.008560181,0,
00:00.3,0.000898361,-0.006814957,0.008543015,0,
00:00.3,0.000932693,-0.006763458,0.008508682,0,
00:00.3,0.000955582,-0.006734848,0.008485794,0,
00:00.3,0.000938416,-0.006757736,0.008480072,0,
00:00.3,0.000938416,-0.006797791,0.00853157,0,
00:00.3,0.000944138,-0.006780624,0.008514404,0,
00:00.4,0.000944138,-0.006666183,0.008508682,0,
00:00.4,0.000972748,-0.00668335,0.008514404,0,
00:00.4,0.000955582,-0.006717682,0.00847435,0,
00:00.4,0.000944138,-0.006717682,0.008497238,0,
00:00.4,0.000926971,-0.00674057,0.008525848,0,
00:00.4,0.000944138,-0.006746292,0.008548737,0,
00:00.4,0.000932693,-0.006763458,0.008514404,0,
00:00.4,0.000955582,-0.006700516,0.008508682,0,
00:00.4,0.000915527,-0.006774902,0.00850296,0,
00:00.4,0.000944138,-0.006763458,0.008480072,0,
00:00.4,0.000989914,-0.006643295,0.008514404,0,
00:00.4,0.000926971,-0.00671196,0.008577347,0,
00:00.4,0.000944138,-0.006700516,0.008514404,0,
00:00.4,0.00097847,-0.006660461,0.008543015,0,
00:00.4,0.000955582,-0.00674057,0.008543015,0,
00:00.4,0.000944138,-0.006734848,0.008548737,0,
00:00.4,0.000909805,-0.006797791,0.00853157,0,
00:00.4,0.000904083,-0.006797791,0.008520126,0,
00:00.4,0.00094986,-0.006717682,0.00850296,0,
00:00.4,0.00097847,-0.006700516,0.008525848,0,
00:00.4,0.000921249,-0.00676918,0.008548737,0,
00:00.4,0.000909805,-0.006757736,0.008560181,0,
00:00.4,0.000921249,-0.006757736,0.008514404,0,
00:00.4,0.000961304,-0.006677628,0.008491516,0,
00:00.4,0.000984192,-0.006689072,0.008485794,0,
00:00.5,0.000921249,-0.006803513,0.008548737,0,
00:00.5,0.000904083,-0.006757736,0.008560181,0,
00:00.5,0.000967026,-0.006706238,0.008548737,0,
00:00.5,0.001047134,-0.006580353,0.008520126,0,
00:00.5,0.000938416,-0.00674057,0.008514404,0,
00:00.5,0.000858307,-0.006826401,0.008554459,0,
00:00.5,0.000904083,-0.006774902,0.008560181,0,
00:00.5,0.000932693,-0.00674057,0.008548737,0,
00:00.5,0.00094986,-0.00674057,0.008508682,0,
00:00.5,0.000955582,-0.006717682,0.00853157,0,
00:00.5,0.001024246,-0.006574631,0.008543015,0,
00:00.5,0.000932693,-0.006757736,0.008508682,0,
00:00.5,0.000881195,-0.006814957,0.008543015,0,
00:00.5,0.000938416,-0.006746292,0.008560181,0,
00:00.5,0.00094986,-0.006729126,0.008543015,0,
00:00.5,0.00094986,-0.006729126,0.008525848,0,
00:00.5,0.001001358,-0.006660461,0.008554459,0,
00:00.5,0.001024246,-0.006631851,0.008543015,0,
00:00.5,0.000875473,-0.006792068,0.008525848,0,
00:00.5,0.000864029,-0.006826401,0.008594513,0,
00:00.5,0.000915527,-0.006763458,0.008560181,0,
00:00.5,0.000938416,-0.006746292,0.008520126,0,
00:00.5,0.000961304,-0.006734848,0.008491516,0,
00:00.5,0.000972748,-0.006677628,0.008543015,0,
00:00.5,0.000932693,-0.006706238,0.008560181,0,
00:00.6,0.000915527,-0.006792068,0.008543015,0,
00:00.6,0.000955582,-0.006717682,0.00853157,0,
00:00.6,0.000995636,-0.006637573,0.00853157,0,
00:00.6,0.000967026,-0.00671196,0.008560181,0,
00:00.6,0.000938416,-0.006723404,0.00853157,0,
00:00.6,0.000915527,-0.006757736,0.00853157,0,
00:00.6,0.000915527,-0.006757736,0.008577347,0,
00:00.6,0.000926971,-0.00674057,0.008543015,0,
00:00.6,0.000955582,-0.006717682,0.008543015,0,
00:00.6,0.000944138,-0.00674057,0.00850296,0,
00:00.6,0.000932693,-0.006757736,0.008525848,0,
00:00.6,0.000944138,-0.006723404,0.008560181,0,
00:00.6,0.00097847,-0.006654739,0.008560181,0,
00:00.6,0.00094986,-0.006752014,0.008548737,0,
00:00.6,0.000944138,-0.00676918,0.008554459,0,
00:00.6,0.000926971,-0.00674057,0.008554459,0,
00:00.6,0.000955582,-0.00668335,0.008548737,0,
00:00.6,0.000955582,-0.00668335,0.008571625,0,
00:00.6,0.000944138,-0.00676918,0.008565903,0,
00:00.6,0.000989914,-0.006637573,0.008525848,0,
00:00.6,0.00094986,-0.00676918,0.008565903,0,
00:00.6,0.000909805,-0.006752014,0.008554459,0,
00:00.6,0.000944138,-0.006700516,0.008548737,0,
00:00.6,0.00097847,-0.006677628,0.008560181,0,
00:00.6,0.000938416,-0.006757736,0.008543015,0,
00:00.7,0.000932693,-0.006763458,0.008571625,0,
00:00.7,0.000932693,-0.006774902,0.008588791,0,
00:00.7,0.000944138,-0.00674057,0.008543015,0,
00:00.7,0.00094986,-0.006694794,0.008520126,0,
00:00.7,0.000944138,-0.006734848,0.008571625,0,
00:00.7,0.000961304,-0.00671196,0.008565903,0,
00:00.7,0.000961304,-0.006723404,0.008543015,0,
00:00.7,0.000932693,-0.006780624,0.008543015,0,
00:00.7,0.000938416,-0.006763458,0.008508682,0,
00:00.7,0.00094986,-0.00671196,0.008525848,0,
00:00.7,0.000967026,-0.006671906,0.008600235,0,
00:00.7,0.000961304,-0.006666183,0.008583069,0,
00:00.7,0.000938416,-0.006792068,0.008565903,0,
00:00.7,0.000938416,-0.006763458,0.008565903,0,
00:00.7,0.00097847,-0.006660461,0.008577347,0,
00:00.7,0.00097847,-0.006666183,0.008543015,0,
00:00.7,0.00094986,-0.006717682,0.00853157,0,
00:00.7,0.00094986,-0.006752014,0.008600235,0,
00:00.7,0.000938416,-0.006763458,0.008554459,0,
00:00.7,0.000926971,-0.006763458,0.008571625,0,
00:00.7,0.000944138,-0.006723404,0.008588791,0,
00:00.7,0.000967026,-0.006689072,0.008537292,0,
00:00.7,0.00097847,-0.006734848,0.008508682,0,
00:00.7,0.00097847,-0.006706238,0.008571625,0,
00:00.7,0.000944138,-0.006734848,0.008617401,0,
00:00.8,0.000944138,-0.006734848,0.008600235,0,
00:00.8,0.000926971,-0.006717682,0.008548737,0,
00:00.8,0.000944138,-0.006746292,0.008543015,0,
00:00.8,0.00097847,-0.00671196,0.008560181,0,
00:00.8,0.000995636,-0.006689072,0.008554459,0,
00:00.8,0.000926971,-0.006763458,0.008583069,0,
00:00.8,0.000915527,-0.006774902,0.008571625,0,
00:00.8,0.000967026,-0.006660461,0.008554459,0,
00:00.8,0.00097847,-0.006649017,0.008577347,0,
00:00.8,0.000932693,-0.006763458,0.008571625,0,
00:00.8,0.000921249,-0.006780624,0.008583069,0,
00:00.8,0.000938416,-0.006746292,0.008583069,0,
00:00.8,0.000967026,-0.006677628,0.008583069,0,
00:00.8,0.00094986,-0.00671196,0.008548737,0,
00:00.8,0.000938416,-0.006774902,0.008560181,0,
00:00.8,0.000955582,-0.006752014,0.008583069,0,
00:00.8,0.001012802,-0.006608963,0.008560181,0,
00:00.8,0.00097847,-0.006671906,0.008548737,0,
00:00.8,0.000932693,-0.006809235,0.008554459,0,
00:00.8,0.000932693,-0.006763458,0.008594513,0,
00:00.8,0.000972748,-0.006637573,0.008605957,0,
00:00.8,0.000961304,-0.006700516,0.008583069,0,
00:00.8,0.000926971,-0.006746292,0.008560181,0,
00:00.8,0.000944138,-0.006723404,0.008577347,0,
00:00.8,0.000955582,-0.006734848,0.008577347,0,
00:00.9,0.000961304,-0.00668335,0.008583069,0,
00:00.9,0.00094986,-0.006700516,0.008600235,0,
00:00.9,0.000926971,-0.00676918,0.008583069,0,
00:00.9,0.000926971,-0.006757736,0.008543015,0,
00:00.9,0.00094986,-0.006717682,0.008560181,0,
00:00.9,0.000944138,-0.006723404,0.008600235,0,
00:00.9,0.000955582,-0.006700516,0.008554459,0,
00:00.9,0.000955582,-0.006723404,0.008583069,0,
00:00.9,0.000955582,-0.006689072,0.008600235,0,
00:00.9,0.000955582,-0.006717682,0.008583069,0,
00:00.9,0.00094986,-0.006729126,0.008611679,0,
00:00.9,0.000944138,-0.006734848,0.008577347,0,
00:00.9,0.000955582,-0.006706238,0.008537292,0,
00:00.9,0.000972748,-0.006729126,0.008537292,0,
00:00.9,0.000961304,-0.006706238,0.008588791,0,
00:00.9,0.000932693,-0.006729126,0.008617401,0,
00:00.9,0.000932693,-0.006734848,0.008617401,0,
00:00.9,0.000944138,-0.006706238,0.008605957,0,
00:00.9,0.000967026,-0.006671906,0.008588791,0,
00:00.9,0.000984192,-0.006671906,0.008611679,0,
00:00.9,0.000938416,-0.006717682,0.008588791,0,
00:00.9,0.000926971,-0.006757736,0.008588791,0,
00:00.9,0.000938416,-0.006729126,0.008583069,0,
00:00.9,0.000955582,-0.006694794,0.008600235,0,
00:00.9,0.000955582,-0.006717682,0.008594513,0,
00:01.0,0.000932693,-0.006752014,0.008571625,0,
00:01.0,0.00094986,-0.006706238,0.008577347,0,
00:01.0,0.000967026,-0.00671196,0.008594513,0,
00:01.0,0.000961304,-0.00674057,0.008588791,0,
00:01.0,0.00094986,-0.006723404,0.008588791,0,
00:01.0,0.00094986,-0.006700516,0.008611679,0,
00:01.0,0.000955582,-0.00668335,0.008623123,0,
00:01.0,0.000989914,-0.006626129,0.008588791,0,
00:01.0,0.000932693,-0.006763458,0.008611679,0,
00:01.0,0.000938416,-0.006752014,0.008611679,0,
00:01.0,0.000972748,-0.00671196,0.008565903,0,
00:01.0,0.000967026,-0.00668335,0.008565903,0,
00:00:01,0.000944138,-0.006694794,0.008600235,0,
00:01.0,0.000938416,-0.006706238,0.008628845,0,
00:01.0,0.000938416,-0.00676918,0.008628845,0,
00:01.0,0.000961304,-0.00668335,0.008623123,0,
00:01.0,0.000961304,-0.006671906,0.008605957,0,
00:01.0,0.000961304,-0.006706238,0.008600235,0,
00:01.0,0.000961304,-0.006694794,0.008577347,0,
00:01.0,0.000944138,-0.006706238,0.008583069,0,
00:01.0,0.000926971,-0.00676918,0.008640289,0,
00:01.0,0.000944138,-0.006734848,0.008634567,0,
00:01.0,0.000944138,-0.006706238,0.008605957,0,
00:01.0,0.000961304,-0.006700516,0.008600235,0,
00:01.0,0.000944138,-0.006729126,0.008588791,0,
00:01.1,0.000961304,-0.00668335,0.008560181,0,
00:01.1,0.000989914,-0.006649017,0.008605957,0,
00:01.1,0.000955582,-0.006706238,0.008651733,0,
00:01.1,0.000955582,-0.006689072,0.008640289,0,
00:01.1,0.000938416,-0.006717682,0.008623123,0,
00:01.1,0.000932693,-0.00674057,0.008611679,0,
00:01.1,0.000961304,-0.006706238,0.008617401,0,
00:01.1,0.00094986,-0.006700516,0.008594513,0,
00:01.1,0.000944138,-0.006757736,0.008605957,0,
00:01.1,0.00094986,-0.006729126,0.008600235,0,
00:01.1,0.000972748,-0.00668335,0.008605957,0,
00:01.1,0.000961304,-0.006689072,0.008628845,0,
00:01.1,0.000926971,-0.006729126,0.008617401,0,
00:01.1,0.000955582,-0.00671196,0.008594513,0,
00:01.1,0.000972748,-0.006689072,0.008605957,0,
00:01.1,0.000961304,-0.006700516,0.008623123,0,
00:01.1,0.000984192,-0.006637573,0.008646011,0,
00:01.1,0.000955582,-0.006660461,0.008605957,0,
00:01.1,0.000955582,-0.006694794,0.008634567,0,
00:01.1,0.000926971,-0.006757736,0.008628845,0,
00:01.1,0.000955582,-0.006717682,0.008628845,0,
00:01.1,0.000961304,-0.006694794,0.008628845,0,
00:01.1,0.000984192,-0.006666183,0.008623123,0,
00:01.1,0.000984192,-0.006649017,0.008583069,0,
00:01.1,0.000955582,-0.006717682,0.008640289,0,
00:01.2,0.000932693,-0.006729126,0.008640289,0,
00:01.2,0.000938416,-0.006729126,0.008611679,0,
00:01.2,0.000944138,-0.006746292,0.008600235,0,
00:01.2,0.000955582,-0.00671196,0.008611679,0,
00:01.2,0.000972748,-0.006654739,0.008651733,0,
00:01.2,0.00097847,-0.006649017,0.008628845,0,
00:01.2,0.001001358,-0.006620407,0.008623123,0,
00:01.2,0.000915527,-0.006774902,0.008628845,0,
00:01.2,0.000938416,-0.006763458,0.008663177,0,
00:01.2,0.000932693,-0.006774902,0.008657455,0,
00:01.2,0.000955582,-0.006700516,0.008640289,0,
00:01.2,0.00094986,-0.006689072,0.008617401,0,
00:01.2,0.000961304,-0.006689072,0.008617401,0,
00:01.2,0.000972748,-0.006660461,0.008605957,0,
00:01.2,0.000932693,-0.006746292,0.008617401,0,
00:01.2,0.00094986,-0.00671196,0.008623123,0,
00:01.2,0.00097847,-0.006643295,0.008663177,0,
00:01.2,0.000938416,-0.006723404,0.008640289,0,
00:01.2,0.000955582,-0.006700516,0.008600235,0,
00:01.2,0.000961304,-0.00671196,0.008623123,0,
00:01.2,0.000932693,-0.006763458,0.008657455,0,
00:01.2,0.000926971,-0.006729126,0.008657455,0,
00:01.2,0.00094986,-0.006700516,0.008628845,0,
00:01.2,0.000961304,-0.006666183,0.008594513,0,
00:01.2,0.000961304,-0.006694794,0.008657455,0,
00:01.3,0.00094986,-0.00674057,0.008663177,0,
00:01.3,0.000972748,-0.006706238,0.008588791,0,
00:01.3,0.001024246,-0.006568909,0.008657455,0,
00:01.3,0.00097847,-0.006660461,0.008651733,0,
00:01.3,0.000915527,-0.00676918,0.008651733,0,
00:01.3,0.000926971,-0.006752014,0.008657455,0,
00:01.3,0.000961304,-0.006706238,0.008657455,0,
00:01.3,0.00097847,-0.006700516,0.008634567,0,
00:01.3,0.000995636,-0.006717682,0.008634567,0,
00:01.3,0.001024246,-0.006700516,0.008640289,0,
00:01.3,0.001041412,-0.006694794,0.008634567,0,
00:01.3,0.001081467,-0.006637573,0.008617401,0,
00:01.3,0.001104355,-0.006597519,0.008628845,0,
00:01.3,0.00103569,-0.00674057,0.008657455,0,
00:01.3,0.001012802,-0.006774902,0.008646011,0,
00:01.3,0.001041412,-0.00671196,0.008628845,0,
00:01.3,0.001041412,-0.00671196,0.008628845,0,
00:01.3,0.001052856,-0.006694794,0.008663177,0,
00:01.3,0.00103569,-0.006729126,0.008657455,0,
00:01.3,0.001047134,-0.006706238,0.008640289,0,
00:01.3,0.001064301,-0.006689072,0.008623123,0,
00:01.3,0.001064301,-0.00668335,0.008611679,0,
00:01.3,0.001064301,-0.00671196,0.008623123,0,
00:01.3,0.001087189,-0.006689072,0.0086689,0,
00:01.3,0.001081467,-0.006637573,0.0086689,0,
00:01.4,0.001075745,-0.006631851,0.008634567,0,
00:01.4,0.001058578,-0.006729126,0.008657455,0,
00:01.4,0.001047134,-0.006752014,0.0086689,0,
00:01.4,0.001070023,-0.006666183,0.0086689,0,
00:01.4,0.001070023,-0.006689072,0.008651733,0,
00:01.4,0.001075745,-0.006654739,0.008640289,0,
00:01.4,0.001092911,-0.006649017,0.008651733,0,
00:01.4,0.001029968,-0.006763458,0.008680344,0,
00:01.4,0.001047134,-0.006700516,0.008651733,0,
00:01.4,0.001064301,-0.006706238,0.008657455,0,
00:01.4,0.001081467,-0.00668335,0.008663177,0,
00:01.4,0.001070023,-0.00668335,0.008646011,0,
00:01.4,0.001081467,-0.006677628,0.008634567,0,
00:01.4,0.001098633,-0.006700516,0.008640289,0,
00:01.4,0.001081467,-0.00668335,0.008611679,0,
00:01.4,0.001047134,-0.006729126,0.008628845,0,
00:01.4,0.001075745,-0.006700516,0.008657455,0,
00:01.4,0.001075745,-0.006700516,0.008680344,0,
00:01.4,0.001070023,-0.00668335,0.008686066,0,
00:01.4,0.001064301,-0.006734848,0.008623123,0,
00:01.4,0.001070023,-0.00676918,0.008628845,0,
00:01.4,0.001087189,-0.00668335,0.008674622,0,
00:01.4,0.001081467,-0.006677628,0.008691788,0,
00:01.4,0.001087189,-0.006671906,0.0086689,0,
00:01.4,0.001110077,-0.006637573,0.008657455,0,
00:01.5,0.001092911,-0.006671906,0.008646011,0,
00:01.5,0.001047134,-0.006734848,0.008634567,0,
00:01.5,0.001075745,-0.006671906,0.008623123,0,
00:01.5,0.001087189,-0.006666183,0.008605957,0,
00:01.5,0.001087189,-0.006671906,0.00869751,0,
00:01.5,0.001058578,-0.006729126,0.008686066,0,
00:01.5,0.001064301,-0.006723404,0.008680344,0,
00:01.5,0.001081467,-0.006694794,0.008651733,0,
00:01.5,0.001075745,-0.006689072,0.008657455,0,
00:01.5,0.001075745,-0.006700516,0.008651733,0,
00:01.5,0.001081467,-0.006694794,0.008657455,0,
00:01.5,0.001104355,-0.006654739,0.008663177,0,
00:01.5,0.001092911,-0.006666183,0.008646011,0,
00:01.5,0.001087189,-0.006694794,0.008600235,0,
00:01.5,0.001104355,-0.006649017,0.008628845,0,
00:01.5,0.001081467,-0.006649017,0.008657455,0,
00:01.5,0.001075745,-0.006706238,0.008651733,0,
00:01.5,0.001092911,-0.006706238,0.00872612,0,
00:01.5,0.001081467,-0.00671196,0.00869751,0,
00:01.5,0.001087189,-0.006677628,0.008663177,0,
00:01.5,0.001132965,-0.006574631,0.008657455,0,
00:01.5,0.001115799,-0.006660461,0.008663177,0,
00:01.5,0.001052856,-0.006763458,0.0086689,0,
00:01.5,0.001052856,-0.006763458,0.008663177,0,
00:01.5,0.001075745,-0.006752014,0.0086689,0,
00:01.6,0.001092911,-0.006694794,0.008703232,0,
00:01.6,0.001098633,-0.006643295,0.008686066,0,
00:01.6,0.001115799,-0.006626129,0.008674622,0,
00:01.6,0.001098633,-0.00668335,0.008657455,0,
00:01.6,0.001081467,-0.00668335,0.0086689,0,
00:01.6,0.001075745,-0.006700516,0.0086689,0,
00:01.6,0.001087189,-0.00668335,0.008686066,0,
00:01.6,0.001081467,-0.006677628,0.008657455,0,
00:01.6,0.001075745,-0.006694794,0.008646011,0,
00:01.6,0.001081467,-0.006717682,0.008680344,0,
00:01.6,0.001092911,-0.006694794,0.00869751,0,
00:01.6,0.001087189,-0.006671906,0.0086689,0,
00:01.6,0.001115799,-0.006631851,0.008663177,0,
00:01.6,0.001127243,-0.006643295,0.008663177,0,
00:01.6,0.001070023,-0.006729126,0.008680344,0,
00:01.6,0.001081467,-0.006706238,0.008714676,0,
00:01.6,0.001098633,-0.006660461,0.0086689,0,
00:01.6,0.001115799,-0.006620407,0.008640289,0,
00:01.6,0.001092911,-0.006677628,0.008663177,0,
00:01.6,0.001064301,-0.006717682,0.008708954,0,
00:01.6,0.001075745,-0.006723404,0.008708954,0,
00:01.6,0.001104355,-0.00668335,0.008686066,0,
00:01.6,0.001092911,-0.006677628,0.0086689,0,
00:01.6,0.001092911,-0.006706238,0.008674622,0,
00:01.6,0.001092911,-0.006763458,0.008680344,0,
00:01.7,0.001110077,-0.006643295,0.008691788,0,
00:01.7,0.001115799,-0.006591797,0.008708954,0,
00:01.7,0.001075745,-0.006689072,0.008686066,0,
00:01.7,0.001075745,-0.006689072,0.008640289,0,
00:01.7,0.001075745,-0.006706238,0.008691788,0,
00:01.7,0.001092911,-0.006694794,0.008708954,0,
00:01.7,0.001092911,-0.006671906,0.008663177,0,
00:01.7,0.001110077,-0.006654739,0.0086689,0,
00:01.7,0.001132965,-0.006614685,0.008686066,0,
00:01.7,0.001087189,-0.006723404,0.008703232,0,
00:01.7,0.001075745,-0.006706238,0.008708954,0,
00:01.7,0.001092911,-0.006677628,0.008663177,0,
00:01.7,0.001110077,-0.006637573,0.008691788,0,
00:01.7,0.001104355,-0.006649017,0.008703232,0,
00:01.7,0.001087189,-0.006677628,0.008691788,0,
00:01.7,0.001087189,-0.006671906,0.00869751,0,
00:01.7,0.001104355,-0.006666183,0.0086689,0,
00:01.7,0.001092911,-0.006717682,0.008686066,0,
00:01.7,0.001081467,-0.006757736,0.008674622,0,
00:01.7,0.001092911,-0.006689072,0.008674622,0,
00:01.7,0.001121521,-0.006603241,0.00869751,0,
00:01.7,0.001081467,-0.006689072,0.008691788,0,
00:01.7,0.001075745,-0.006706238,0.008703232,0,
00:01.7,0.001092911,-0.006671906,0.008714676,0,
00:01.7,0.001115799,-0.006637573,0.008731842,0,
00:01.8,0.001087189,-0.006671906,0.008703232,0,
00:01.8,0.001075745,-0.00668335,0.008680344,0,
00:01.8,0.001115799,-0.006643295,0.0086689,0,
00:01.8,0.001121521,-0.006637573,0.008686066,0,
00:01.8,0.001087189,-0.006700516,0.008731842,0,
00:01.8,0.001075745,-0.006694794,0.008720398,0,
00:01.8,0.001092911,-0.006660461,0.008708954,0,
00:01.8,0.001092911,-0.006671906,0.008674622,0,
00:01.8,0.001087189,-0.006689072,0.008686066,0,
00:01.8,0.001098633,-0.006660461,0.008708954,0,
00:01.8,0.001104355,-0.006649017,0.008703232,0,
00:01.8,0.001104355,-0.006649017,0.008651733,0,
00:01.8,0.001092911,-0.006700516,0.008680344,0,
00:01.8,0.001081467,-0.00671196,0.008743286,0,
00:01.8,0.001075745,-0.00668335,0.008731842,0,
00:01.8,0.001081467,-0.00671196,0.00872612,0,
00:01.8,0.001115799,-0.006666183,0.00872612,0,
00:01.8,0.001132965,-0.006614685,0.00869751,0,
00:01.8,0.001087189,-0.006666183,0.008703232,0,
00:01.8,0.001075745,-0.006734848,0.00872612,0,
00:01.8,0.001081467,-0.006689072,0.00869751,0,
00:01.8,0.001092911,-0.006654739,0.008686066,0,
00:01.8,0.001098633,-0.006660461,0.008703232,0,
00:01.8,0.001092911,-0.006677628,0.00869751,0,
00:01.8,0.001132965,-0.006649017,0.00869751,0,
00:01.9,0.001144409,-0.006631851,0.008720398,0,
00:01.9,0.001070023,-0.00668335,0.00869751,0,
00:01.9,0.001058578,-0.006717682,0.00869751,0,
00:01.9,0.001092911,-0.006689072,0.008708954,0,
00:01.9,0.001127243,-0.006631851,0.00869751,0,
00:01.9,0.001092911,-0.006677628,0.008674622,0,
00:01.9,0.001075745,-0.006700516,0.008737564,0,
00:01.9,0.001087189,-0.006666183,0.008743286,0,
00:01.9,0.001127243,-0.006626129,0.008737564,0,
00:01.9,0.001127243,-0.006620407,0.00872612,0,
00:01.9,0.001081467,-0.006694794,0.00869751,0,
00:01.9,0.001081467,-0.006700516,0.00872612,0,
00:01.9,0.001115799,-0.00668335,0.008686066,0,
00:01.9,0.001092911,-0.006700516,0.008714676,0,
00:01.9,0.001098633,-0.006620407,0.008731842,0,
00:01.9,0.001092911,-0.006666183,0.008720398,0,
00:01.9,0.001081467,-0.006700516,0.008708954,0,
00:01.9,0.001115799,-0.006660461,0.008720398,0,
00:01.9,0.001121521,-0.006649017,0.00872612,0,
00:01.9,0.001098633,-0.006671906,0.008720398,0,
00:01.9,0.001092911,-0.006660461,0.00872612,0,
00:01.9,0.001092911,-0.006643295,0.008720398,0,
00:01.9,0.001104355,-0.006649017,0.008714676,0,
00:01.9,0.001110077,-0.006671906,0.008737564,0,
00:01.9,0.001098633,-0.00668335,0.008708954,0,
00:02.0,0.001115799,-0.006666183,0.00869751,0,
00:02.0,0.001098633,-0.006649017,0.008708954,0,
00:02.0,0.001087189,-0.006654739,0.008731842,0,
00:02.0,0.001092911,-0.006689072,0.008714676,0,
00:02.0,0.001104355,-0.006694794,0.008720398,0,
00:02.0,0.001098633,-0.006677628,0.008714676,0,
00:02.0,0.001121521,-0.006631851,0.008720398,0,
00:02.0,0.001098633,-0.006689072,0.008720398,0,
00:02.0,0.001110077,-0.00668335,0.008731842,0,
00:02.0,0.001098633,-0.006694794,0.008714676,0,
00:02.0,0.001110077,-0.006649017,0.008737564,0,
00:02.0,0.001121521,-0.006620407,0.008731842,0,
00:00:02,0.001115799,-0.006608963,0.008703232,0,
00:02.0,0.001104355,-0.006671906,0.00872612,0,
00:02.0,0.001110077,-0.006637573,0.008731842,0,
00:02.0,0.001104355,-0.006649017,0.008737564,0,
00:02.0,0.001075745,-0.006694794,0.008731842,0,
00:02.0,0.001098633,-0.006666183,0.008731842,0,
00:02.0,0.001121521,-0.006694794,0.008749008,0,
00:02.0,0.001098633,-0.006677628,0.008737564,0,
00:02.0,0.001104355,-0.006666183,0.008743286,0,
00:02.0,0.001115799,-0.006660461,0.008714676,0,
00:02.0,0.001098633,-0.006666183,0.00872612,0,
00:02.0,0.001087189,-0.006671906,0.008737564,0,
00:02.0,0.001110077,-0.006654739,0.008737564,0,
00:02.1,0.001121521,-0.006620407,0.008749008,0,
00:02.1,0.001081467,-0.00668335,0.00872612,0,
00:02.1,0.001092911,-0.006689072,0.00875473,0,
00:02.1,0.001127243,-0.006626129,0.008731842,0,
00:02.1,0.001115799,-0.006666183,0.008720398,0,
00:02.1,0.001081467,-0.006706238,0.008737564,0,
00:02.1,0.001138687,-0.006597519,0.008766174,0,
00:02.1,0.001121521,-0.006608963,0.008720398,0,
00:02.1,0.001052856,-0.00676918,0.008771896,0,
00:02.1,0.001075745,-0.006717682,0.008749008,0,
00:02.1,0.001115799,-0.006637573,0.00872612,0,
00:02.1,0.001127243,-0.006637573,0.00872612,0,
00:02.1,0.001098633,-0.006671906,0.008714676,0,
00:02.1,0.001104355,-0.006649017,0.008749008,0,
00:02.1,0.001121521,-0.006608963,0.008743286,0,
00:02.1,0.001098633,-0.006689072,0.008760452,0,
00:02.1,0.001115799,-0.006637573,0.00878334,0,
00:02.1,0.001098633,-0.006677628,0.008714676,0,
00:02.1,0.001058578,-0.006746292,0.008731842,0,
00:02.1,0.001098633,-0.006666183,0.008771896,0,
00:02.1,0.001144409,-0.006591797,0.00875473,0,
00:02.1,0.001104355,-0.006631851,0.008743286,0,
00:02.1,0.001081467,-0.00668335,0.00872612,0,
00:02.1,0.001121521,-0.006666183,0.008743286,0,
00:02.1,0.001121521,-0.006620407,0.00875473,0,
00:02.2,0.001087189,-0.006666183,0.008749008,0,
00:02.2,0.001092911,-0.006752014,0.008766174,0,
00:02.2,0.001104355,-0.006660461,0.008771896,0,
00:02.2,0.001110077,-0.006631851,0.008749008,0,
00:02.2,0.001104355,-0.006660461,0.008731842,0,
00:02.2,0.001104355,-0.006677628,0.008731842,0,
00:02.2,0.001087189,-0.00668335,0.00875473,0,
00:02.2,0.001098633,-0.006654739,0.00875473,0,
00:02.2,0.001104355,-0.00668335,0.008714676,0,
00:02.2,0.001127243,-0.006643295,0.008731842,0,
00:02.2,0.001098633,-0.006666183,0.008777618,0,
00:02.2,0.001104355,-0.006603241,0.008771896,0,
00:02.2,0.001087189,-0.006654739,0.00875473,0,
00:02.2,0.001081467,-0.00671196,0.00875473,0,
00:02.2,0.001087189,-0.00668335,0.008743286,0,
00:02.2,0.001098633,-0.006660461,0.008737564,0,
00:02.2,0.001121521,-0.006614685,0.00872612,0,
00:02.2,0.001155853,-0.006603241,0.008771896,0,
00:02.2,0.001110077,-0.006671906,0.008749008,0,
00:02.2,0.001081467,-0.006729126,0.008703232,0,
00:02.2,0.001110077,-0.006666183,0.008708954,0,
00:02.2,0.001098633,-0.006666183,0.00878334,0,
00:02.2,0.001087189,-0.006677628,0.008789063,0,
00:02.2,0.001087189,-0.006660461,0.008771896,0,
00:02.2,0.001092911,-0.006643295,0.008737564,0,
00:02.3,0.001104355,-0.006643295,0.008737564,0,
00:02.3,0.001110077,-0.006660461,0.008771896,0,
00:02.3,0.001098633,-0.006671906,0.008789063,0,
00:02.3,0.001121521,-0.006614685,0.008771896,0,
00:02.3,0.001167297,-0.006557465,0.00875473,0,
00:02.3,0.001064301,-0.006723404,0.008760452,0,
00:02.3,0.001064301,-0.006763458,0.00878334,0,
00:02.3,0.001098633,-0.006666183,0.00875473,0,
00:02.3,0.001098633,-0.006654739,0.008731842,0,
00:02.3,0.001098633,-0.006649017,0.008766174,0,
00:02.3,0.001104355,-0.006649017,0.00875473,0,
00:02.3,0.001098633,-0.006671906,0.008743286,0,
00:02.3,0.001098633,-0.00668335,0.008760452,0,
00:02.3,0.001110077,-0.006654739,0.00875473,0,
00:02.3,0.001138687,-0.006626129,0.00872612,0,
00:02.3,0.001115799,-0.006666183,0.008760452,0,
00:02.3,0.001092911,-0.006637573,0.008766174,0,
00:02.3,0.001081467,-0.006666183,0.008766174,0,
00:02.3,0.001121521,-0.006586075,0.008766174,0,
00:02.3,0.001121521,-0.006626129,0.008749008,0,
00:02.3,0.001081467,-0.006723404,0.00878334,0,
00:02.3,0.001070023,-0.006694794,0.008794785,0,
00:02.3,0.001104355,-0.006637573,0.008766174,0,
00:02.3,0.001173019,-0.006540298,0.008749008,0,
00:02.3,0.001070023,-0.00671196,0.008760452,0,
00:02.4,0.001058578,-0.006706238,0.008777618,0,
00:02.4,0.001104355,-0.006660461,0.008749008,0,
00:02.4,0.001138687,-0.006620407,0.008743286,0,
00:02.4,0.001127243,-0.006608963,0.008771896,0,
00:02.4,0.001075745,-0.006689072,0.008766174,0,
00:02.4,0.001098633,-0.006660461,0.008777618,0,
00:02.4,0.001144409,-0.006608963,0.00875473,0,
00:02.4,0.001110077,-0.006700516,0.008766174,0,
00:02.4,0.001070023,-0.006700516,0.008760452,0,
00:02.4,0.001081467,-0.006637573,0.008771896,0,
00:02.4,0.001104355,-0.006626129,0.008771896,0,
00:02.4,0.001121521,-0.006626129,0.008731842,0,
00:02.4,0.001132965,-0.006637573,0.008743286,0,
00:02.4,0.001132965,-0.006626129,0.00878334,0,
00:02.4,0.001098633,-0.006671906,0.008766174,0,
00:02.4,0.001064301,-0.006694794,0.00878334,0,
00:02.4,0.001081467,-0.006660461,0.008789063,0,
00:02.4,0.001110077,-0.006631851,0.008760452,0,
00:02.4,0.001121521,-0.006649017,0.008789063,0,
00:02.4,0.001098633,-0.006677628,0.008789063,0,
00:02.4,0.001087189,-0.006643295,0.008766174,0,
00:02.4,0.001081467,-0.006671906,0.008789063,0,
00:02.4,0.001115799,-0.006649017,0.00878334,0,
00:02.4,0.001115799,-0.006631851,0.008749008,0,
00:02.4,0.001110077,-0.006637573,0.008737564,0,
00:02.5,0.001127243,-0.006614685,0.008794785,0,
00:02.5,0.001098633,-0.006654739,0.008794785,0,
00:02.5,0.001115799,-0.006631851,0.008749008,0,
00:02.5,0.001092911,-0.006689072,0.008760452,0,
00:02.5,0.001098633,-0.006706238,0.008794785,0,
00:02.5,0.001121521,-0.006608963,0.008789063,0,
00:02.5,0.001121521,-0.006591797,0.008720398,0,
00:02.5,0.001110077,-0.006637573,0.008777618,0,
00:02.5,0.001064301,-0.006717682,0.008806229,0,
00:02.5,0.001087189,-0.00668335,0.008817673,0,
00:02.5,0.001110077,-0.006654739,0.008806229,0,
00:02.5,0.001104355,-0.006677628,0.008771896,0,
00:02.5,0.001115799,-0.006643295,0.008760452,0,
00:02.5,0.001104355,-0.006631851,0.008760452,0,
00:02.5,0.001075745,-0.006706238,0.008777618,0,
00:02.5,0.001098633,-0.00668335,0.008771896,0,
00:02.5,0.001104355,-0.006643295,0.00878334,0,
00:02.5,0.001092911,-0.006614685,0.008789063,0,
00:02.5,0.001098633,-0.006643295,0.00878334,0,
00:02.5,0.001098633,-0.006660461,0.008749008,0,
00:02.5,0.001110077,-0.006671906,0.008760452,0,
00:02.5,0.001098633,-0.006677628,0.008777618,0,
00:02.5,0.001087189,-0.006671906,0.008766174,0,
00:02.5,0.001104355,-0.006631851,0.008766174,0,
00:02.5,0.001098633,-0.006643295,0.008777618,0,
00:02.6,0.001121521,-0.006637573,0.008766174,0,
00:02.6,0.001161575,-0.006580353,0.008794785,0,
00:02.6,0.001092911,-0.006637573,0.008789063,0,
00:02.6,0.001064301,-0.006660461,0.00878334,0,
00:02.6,0.001087189,-0.00668335,0.008811951,0,
00:02.6,0.001104355,-0.006637573,0.00878334,0,
00:02.6,0.001115799,-0.006620407,0.00878334,0,
00:02.6,0.001115799,-0.006660461,0.008777618,0,
00:02.6,0.001110077,-0.006654739,0.008794785,0,
00:02.6,0.001127243,-0.006614685,0.008811951,0,
00:02.6,0.001104355,-0.006626129,0.008794785,0,
00:02.6,0.001104355,-0.006666183,0.008789063,0,
00:02.6,0.001081467,-0.006729126,0.008806229,0,
00:02.6,0.001132965,-0.006586075,0.00878334,0,
00:02.6,0.001098633,-0.006637573,0.00875473,0,
00:02.6,0.001064301,-0.006729126,0.008823395,0,
00:02.6,0.001110077,-0.006631851,0.00878334,0,
00:02.6,0.001098633,-0.006626129,0.008743286,0,
00:02.6,0.001092911,-0.006666183,0.008777618,0,
00:02.6,0.001121521,-0.006626129,0.008800507,0,
00:02.6,0.001132965,-0.006568909,0.008806229,0,
00:02.6,0.001132965,-0.006637573,0.008789063,0,
00:02.6,0.001150131,-0.006608963,0.00878334,0,
00:02.6,0.001081467,-0.006729126,0.008811951,0,
00:02.6,0.001098633,-0.006643295,0.008811951,0,
00:02.7,0.001087189,-0.006666183,0.008794785,0,
00:02.7,0.001092911,-0.006649017,0.008806229,0,
00:02.7,0.001138687,-0.006614685,0.008800507,0,
00:02.7,0.001104355,-0.006706238,0.00878334,0,
00:02.7,0.001081467,-0.00668335,0.008789063,0,
00:02.7,0.001110077,-0.006637573,0.008789063,0,
00:02.7,0.001132965,-0.006614685,0.008794785,0,
00:02.7,0.001155853,-0.006568909,0.008794785,0,
00:02.7,0.001075745,-0.006689072,0.008760452,0,
00:02.7,0.001058578,-0.00671196,0.008800507,0,
00:02.7,0.001115799,-0.006637573,0.008771896,0,
00:02.7,0.001144409,-0.006591797,0.008794785,0,
00:02.7,0.001138687,-0.006620407,0.008817673,0,
00:02.7,0.001132965,-0.006637573,0.008806229,0,
00:02.7,0.001104355,-0.006631851,0.008811951,0,
00:02.7,0.001121521,-0.006631851,0.008817673,0,
00:02.7,0.001081467,-0.006660461,0.008794785,0,
00:02.7,0.001138687,-0.006608963,0.008829117,0,
00:02.7,0.001132965,-0.006631851,0.008777618,0,
00:02.7,0.001098633,-0.006654739,0.008760452,0,
00:02.7,0.001110077,-0.006677628,0.008829117,0,
00:02.7,0.001081467,-0.006723404,0.008829117,0,
00:02.7,0.001098633,-0.00668335,0.008806229,0,
00:02.7,0.001132965,-0.006626129,0.008771896,0,
00:02.7,0.001132965,-0.006586075,0.008794785,0,
00:02.8,0.001115799,-0.006626129,0.008777618,0,
00:02.8,0.001127243,-0.00668335,0.00875473,0,
00:02.8,0.001104355,-0.006654739,0.008800507,0,
00:02.8,0.001115799,-0.006654739,0.008846283,0,
00:02.8,0.001127243,-0.006626129,0.00878334,0,
00:02.8,0.001127243,-0.006603241,0.008766174,0,
00:02.8,0.001127243,-0.006620407,0.008840561,0,
00:02.8,0.001121521,-0.006626129,0.008829117,0,
00:02.8,0.001110077,-0.006671906,0.008806229,0,
00:02.8,0.001098633,-0.00668335,0.008794785,0,
00:02.8,0.001115799,-0.006654739,0.008829117,0,
00:02.8,0.001115799,-0.00668335,0.008794785,0,
00:02.8,0.001098633,-0.006671906,0.008806229,0,
00:02.8,0.001110077,-0.006649017,0.008789063,0,
00:02.8,0.001115799,-0.006614685,0.008789063,0,
00:02.8,0.001132965,-0.006597519,0.008789063,0,
00:02.8,0.001144409,-0.006591797,0.008800507,0,
00:02.8,0.001155853,-0.006597519,0.008829117,0,
00:02.8,0.001098633,-0.006631851,0.008789063,0,
00:02.8,0.001064301,-0.006723404,0.008794785,0,
00:02.8,0.001110077,-0.006666183,0.008794785,0,
00:02.8,0.001138687,-0.006649017,0.008760452,0,
00:02.8,0.001104355,-0.006649017,0.008800507,0,
00:02.8,0.001110077,-0.006637573,0.008834839,0,
00:02.8,0.001132965,-0.006591797,0.008806229,0,
00:02.9,0.001150131,-0.006557465,0.008817673,0,
00:02.9,0.001138687,-0.006660461,0.008823395,0,
00:02.9,0.001087189,-0.006706238,0.008817673,0,
00:02.9,0.001070023,-0.00671196,0.008823395,0,
00:02.9,0.001132965,-0.006608963,0.008800507,0,
00:02.9,0.001127243,-0.006649017,0.008811951,0,
00:02.9,0.001092911,-0.006654739,0.008829117,0,
00:02.9,0.001115799,-0.006626129,0.008777618,0,
00:02.9,0.001161575,-0.006603241,0.008777618,0,
00:02.9,0.001127243,-0.006631851,0.008834839,0,
00:02.9,0.001081467,-0.006694794,0.008829117,0,
00:02.9,0.001092911,-0.006660461,0.008811951,0,
00:02.9,0.001115799,-0.006649017,0.008766174,0,
00:02.9,0.001121521,-0.006620407,0.008760452,0,
00:02.9,0.001121521,-0.006603241,0.008823395,0,
00:02.9,0.001110077,-0.006631851,0.008852005,0,
00:02.9,0.001092911,-0.006694794,0.008794785,0,
00:02.9,0.001115799,-0.006620407,0.008800507,0,
00:02.9,0.001144409,-0.006591797,0.008817673,0,
00:02.9,0.001150131,-0.006603241,0.008806229,0,
00:02.9,0.001110077,-0.006654739,0.008800507,0,
00:02.9,0.001144409,-0.006557465,0.008811951,0,
00:02.9,0.001150131,-0.006563187,0.008800507,0,
00:02.9,0.001070023,-0.006706238,0.008823395,0,
00:02.9,0.001087189,-0.00668335,0.008823395,0,
00:03.0,0.001127243,-0.006586075,0.008789063,0,
00:03.0,0.001138687,-0.006608963,0.008811951,0,
00:03.0,0.001121521,-0.006626129,0.008800507,0,
00:03.0,0.001121521,-0.006614685,0.008800507,0,
00:03.0,0.001155853,-0.006540298,0.008800507,0,
00:03.0,0.001075745,-0.006734848,0.008829117,0,
00:03.0,0.001092911,-0.006666183,0.008857727,0,
00:03.0,0.001138687,-0.006591797,0.008817673,0,
00:03.0,0.001121521,-0.006626129,0.008811951,0,
00:03.0,0.001098633,-0.006660461,0.00878334,0,
00:03.0,0.001087189,-0.006689072,0.008800507,0,
00:03.0,0.001115799,-0.006603241,0.008846283,0,
00:00:03,0.001144409,-0.006546021,0.008823395,0,
00:03.0,0.001098633,-0.006689072,0.008823395,0,
00:03.0,0.001104355,-0.006654739,0.008794785,0,
00:03.0,0.001150131,-0.006551743,0.008800507,0,
00:03.0,0.001138687,-0.006643295,0.008789063,0,
00:03.0,0.001087189,-0.006700516,0.008806229,0,
00:03.0,0.001087189,-0.006643295,0.008800507,0,
00:03.0,0.001104355,-0.006631851,0.008834839,0,
00:03.0,0.001132965,-0.006597519,0.008834839,0,
00:03.0,0.001138687,-0.006586075,0.008829117,0,
00:03.0,0.001121521,-0.006597519,0.008823395,0,
00:03.0,0.001121521,-0.006620407,0.008811951,0,
00:03.0,0.001115799,-0.006608963,0.008823395,0,
00:03.1,0.001110077,-0.006649017,0.008800507,0,
00:03.1,0.001161575,-0.006563187,0.008829117,0,
00:03.1,0.001121521,-0.006608963,0.008817673,0,
00:03.1,0.001087189,-0.006694794,0.008800507,0,
00:03.1,0.001104355,-0.006666183,0.008817673,0,
00:03.1,0.001115799,-0.006643295,0.008829117,0,
00:03.1,0.001132965,-0.006563187,0.008817673,0,
00:03.1,0.001138687,-0.006586075,0.008823395,0,
00:03.1,0.001132965,-0.006591797,0.008817673,0,
00:03.1,0.001132965,-0.006614685,0.008829117,0,
00:03.1,0.001110077,-0.006631851,0.008794785,0,
00:03.1,0.001104355,-0.006660461,0.008794785,0,
00:03.1,0.001121521,-0.006654739,0.008789063,0,
00:03.1,0.001161575,-0.006551743,0.008811951,0,
00:03.1,0.001167297,-0.006500244,0.008880615,0,
00:03.1,0.001092911,-0.006654739,0.008863449,0,
00:03.1,0.001110077,-0.006666183,0.008829117,0,
00:03.1,0.001127243,-0.006631851,0.008800507,0,
00:03.1,0.001127243,-0.006586075,0.008829117,0,
00:03.1,0.001110077,-0.006620407,0.008834839,0,
00:03.1,0.001115799,-0.006620407,0.008811951,0,
00:03.1,0.001132965,-0.006597519,0.008811951,0,
00:03.1,0.001144409,-0.006586075,0.008823395,0,
00:03.1,0.001167297,-0.006574631,0.008823395,0,
00:03.1,0.001144409,-0.006637573,0.008840561,0,
00:03.2,0.001144409,-0.006597519,0.008840561,0,
00:03.2,0.001161575,-0.006557465,0.008829117,0,
00:03.2,0.001092911,-0.006620407,0.008823395,0,
00:03.2,0.001092911,-0.006666183,0.008846283,0,
00:03.2,0.001121521,-0.006631851,0.008846283,0,
00:03.2,0.001144409,-0.006580353,0.008834839,0,
00:03.2,0.001150131,-0.006568909,0.008840561,0,
00:03.2,0.001178741,-0.006528854,0.008800507,0,
00:03.2,0.001144409,-0.006597519,0.008777618,0,
00:03.2,0.001121521,-0.006626129,0.008829117,0,
00:03.2,0.001132965,-0.006591797,0.008857727,0,
00:03.2,0.001127243,-0.006631851,0.008852005,0,
00:03.2,0.001144409,-0.006637573,0.008846283,0,
00:03.2,0.001150131,-0.006574631,0.008829117,0,
00:03.2,0.001144409,-0.006557465,0.008829117,0,
00:03.2,0.001178741,-0.006523132,0.008852005,0,
00:03.2,0.001144409,-0.006574631,0.008840561,0,
00:03.2,0.001115799,-0.006649017,0.008857727,0,
00:03.2,0.001121521,-0.006620407,0.008840561,0,
00:03.2,0.001115799,-0.006643295,0.008834839,0,
00:03.2,0.001127243,-0.006643295,0.008817673,0,
00:03.2,0.001144409,-0.006568909,0.008846283,0,
00:03.2,0.001150131,-0.006574631,0.008846283,0,
00:03.2,0.001155853,-0.006568909,0.008840561,0,
00:03.2,0.001173019,-0.006557465,0.008840561,0,
00:03.3,0.001150131,-0.006540298,0.008806229,0,
00:03.3,0.001138687,-0.006586075,0.008771896,0,
00:03.3,0.001150131,-0.006603241,0.008811951,0,
00:03.3,0.001155853,-0.006586075,0.008806229,0,
00:03.3,0.001127243,-0.006626129,0.008869171,0,
00:03.3,0.001121521,-0.006608963,0.008903503,0,
00:03.3,0.001138687,-0.006591797,0.008869171,0,
00:03.3,0.001150131,-0.006586075,0.008846283,0,
00:03.3,0.001173019,-0.006574631,0.008846283,0,
00:03.3,0.001167297,-0.006603241,0.008846283,0,
00:03.3,0.001144409,-0.00651741,0.008817673,0,
00:03.3,0.001161575,-0.006540298,0.008823395,0,
00:03.3,0.001144409,-0.006574631,0.008840561,0,
00:03.3,0.001155853,-0.006580353,0.008840561,0,
00:03.3,0.001132965,-0.006586075,0.008829117,0,
00:03.3,0.001132965,-0.006586075,0.008840561,0,
00:03.3,0.001138687,-0.006603241,0.008880615,0,
00:03.3,0.001150131,-0.006568909,0.008863449,0,
00:03.3,0.001138687,-0.006586075,0.008846283,0,
00:03.3,0.001144409,-0.006597519,0.008829117,0,
00:03.3,0.001167297,-0.006546021,0.008834839,0,
00:03.3,0.001173019,-0.006534576,0.008829117,0,
00:03.3,0.001138687,-0.006591797,0.008846283,0,
00:03.3,0.001138687,-0.006574631,0.008869171,0,
00:03.3,0.001161575,-0.006546021,0.008846283,0,
00:03.4,0.001150131,-0.006603241,0.008857727,0,
00:03.4,0.001132965,-0.006597519,0.008852005,0,
00:03.4,0.001155853,-0.006568909,0.008823395,0,
00:03.4,0.001167297,-0.006500244,0.008840561,0,
00:03.4,0.001127243,-0.006563187,0.008874893,0,
00:03.4,0.001127243,-0.006620407,0.008874893,0,
00:03.4,0.001144409,-0.006586075,0.008863449,0,
00:03.4,0.001150131,-0.006563187,0.008829117,0,
00:03.4,0.001161575,-0.006540298,0.008846283,0,
00:03.4,0.001144409,-0.006551743,0.008846283,0,
00:03.4,0.001144409,-0.006597519,0.008857727,0,
00:03.4,0.001138687,-0.006580353,0.008840561,0,
00:03.4,0.001150131,-0.006557465,0.008846283,0,
00:03.4,0.001167297,-0.00651741,0.008874893,0,
00:03.4,0.001167297,-0.006557465,0.008880615,0,
00:03.4,0.001173019,-0.006505966,0.008840561,0,
00:03.4,0.001167297,-0.006540298,0.008857727,0,
00:03.4,0.001155853,-0.006591797,0.008852005,0,
00:03.4,0.001138687,-0.006574631,0.008829117,0,
00:03.4,0.001155853,-0.006557465,0.008869171,0,
00:03.4,0.001132965,-0.006586075,0.008869171,0,
00:03.4,0.001138687,-0.006574631,0.008897781,0,
00:03.4,0.001155853,-0.006574631,0.008857727,0,
00:03.4,0.001184464,-0.006563187,0.008834839,0,
00:03.4,0.001138687,-0.006568909,0.008834839,0,
00:03.5,0.001144409,-0.006557465,0.008886337,0,
00:03.5,0.001155853,-0.006546021,0.008903503,0,
00:03.5,0.001138687,-0.006586075,0.008886337,0,
00:03.5,0.001138687,-0.006574631,0.008857727,0,
00:03.5,0.001155853,-0.006563187,0.008869171,0,
00:03.5,0.001161575,-0.006551743,0.008869171,0,
00:03.5,0.001161575,-0.006528854,0.008840561,0,
00:03.5,0.001138687,-0.006568909,0.008829117,0,
00:03.5,0.001144409,-0.006586075,0.008880615,0,
00:03.5,0.001155853,-0.006546021,0.008892059,0,
00:03.5,0.001150131,-0.006557465,0.008874893,0,
00:03.5,0.001150131,-0.006563187,0.008857727,0,
00:03.5,0.001155853,-0.006551743,0.008857727,0,
00:03.5,0.001150131,-0.006580353,0.008863449,0,
00:03.5,0.001167297,-0.006540298,0.008880615,0,
00:03.5,0.001161575,-0.006546021,0.008869171,0,
00:03.5,0.001138687,-0.006580353,0.008869171,0,
00:03.5,0.001144409,-0.006546021,0.008857727,0,
00:03.5,0.001161575,-0.006528854,0.008852005,0,
00:03.5,0.001173019,-0.006540298,0.008886337,0,
00:03.5,0.001173019,-0.006534576,0.008863449,0,
00:03.5,0.001155853,-0.006568909,0.008852005,0,
00:03.5,0.001144409,-0.006528854,0.008863449,0,
00:03.5,0.001161575,-0.006523132,0.008880615,0,
00:03.5,0.001190186,-0.006511688,0.008886337,0,
00:03.6,0.001138687,-0.006603241,0.008886337,0,
00:03.6,0.001121521,-0.006608963,0.008880615,0,
00:03.6,0.001132965,-0.006574631,0.008840561,0,
00:03.6,0.001161575,-0.006557465,0.008857727,0,
00:03.6,0.001161575,-0.006563187,0.008886337,0,
00:03.6,0.001144409,-0.006563187,0.008886337,0,
00:03.6,0.001150131,-0.006551743,0.008886337,0,
00:03.6,0.001155853,-0.006563187,0.008874893,0,
00:03.6,0.001155853,-0.006574631,0.008846283,0,
00:03.6,0.001178741,-0.006500244,0.008857727,0,
00:03.6,0.001161575,-0.00651741,0.008846283,0,
00:03.6,0.001184464,-0.006500244,0.008874893,0,
00:03.6,0.001190186,-0.006505966,0.008874893,0,
00:03.6,0.001138687,-0.006586075,0.008886337,0,
00:03.6,0.001127243,-0.006603241,0.008886337,0,
00:03.6,0.001144409,-0.006574631,0.008897781,0,
00:03.6,0.001155853,-0.006551743,0.008892059,0,
00:03.6,0.001155853,-0.006546021,0.008857727,0,
00:03.6,0.001155853,-0.006546021,0.008880615,0,
00:03.6,0.001161575,-0.006546021,0.008869171,0,
00:03.6,0.001213074,-0.006437302,0.008852005,0,
00:03.6,0.001167297,-0.006540298,0.008857727,0,
00:03.6,0.001127243,-0.006586075,0.008909225,0,
00:03.6,0.001150131,-0.00651741,0.008903503,0,
00:03.6,0.001161575,-0.006534576,0.008863449,0,
00:03.7,0.001150131,-0.006563187,0.008880615,0,
00:03.7,0.001150131,-0.006551743,0.008909225,0,
00:03.7,0.001155853,-0.006557465,0.008897781,0,
00:03.7,0.001161575,-0.006546021,0.008880615,0,
00:03.7,0.001155853,-0.006528854,0.008857727,0,
00:03.7,0.001184464,-0.006511688,0.008863449,0,
00:03.7,0.001173019,-0.006523132,0.008869171,0,
00:03.7,0.001150131,-0.006546021,0.008880615,0,
00:03.7,0.001167297,-0.006500244,0.008892059,0,
00:03.7,0.001150131,-0.006528854,0.008903503,0,
00:03.7,0.001138687,-0.006563187,0.008886337,0,
00:03.7,0.001155853,-0.006534576,0.008874893,0,
00:03.7,0.001155853,-0.006540298,0.008863449,0,
00:03.7,0.001150131,-0.006568909,0.008897781,0,
00:03.7,0.001173019,-0.00651741,0.008903503,0,
00:03.7,0.001167297,-0.0064888,0.008874893,0,
00:03.7,0.001132965,-0.006580353,0.008886337,0,
00:03.7,0.001138687,-0.006568909,0.008897781,0,
00:03.7,0.001161575,-0.006528854,0.008880615,0,
00:03.7,0.001178741,-0.006523132,0.008863449,0,
00:03.7,0.001167297,-0.006534576,0.008857727,0,
00:03.7,0.001173019,-0.006505966,0.008886337,0,
00:03.7,0.001184464,-0.00646019,0.008886337,0,
00:03.7,0.001178741,-0.006483078,0.008892059,0,
00:03.7,0.001115799,-0.006591797,0.008886337,0,
00:03.8,0.001132965,-0.006580353,0.00892067,0,
00:03.8,0.001155853,-0.006534576,0.008892059,0,
00:03.8,0.001161575,-0.00651741,0.008886337,0,
00:03.8,0.001161575,-0.006534576,0.008886337,0,
00:03.8,0.001155853,-0.006563187,0.008886337,0,
00:03.8,0.001173019,-0.0064888,0.008874893,0,
00:03.8,0.001178741,-0.006477356,0.008874893,0,
00:03.8,0.001161575,-0.006505966,0.008897781,0,
00:03.8,0.001161575,-0.006540298,0.008909225,0,
00:03.8,0.001161575,-0.006534576,0.008874893,0,
00:03.8,0.001150131,-0.006528854,0.008874893,0,
00:03.8,0.001167297,-0.006500244,0.00892067,0,
00:03.8,0.001155853,-0.006511688,0.008909225,0,
00:03.8,0.001132965,-0.006586075,0.008903503,0,
00:03.8,0.001150131,-0.006546021,0.008903503,0,
00:03.8,0.001161575,-0.006528854,0.008897781,0,
00:03.8,0.001173019,-0.006557465,0.008892059,0,
00:03.8,0.001161575,-0.006546021,0.008880615,0,
00:03.8,0.001161575,-0.006494522,0.008874893,0,
00:03.8,0.001184464,-0.006448746,0.008886337,0,
00:03.8,0.001167297,-0.006465912,0.008869171,0,
00:03.8,0.001161575,-0.00651741,0.008903503,0,
00:03.8,0.001173019,-0.006511688,0.008914948,0,
00:03.8,0.001190186,-0.006471634,0.008897781,0,
00:03.8,0.001178741,-0.006540298,0.008932114,0,
00:03.9,0.001138687,-0.006591797,0.008914948,0,
00:03.9,0.001121521,-0.006568909,0.008903503,0,
00:03.9,0.001155853,-0.006551743,0.008909225,0,
00:03.9,0.001173019,-0.006477356,0.008897781,0,
00:03.9,0.001173019,-0.006477356,0.008863449,0,
00:03.9,0.001161575,-0.006511688,0.008892059,0,
00:03.9,0.001161575,-0.00651741,0.00892067,0,
00:03.9,0.001184464,-0.006454468,0.00892067,0,
00:03.9,0.001190186,-0.006477356,0.008914948,0,
00:03.9,0.001173019,-0.006500244,0.00892067,0,
00:03.9,0.001155853,-0.006505966,0.008903503,0,
00:03.9,0.001173019,-0.006505966,0.008903503,0,
00:03.9,0.001155853,-0.006540298,0.008914948,0,
00:03.9,0.001150131,-0.006574631,0.008897781,0,
00:03.9,0.001144409,-0.006546021,0.008926392,0,
00:03.9,0.001167297,-0.00651741,0.008926392,0,
00:03.9,0.001184464,-0.006500244,0.00892067,0,
00:03.9,0.001167297,-0.006505966,0.008903503,0,
00:03.9,0.001155853,-0.006500244,0.008892059,0,
00:03.9,0.001167297,-0.006528854,0.008903503,0,
00:03.9,0.00120163,-0.006494522,0.008926392,0,
00:03.9,0.001184464,-0.006477356,0.008914948,0,
00:03.9,0.001155853,-0.0064888,0.008903503,0,
00:03.9,0.001132965,-0.006551743,0.008897781,0,
00:03.9,0.001167297,-0.006528854,0.008903503,0,
00:04.0,0.001150131,-0.006534576,0.008909225,0,
00:04.0,0.001161575,-0.006523132,0.008886337,0,
00:04.0,0.001173019,-0.006494522,0.008897781,0,
00:04.0,0.001184464,-0.006483078,0.008914948,0,
00:04.0,0.001155853,-0.006546021,0.008926392,0,
00:04.0,0.001144409,-0.006546021,0.008914948,0,
00:04.0,0.001150131,-0.006534576,0.008903503,0,
00:04.0,0.001161575,-0.00651741,0.008903503,0,
00:04.0,0.001167297,-0.006511688,0.008874893,0,
00:04.0,0.001155853,-0.006500244,0.008897781,0,
00:04.0,0.001150131,-0.006540298,0.00892067,0,
00:04.0,0.001161575,-0.006540298,0.008926392,0,
00:00:04,0.001161575,-0.006505966,0.008903503,0,
00:04.0,0.001167297,-0.00651741,0.008892059,0,
00:04.0,0.001173019,-0.0064888,0.008897781,0,
00:04.0,0.001178741,-0.006477356,0.008897781,0,
00:04.0,0.001150131,-0.006523132,0.008914948,0,
00:04.0,0.001161575,-0.006528854,0.00892067,0,
00:04.0,0.001190186,-0.006471634,0.00892067,0,
00:04.0,0.001184464,-0.006465912,0.008909225,0,
00:04.0,0.001150131,-0.006523132,0.008903503,0,
00:04.0,0.001144409,-0.006546021,0.008926392,0,
00:04.0,0.001167297,-0.00651741,0.008937836,0,
00:04.0,0.001184464,-0.006471634,0.008914948,0,
00:04.0,0.001155853,-0.006523132,0.008909225,0,
00:04.1,0.001167297,-0.0064888,0.008932114,0,
00:04.1,0.001155853,-0.006511688,0.008914948,0,
00:04.1,0.001150131,-0.006546021,0.008892059,0,
00:04.1,0.001161575,-0.006534576,0.008903503,0,
00:04.1,0.001178741,-0.00646019,0.008886337,0,
00:04.1,0.001178741,-0.006448746,0.008909225,0,
00:04.1,0.001161575,-0.006505966,0.00894928,0,
00:04.1,0.001155853,-0.00651741,0.008926392,0,
00:04.1,0.001161575,-0.0064888,0.008903503,0,
00:04.1,0.001167297,-0.006500244,0.008932114,0,
00:04.1,0.001161575,-0.00651741,0.008926392,0,
00:04.1,0.001167297,-0.00651741,0.008909225,0,
00:04.1,0.001167297,-0.006494522,0.008903503,0,
00:04.1,0.001155853,-0.006505966,0.008909225,0,
00:04.1,0.001150131,-0.006523132,0.008937836,0,
00:04.1,0.001155853,-0.006505966,0.008914948,0,
00:04.1,0.001161575,-0.006511688,0.008926392,0,
00:04.1,0.001150131,-0.006528854,0.00892067,0,
00:04.1,0.001161575,-0.006483078,0.008926392,0,
00:04.1,0.001173019,-0.006477356,0.008909225,0,
00:04.1,0.001178741,-0.006471634,0.008909225,0,
00:04.1,0.001190186,-0.006465912,0.008932114,0,
00:04.1,0.001150131,-0.006546021,0.00892067,0,
00:04.1,0.001132965,-0.006551743,0.00892067,0,
00:04.1,0.001144409,-0.006523132,0.008914948,0,
00:04.2,0.001155853,-0.006471634,0.00894928,0,
00:04.2,0.001155853,-0.006500244,0.008937836,0,
00:04.2,0.001155853,-0.006511688,0.00892067,0,
00:04.2,0.001155853,-0.0064888,0.008937836,0,
00:04.2,0.001178741,-0.006454468,0.008943558,0,
00:04.2,0.001150131,-0.006505966,0.008932114,0,
00:04.2,0.001155853,-0.006500244,0.008869171,0,
00:04.2,0.001167297,-0.0064888,0.008880615,0,
00:04.2,0.001161575,-0.006477356,0.008926392,0,
00:04.2,0.001155853,-0.006500244,0.008955002,0,
00:04.2,0.001161575,-0.006500244,0.00897789,0,
00:04.2,0.001167297,-0.006505966,0.008937836,0,
00:04.2,0.001161575,-0.006483078,0.008943558,0,
00:04.2,0.001155853,-0.006494522,0.008932114,0,
00:04.2,0.001150131,-0.006500244,0.008914948,0,
00:04.2,0.001127243,-0.006546021,0.008943558,0,
00:04.2,0.001161575,-0.006483078,0.008943558,0,
00:04.2,0.001155853,-0.006477356,0.008955002,0,
00:04.2,0.001132965,-0.00651741,0.008943558,0,
00:04.2,0.001138687,-0.006511688,0.008926392,0,
00:04.2,0.001150131,-0.006505966,0.00894928,0,
00:04.2,0.001150131,-0.006494522,0.008926392,0,
00:04.2,0.001144409,-0.006511688,0.008932114,0,
00:04.2,0.001167297,-0.00646019,0.008943558,0,
00:04.2,0.001161575,-0.006465912,0.008937836,0,
00:04.3,0.001178741,-0.006437302,0.00894928,0,
00:04.3,0.001184464,-0.006425858,0.008926392,0,
00:04.3,0.001132965,-0.006511688,0.008926392,0,
00:04.3,0.001121521,-0.006551743,0.008960724,0,
00:04.3,0.001144409,-0.00651741,0.008932114,0,
00:04.3,0.001155853,-0.0064888,0.008943558,0,
00:04.3,0.001155853,-0.006505966,0.008937836,0,
00:04.3,0.001155853,-0.006477356,0.008937836,0,
00:04.3,0.001150131,-0.006471634,0.008932114,0,
00:04.3,0.001178741,-0.00646019,0.008937836,0,
00:04.3,0.001173019,-0.006471634,0.008960724,0,
00:04.3,0.001138687,-0.006511688,0.008926392,0,
00:04.3,0.001150131,-0.006494522,0.008886337,0,
00:04.3,0.001144409,-0.006494522,0.00894928,0,
00:04.3,0.001155853,-0.006500244,0.008983612,0,
00:04.3,0.001155853,-0.0064888,0.008960724,0,
00:04.3,0.001132965,-0.00651741,0.008955002,0,
00:04.3,0.001144409,-0.0064888,0.008943558,0,
00:04.3,0.001161575,-0.006477356,0.008937836,0,
00:04.3,0.001173019,-0.006425858,0.008926392,0,
00:04.3,0.001150131,-0.0064888,0.00894928,0,
00:04.3,0.001138687,-0.006546021,0.00894928,0,
00:04.3,0.001167297,-0.00646019,0.008943558,0,
00:04.3,0.001161575,-0.00646019,0.008926392,0,
00:04.3,0.001144409,-0.006477356,0.008937836,0,
00:04.4,0.001144409,-0.006511688,0.008955002,0,
00:04.4,0.001150131,-0.00651741,0.008937836,0,
00:04.4,0.001155853,-0.0064888,0.008937836,0,
00:04.4,0.001138687,-0.00651741,0.008943558,0,
00:04.4,0.001150131,-0.0064888,0.008937836,0,
00:04.4,0.001161575,-0.006465912,0.008960724,0,
00:04.4,0.001155853,-0.006505966,0.008955002,0,
00:04.4,0.001190186,-0.006443024,0.00894928,0,
00:04.4,0.00120163,-0.006380081,0.00892067,0,
00:04.4,0.001167297,-0.00643158,0.008926392,0,
00:04.4,0.001132965,-0.006523132,0.008955002,0,
00:04.4,0.001121521,-0.00651741,0.008937836,0,
00:04.4,0.001144409,-0.006500244,0.00894928,0,
00:04.4,0.001150131,-0.006477356,0.008989334,0,
00:04.4,0.001138687,-0.006500244,0.008972168,0,
00:04.4,0.001144409,-0.006523132,0.008972168,0,
00:04.4,0.001144409,-0.006505966,0.008960724,0,
00:04.4,0.001155853,-0.006477356,0.008932114,0,
00:04.4,0.001150131,-0.006471634,0.008955002,0,
00:04.4,0.001161575,-0.006448746,0.008937836,0,
00:04.4,0.001167297,-0.006454468,0.008943558,0,
00:04.4,0.001161575,-0.00646019,0.008960724,0,
00:04.4,0.001167297,-0.006414413,0.008960724,0,
00:04.4,0.001138687,-0.006511688,0.008955002,0,
00:04.4,0.001150131,-0.00651741,0.008972168,0,
00:04.5,0.001161575,-0.006483078,0.008955002,0,
00:04.5,0.001150131,-0.00646019,0.008926392,0,
00:04.5,0.001138687,-0.006494522,0.008960724,0,
00:04.5,0.001138687,-0.006494522,0.008966446,0,
00:04.5,0.001144409,-0.006494522,0.008955002,0,
00:04.5,0.001138687,-0.006511688,0.008972168,0,
00:04.5,0.001144409,-0.006494522,0.008966446,0,
00:04.5,0.001150131,-0.006505966,0.00894928,0,
00:04.5,0.001150131,-0.006505966,0.00894928,0,
00:04.5,0.001155853,-0.00646019,0.008955002,0,
00:04.5,0.001178741,-0.006391525,0.008937836,0,
00:04.5,0.001190186,-0.006380081,0.008955002,0,
00:04.5,0.001161575,-0.00643158,0.008955002,0,
00:04.5,0.001132965,-0.006505966,0.008926392,0,
00:04.5,0.001138687,-0.006494522,0.008960724,0,
00:04.5,0.001138687,-0.006483078,0.00897789,0,
00:04.5,0.001155853,-0.006471634,0.008960724,0,
00:04.5,0.001138687,-0.006465912,0.008989334,0,
00:04.5,0.001127243,-0.006500244,0.008995056,0,
00:04.5,0.001138687,-0.006454468,0.008960724,0,
00:04.5,0.001161575,-0.006465912,0.008955002,0,
00:04.5,0.001144409,-0.006465912,0.008983612,0,
00:04.5,0.001115799,-0.006471634,0.008972168,0,
00:04.5,0.001104355,-0.00651741,0.008926392,0,
00:04.5,0.001127243,-0.006511688,0.008966446,0,
00:04.6,0.001127243,-0.0064888,0.008989334,0,
00:04.6,0.001127243,-0.006471634,0.008955002,0,
00:04.6,0.001121521,-0.0064888,0.008943558,0,
00:04.6,0.001138687,-0.00646019,0.008960724,0,
00:04.6,0.001155853,-0.00643158,0.00897789,0,
00:04.6,0.001138687,-0.006465912,0.008955002,0,
00:04.6,0.001127243,-0.006465912,0.008966446,0,
00:04.6,0.001132965,-0.006448746,0.008960724,0,
00:04.6,0.001155853,-0.006425858,0.00894928,0,
00:04.6,0.001167297,-0.006437302,0.00897789,0,
00:04.6,0.001138687,-0.006500244,0.008995056,0,
00:04.6,0.001104355,-0.006523132,0.008960724,0,
00:04.6,0.001110077,-0.00651741,0.008972168,0,
00:04.6,0.001132965,-0.006448746,0.008989334,0,
00:04.6,0.001138687,-0.00646019,0.009000778,0,
00:04.6,0.001127243,-0.006471634,0.00897789,0,
00:04.6,0.001127243,-0.006483078,0.008960724,0,
00:04.6,0.001138687,-0.006437302,0.008972168,0,
00:04.6,0.001144409,-0.00643158,0.00897789,0,
00:04.6,0.001127243,-0.006500244,0.008960724,0,
00:04.6,0.001132965,-0.006454468,0.00894928,0,
00:04.6,0.001138687,-0.006448746,0.008972168,0,
00:04.6,0.001138687,-0.006500244,0.008966446,0,
00:04.6,0.001127243,-0.0064888,0.008983612,0,
00:04.6,0.001121521,-0.006454468,0.008989334,0,
00:04.7,0.001121521,-0.006454468,0.008983612,0,
00:04.7,0.001155853,-0.006437302,0.008983612,0,
00:04.7,0.001132965,-0.006477356,0.008983612,0,
00:04.7,0.001115799,-0.0064888,0.00897789,0,
00:04.7,0.001127243,-0.006437302,0.008989334,0,
00:04.7,0.001121521,-0.006471634,0.00894928,0,
00:04.7,0.001138687,-0.006471634,0.008983612,0,
00:04.7,0.001121521,-0.0064888,0.008989334,0,
00:04.7,0.001121521,-0.006471634,0.008972168,0,
00:04.7,0.001144409,-0.006414413,0.008989334,0,
00:04.7,0.001127243,-0.006465912,0.008983612,0,
00:04.7,0.001127243,-0.006494522,0.00897789,0,
00:04.7,0.001127243,-0.006454468,0.00897789,0,
00:04.7,0.001121521,-0.006494522,0.008983612,0,
00:04.7,0.001127243,-0.006465912,0.008983612,0,
00:04.7,0.001144409,-0.006408691,0.008983612,0,
00:04.7,0.001127243,-0.006477356,0.008983612,0,
00:04.7,0.001115799,-0.006511688,0.008972168,0,
00:04.7,0.001127243,-0.006505966,0.008966446,0,
00:04.7,0.001127243,-0.006437302,0.008972168,0,
00:04.7,0.001132965,-0.006425858,0.008989334,0,
00:04.7,0.001138687,-0.006437302,0.008983612,0,
00:04.7,0.001138687,-0.00646019,0.00897789,0,
00:04.7,0.001115799,-0.006483078,0.009000778,0,
00:04.7,0.001127243,-0.0064888,0.008983612,0,
00:04.8,0.001144409,-0.006443024,0.008972168,0,
00:04.8,0.001127243,-0.006443024,0.00897789,0,
00:04.8,0.001138687,-0.006425858,0.008989334,0,
00:04.8,0.001115799,-0.006471634,0.008972168,0,
00:04.8,0.001132965,-0.006477356,0.009012222,0,
00:04.8,0.001155853,-0.00643158,0.0090065,0,
00:04.8,0.001132965,-0.006454468,0.008995056,0,
00:04.8,0.001104355,-0.0064888,0.008955002,0,
00:04.8,0.001121521,-0.0064888,0.008989334,0,
00:04.8,0.001150131,-0.006425858,0.009000778,0,
00:04.8,0.001150131,-0.006420135,0.0090065,0,
00:04.8,0.001115799,-0.006500244,0.008972168,0,
00:04.8,0.001115799,-0.006505966,0.008983612,0,
00:04.8,0.001121521,-0.006465912,0.009000778,0,
00:04.8,0.001121521,-0.00646019,0.009017944,0,
00:04.8,0.001132965,-0.006448746,0.008989334,0,
00:04.8,0.001138687,-0.00646019,0.008995056,0,
00:04.8,0.001121521,-0.006505966,0.0090065,0,
00:04.8,0.001121521,-0.0064888,0.008995056,0,
00:04.8,0.001132965,-0.006420135,0.00897789,0,
00:04.8,0.001150131,-0.006402969,0.00897789,0,
00:04.8,0.001138687,-0.006443024,0.009012222,0,
00:04.8,0.001127243,-0.00646019,0.009000778,0,
00:04.8,0.001132965,-0.006443024,0.008972168,0,
00:04.8,0.001144409,-0.006448746,0.008966446,0,
00:04.9,0.001144409,-0.006425858,0.009012222,0,
00:04.9,0.001127243,-0.006477356,0.009017944,0,
00:04.9,0.001138687,-0.00646019,0.0090065,0,
00:04.9,0.001138687,-0.006448746,0.0090065,0,
00:04.9,0.001138687,-0.006494522,0.009023666,0,
00:04.9,0.001127243,-0.006483078,0.008989334,0,
00:04.9,0.001132965,-0.006437302,0.008995056,0,
00:04.9,0.001155853,-0.006380081,0.009023666,0,
00:04.9,0.001155853,-0.006425858,0.0090065,0,
00:04.9,0.001138687,-0.006448746,0.008983612,0,
00:04.9,0.001121521,-0.006523132,0.00903511,0,
00:04.9,0.001121521,-0.006500244,0.009012222,0,
00:04.9,0.001110077,-0.006500244,0.0090065,0,
00:04.9,0.001127243,-0.006448746,0.009017944,0,
00:04.9,0.001138687,-0.006425858,0.009000778,0,
00:04.9,0.001144409,-0.006437302,0.008995056,0,
00:04.9,0.001155853,-0.006420135,0.008995056,0,
00:04.9,0.001144409,-0.006448746,0.009000778,0,
00:04.9,0.001150131,-0.006443024,0.009017944,0,
00:04.9,0.001138687,-0.006443024,0.008995056,0,
00:04.9,0.001127243,-0.006477356,0.009029388,0,
00:04.9,0.001132965,-0.006443024,0.009029388,0,
00:04.9,0.001121521,-0.006471634,0.008995056,0,
00:04.9,0.001127243,-0.0064888,0.008966446,0,
00:04.9,0.001144409,-0.00646019,0.008972168,0,
00:05.0,0.001138687,-0.006443024,0.009012222,0,
00:05.0,0.001144409,-0.006420135,0.009023666,0,
00:05.0,0.001132965,-0.00643158,0.009012222,0,
00:05.0,0.001115799,-0.006471634,0.009012222,0,
00:05.0,0.001138687,-0.006454468,0.009029388,0,
00:05.0,0.001150131,-0.006483078,0.009023666,0,
00:05.0,0.001138687,-0.006465912,0.009017944,0,
00:05.0,0.001115799,-0.006465912,0.0090065,0,
00:05.0,0.001132965,-0.006402969,0.0090065,0,
00:05.0,0.001127243,-0.006483078,0.009029388,0,
00:05.0,0.001127243,-0.00646019,0.009012222,0,
00:05.0,0.001161575,-0.006408691,0.008995056,0,
00:00:05,0.001150131,-0.006402969,0.00897789,0,
00:05.0,0.001121521,-0.006454468,0.009023666,0,
00:05.0,0.001132965,-0.006465912,0.009052277,0,
00:05.0,0.001110077,-0.006494522,0.009029388,0,
00:05.0,0.001110077,-0.006483078,0.009029388,0,
00:05.0,0.001121521,-0.006465912,0.009012222,0,
00:05.0,0.001138687,-0.006414413,0.009012222,0,
00:05.0,0.001155853,-0.006402969,0.009012222,0,
00:05.0,0.001115799,-0.006454468,0.0090065,0,
00:05.0,0.001127243,-0.00643158,0.009023666,0,
00:05.0,0.001127243,-0.006471634,0.009017944,0,
00:05.0,0.001138687,-0.006448746,0.009029388,0,
00:05.0,0.001115799,-0.006477356,0.009000778,0,
00:05.1,0.001132965,-0.00646019,0.0090065,0,
00:05.1,0.001138687,-0.00646019,0.008995056,0,
00:05.1,0.001184464,-0.006385803,0.009017944,0,
00:05.1,0.001144409,-0.006414413,0.009029388,0,
00:05.1,0.001098633,-0.006471634,0.009052277,0,
00:05.1,0.001104355,-0.006494522,0.009040833,0,
00:05.1,0.001127243,-0.006443024,0.009023666,0,
00:05.1,0.001132965,-0.006408691,0.00903511,0,
00:05.1,0.001132965,-0.00643158,0.009052277,0,
00:05.1,0.001121521,-0.006471634,0.00903511,0,
00:05.1,0.001127243,-0.006454468,0.009017944,0,
00:05.1,0.001167297,-0.006397247,0.009029388,0,
00:05.1,0.001167297,-0.006385803,0.009017944,0,
00:05.1,0.001121521,-0.006448746,0.0090065,0,
00:05.1,0.001087189,-0.006505966,0.009040833,0,
00:05.1,0.001110077,-0.00646019,0.009052277,0,
00:05.1,0.001132965,-0.006414413,0.009052277,0,
00:05.1,0.001110077,-0.006483078,0.009046555,0,
00:05.1,0.001104355,-0.006454468,0.009023666,0,
00:05.1,0.001121521,-0.006477356,0.0090065,0,
00:05.1,0.001127243,-0.006477356,0.009017944,0,
00:05.1,0.001127243,-0.006425858,0.009040833,0,
00:05.1,0.001121521,-0.00643158,0.009046555,0,
00:05.1,0.001115799,-0.006448746,0.009017944,0,
00:05.1,0.001121521,-0.006437302,0.0090065,0,
00:05.2,0.001115799,-0.006454468,0.009017944,0,
00:05.2,0.001132965,-0.00643158,0.009046555,0,
00:05.2,0.001132965,-0.006425858,0.009023666,0,
00:05.2,0.001138687,-0.006420135,0.009052277,0,
00:05.2,0.001132965,-0.006420135,0.009057999,0,
00:05.2,0.001121521,-0.006437302,0.009029388,0,
00:05.2,0.001115799,-0.006454468,0.009057999,0,
00:05.2,0.001121521,-0.006448746,0.009023666,0,
00:05.2,0.001115799,-0.0064888,0.009012222,0,
00:05.2,0.001138687,-0.006420135,0.009029388,0,
00:05.2,0.001127243,-0.006425858,0.009040833,0,
00:05.2,0.001121521,-0.006443024,0.009029388,0,
00:05.2,0.001127243,-0.006437302,0.00903511,0,
00:05.2,0.001155853,-0.006368637,0.009023666,0,
00:05.2,0.001115799,-0.006448746,0.009023666,0,
00:05.2,0.001104355,-0.006483078,0.009063721,0,
00:05.2,0.001132965,-0.006408691,0.009069443,0,
00:05.2,0.001098633,-0.0064888,0.00903511,0,
00:05.2,0.001110077,-0.0064888,0.009023666,0,
00:05.2,0.001132965,-0.006414413,0.009040833,0,
00:05.2,0.001104355,-0.006443024,0.009040833,0,
00:05.2,0.001104355,-0.00646019,0.00903511,0,
00:05.2,0.001115799,-0.006437302,0.009063721,0,
00:05.2,0.001115799,-0.006425858,0.009046555,0,
00:05.2,0.001115799,-0.00643158,0.00903511,0,
00:05.3,0.001127243,-0.006437302,0.009057999,0,
00:05.3,0.001138687,-0.00643158,0.009046555,0,
00:05.3,0.001121521,-0.006454468,0.009029388,0,
00:05.3,0.001115799,-0.006437302,0.009040833,0,
00:05.3,0.001104355,-0.00646019,0.009040833,0,
00:05.3,0.001110077,-0.006443024,0.009052277,0,
00:05.3,0.001121521,-0.00646019,0.00903511,0,
00:05.3,0.001121521,-0.00643158,0.009029388,0,
00:05.3,0.001110077,-0.006437302,0.00903511,0,
00:05.3,0.001104355,-0.006420135,0.009040833,0,
00:05.3,0.001127243,-0.006437302,0.009040833,0,
00:05.3,0.001127243,-0.006414413,0.009052277,0,
00:05.3,0.001104355,-0.006437302,0.009069443,0,
00:05.3,0.001098633,-0.00643158,0.0090065,0,
00:05.3,0.001104355,-0.006448746,0.009046555,0,
00:05.3,0.001110077,-0.006471634,0.009063721,0,
00:05.3,0.001098633,-0.006477356,0.009052277,0,
00:05.3,0.001098633,-0.006454468,0.009040833,0,
00:05.3,0.001132965,-0.006385803,0.00903511,0,
00:05.3,0.001150131,-0.006357193,0.009057999,0,
00:05.3,0.001081467,-0.0064888,0.009046555,0,
00:05.3,0.001092911,-0.00646019,0.009057999,0,
00:05.3,0.001104355,-0.00646019,0.009040833,0,
00:05.3,0.001110077,-0.006443024,0.009023666,0,
00:05.3,0.001115799,-0.006420135,0.009052277,0,
00:05.4,0.001081467,-0.00646019,0.009069443,0,
00:05.4,0.001087189,-0.006471634,0.009069443,0,
00:05.4,0.001104355,-0.006465912,0.009052277,0,
00:05.4,0.001127243,-0.006420135,0.009046555,0,
00:05.4,0.001110077,-0.006437302,0.009069443,0,
00:05.4,0.001087189,-0.006448746,0.009057999,0,
00:05.4,0.001104355,-0.006408691,0.009052277,0,
00:05.4,0.001110077,-0.006448746,0.009040833,0,
00:05.4,0.001110077,-0.006494522,0.009040833,0,
00:05.4,0.001070023,-0.006465912,0.009046555,0,
00:05.4,0.001075745,-0.006454468,0.009075165,0,
00:05.4,0.001098633,-0.006448746,0.009063721,0,
00:05.4,0.001092911,-0.006465912,0.009029388,0,
00:05.4,0.001092911,-0.006454468,0.00903511,0,
00:05.4,0.001092911,-0.00646019,0.009075165,0,
00:05.4,0.001098633,-0.00643158,0.009063721,0,
00:05.4,0.001075745,-0.006483078,0.009057999,0,
00:05.4,0.001087189,-0.006420135,0.009052277,0,
00:05.4,0.001098633,-0.006443024,0.009040833,0,
00:05.4,0.001092911,-0.006465912,0.009046555,0,
00:05.4,0.001098633,-0.006448746,0.009040833,0,
00:05.4,0.001081467,-0.00646019,0.009052277,0,
00:05.4,0.001092911,-0.006437302,0.009052277,0,
00:05.4,0.001075745,-0.00646019,0.009069443,0,
00:05.4,0.001087189,-0.006443024,0.009069443,0,
00:05.5,0.001098633,-0.00643158,0.009098053,0,
00:05.5,0.001098633,-0.006443024,0.009069443,0,
00:05.5,0.001087189,-0.006443024,0.009052277,0,
00:05.5,0.001064301,-0.006494522,0.009063721,0,
00:05.5,0.001081467,-0.006465912,0.009057999,0,
00:05.5,0.001075745,-0.0064888,0.009052277,0,
00:05.5,0.001081467,-0.006465912,0.009069443,0,
00:05.5,0.001087189,-0.006483078,0.009063721,0,
00:05.5,0.001081467,-0.0064888,0.009063721,0,
00:05.5,0.001087189,-0.0064888,0.009052277,0,
00:05.5,0.001087189,-0.006448746,0.009029388,0,
00:05.5,0.001081467,-0.006454468,0.009052277,0,
00:05.5,0.001087189,-0.006471634,0.009092331,0,
00:05.5,0.001092911,-0.006443024,0.009063721,0,
00:05.5,0.001075745,-0.006494522,0.009046555,0,
00:05.5,0.001070023,-0.006505966,0.009080887,0,
00:05.5,0.001092911,-0.006454468,0.00903511,0,
00:05.5,0.001121521,-0.006391525,0.009046555,0,
00:05.5,0.001064301,-0.006471634,0.009080887,0,
00:05.5,0.001052856,-0.006511688,0.009069443,0,
00:05.5,0.001075745,-0.0064888,0.009069443,0,
00:05.5,0.001075745,-0.006477356,0.009063721,0,
00:05.5,0.001081467,-0.006448746,0.009063721,0,
00:05.5,0.001081467,-0.006454468,0.009063721,0,
00:05.5,0.001081467,-0.00646019,0.009052277,0,
00:05.6,0.001070023,-0.006500244,0.009063721,0,
00:05.6,0.001052856,-0.006528854,0.009069443,0,
00:05.6,0.001064301,-0.006505966,0.009092331,0,
00:05.6,0.001075745,-0.006477356,0.009080887,0,
00:05.6,0.001081467,-0.006477356,0.009063721,0,
00:05.6,0.001087189,-0.006477356,0.009063721,0,
00:05.6,0.001075745,-0.006505966,0.009080887,0,
00:05.6,0.001081467,-0.006505966,0.009080887,0,
00:05.6,0.001070023,-0.0064888,0.009040833,0,
00:05.6,0.001075745,-0.006443024,0.009040833,0,
00:05.6,0.001087189,-0.006471634,0.009075165,0,
00:05.6,0.001064301,-0.006540298,0.009069443,0,
00:05.6,0.001052856,-0.006523132,0.009069443,0,
00:05.6,0.001070023,-0.006494522,0.009086609,0,
00:05.6,0.001075745,-0.00651741,0.009057999,0,
00:05.6,0.001081467,-0.0064888,0.009057999,0,
00:05.6,0.001075745,-0.006465912,0.009098053,0,
00:05.6,0.001064301,-0.006546021,0.009069443,0,
00:05.6,0.001064301,-0.006534576,0.009069443,0,
00:05.6,0.001075745,-0.006500244,0.009069443,0,
00:05.6,0.001098633,-0.006500244,0.009092331,0,
00:05.6,0.001064301,-0.006563187,0.009080887,0,
00:05.6,0.001075745,-0.006505966,0.009063721,0,
00:05.6,0.001070023,-0.00651741,0.009052277,0,
00:05.6,0.001081467,-0.006505966,0.009052277,0,
00:05.7,0.001110077,-0.006477356,0.009075165,0,
00:05.7,0.001075745,-0.006505966,0.009040833,0,
00:05.7,0.001064301,-0.006511688,0.009069443,0,
00:05.7,0.001058578,-0.006528854,0.009075165,0,
00:05.7,0.001075745,-0.00651741,0.009086609,0,
00:05.7,0.001087189,-0.006523132,0.009080887,0,
00:05.7,0.001064301,-0.006580353,0.009092331,0,
00:05.7,0.001070023,-0.006546021,0.009057999,0,
00:05.7,0.001075745,-0.006500244,0.009052277,0,
00:05.7,0.001075745,-0.006500244,0.009057999,0,
00:05.7,0.001064301,-0.006534576,0.009069443,0,
00:05.7,0.001075745,-0.006540298,0.009069443,0,
00:05.7,0.001098633,-0.006528854,0.009063721,0,
00:05.7,0.001081467,-0.006546021,0.009046555,0,
00:05.7,0.001064301,-0.006546021,0.009057999,0,
00:05.7,0.001081467,-0.006540298,0.009057999,0,
00:05.7,0.001104355,-0.006505966,0.009063721,0,
00:05.7,0.001075745,-0.006563187,0.009080887,0,
00:05.7,0.001041412,-0.006568909,0.009080887,0,
00:05.7,0.001052856,-0.006568909,0.009057999,0,
00:05.7,0.001070023,-0.006551743,0.009052277,0,
00:05.7,0.001070023,-0.006568909,0.009069443,0,
00:05.7,0.001075745,-0.006557465,0.009103775,0,
00:05.7,0.001075745,-0.006528854,0.009086609,0,
00:05.7,0.001058578,-0.006586075,0.009069443,0,
00:05.8,0.001064301,-0.006574631,0.009075165,0,
00:05.8,0.001075745,-0.006551743,0.009069443,0,
00:05.8,0.001087189,-0.006528854,0.00903511,0,
00:05.8,0.001070023,-0.006580353,0.009075165,0,
00:05.8,0.001064301,-0.006580353,0.009075165,0,
00:05.8,0.001075745,-0.006568909,0.009069443,0,
00:05.8,0.001064301,-0.006586075,0.009069443,0,
00:05.8,0.001075745,-0.006563187,0.009046555,0,
00:05.8,0.001098633,-0.006546021,0.009052277,0,
00:05.8,0.001092911,-0.006563187,0.009046555,0,
00:05.8,0.001070023,-0.006603241,0.009086609,0,
00:05.8,0.001064301,-0.006608963,0.009086609,0,
00:05.8,0.001070023,-0.006586075,0.009063721,0,
00:05.8,0.001087189,-0.006563187,0.009063721,0,
00:05.8,0.001081467,-0.006574631,0.009069443,0,
00:05.8,0.001075745,-0.006580353,0.009069443,0,
00:05.8,0.001092911,-0.006563187,0.009063721,0,
00:05.8,0.001075745,-0.006608963,0.009052277,0,
00:05.8,0.001081467,-0.006586075,0.009057999,0,
00:05.8,0.001098633,-0.006551743,0.009063721,0,
00:05.8,0.001104355,-0.006580353,0.009052277,0,
00:05.8,0.001092911,-0.006591797,0.009069443,0,
00:05.8,0.001081467,-0.006620407,0.009086609,0,
00:05.8,0.001110077,-0.006574631,0.009069443,0,
00:05.8,0.001075745,-0.006591797,0.009040833,0,
00:05.9,0.001081467,-0.006614685,0.009063721,0,
00:05.9,0.001092911,-0.006603241,0.009069443,0,
00:05.9,0.001098633,-0.006586075,0.009052277,0,
00:05.9,0.001104355,-0.006580353,0.009052277,0,
00:05.9,0.001127243,-0.006574631,0.009052277,0,
00:05.9,0.001127243,-0.006551743,0.009057999,0,
00:05.9,0.001115799,-0.006563187,0.009052277,0,
00:05.9,0.001104355,-0.006608963,0.009046555,0,
00:05.9,0.001092911,-0.006637573,0.009057999,0,
00:05.9,0.001121521,-0.006620407,0.009063721,0,
00:05.9,0.001115799,-0.006591797,0.009052277,0,
00:05.9,0.001121521,-0.006580353,0.00903511,0,
00:05.9,0.001132965,-0.006591797,0.009046555,0,
00:05.9,0.001144409,-0.006580353,0.009052277,0,
00:05.9,0.001127243,-0.006614685,0.009040833,0,
00:05.9,0.001115799,-0.006614685,0.009080887,0,
00:05.9,0.001132965,-0.006574631,0.009052277,0,
00:05.9,0.001138687,-0.006591797,0.0090065,0,
00:05.9,0.001127243,-0.006597519,0.009063721,0,
00:05.9,0.001144409,-0.006620407,0.009098053,0,
00:05.9,0.001121521,-0.006660461,0.009063721,0,
00:05.9,0.001132965,-0.006620407,0.009040833,0,
00:05.9,0.001144409,-0.006580353,0.009052277,0,
00:05.9,0.001138687,-0.006608963,0.009069443,0,
00:05.9,0.001138687,-0.006591797,0.009040833,0,
00:06.0,0.001155853,-0.006568909,0.009040833,0,
00:06.0,0.001138687,-0.006654739,0.009063721,0,
00:06.0,0.001138687,-0.006608963,0.009029388,0,
00:06.0,0.001161575,-0.006586075,0.009029388,0,
00:06.0,0.001167297,-0.006608963,0.009052277,0,
00:06.0,0.001161575,-0.006631851,0.009023666,0,
00:06.0,0.001155853,-0.006637573,0.009052277,0,
00:06.0,0.001190186,-0.006557465,0.009080887,0,
00:06.0,0.001161575,-0.006637573,0.009023666,0,
00:06.0,0.001161575,-0.006637573,0.009052277,0,
00:06.0,0.001190186,-0.006580353,0.009063721,0,
00:06.0,0.001184464,-0.006603241,0.009063721,0,
00:00:06,0.001184464,-0.006637573,0.009023666,0,
00:06.0,0.001178741,-0.006666183,0.009017944,0,
00:06.0,0.001184464,-0.006626129,0.009040833,0,
00:06.0,0.001207352,-0.006597519,0.00903511,0,
00:06.0,0.001195908,-0.006631851,0.009040833,0,
00:06.0,0.001190186,-0.006649017,0.009052277,0,
00:06.0,0.001235962,-0.006568909,0.009029388,0,
00:06.0,0.00123024,-0.006586075,0.009046555,0,
00:06.0,0.001190186,-0.006660461,0.009052277,0,
00:06.0,0.001195908,-0.006671906,0.009063721,0,
00:06.0,0.001224518,-0.006631851,0.009052277,0,
00:06.0,0.00123024,-0.006626129,0.009029388,0,
00:06.0,0.001264572,-0.006586075,0.009057999,0,
00:06.1,0.001241684,-0.006614685,0.009057999,0,
00:06.1,0.00123024,-0.006649017,0.009052277,0,
00:06.1,0.001235962,-0.006666183,0.009012222,0,
00:06.1,0.001241684,-0.006637573,0.009017944,0,
00:06.1,0.001253128,-0.006643295,0.009040833,0,
00:06.1,0.001253128,-0.006666183,0.00903511,0,
00:06.1,0.001276016,-0.006603241,0.009052277,0,
00:06.1,0.00125885,-0.006637573,0.009046555,0,
00:06.1,0.001270294,-0.006631851,0.009057999,0,
00:06.1,0.001281738,-0.006620407,0.009040833,0,
00:06.1,0.00128746,-0.006643295,0.009040833,0,
00:06.1,0.001304626,-0.006597519,0.009040833,0,
00:06.1,0.001298904,-0.006614685,0.009017944,0,
00:06.1,0.001298904,-0.006649017,0.00903511,0,
00:06.1,0.001310349,-0.006620407,0.009040833,0,
00:06.1,0.001327515,-0.006580353,0.009046555,0,
00:06.1,0.001327515,-0.006597519,0.009040833,0,
00:06.1,0.001316071,-0.006626129,0.009040833,0,
00:06.1,0.001321793,-0.006637573,0.009052277,0,
00:06.1,0.001321793,-0.006631851,0.009080887,0,
00:06.1,0.001338959,-0.006614685,0.009052277,0,
00:06.1,0.001344681,-0.006643295,0.009040833,0,
00:06.1,0.001333237,-0.006637573,0.00903511,0,
00:06.1,0.001350403,-0.006626129,0.009075165,0,
00:06.1,0.001333237,-0.006660461,0.009057999,0,
00:06.2,0.001344681,-0.006649017,0.009052277,0,
00:06.2,0.001367569,-0.006620407,0.009040833,0,
00:06.2,0.001379013,-0.006614685,0.009046555,0,
00:06.2,0.001373291,-0.006649017,0.009040833,0,
00:06.2,0.001367569,-0.006637573,0.009029388,0,
00:06.2,0.001361847,-0.006643295,0.009057999,0,
00:06.2,0.001379013,-0.006660461,0.009080887,0,
00:06.2,0.001396179,-0.006637573,0.009046555,0,
00:06.2,0.001413345,-0.006603241,0.009075165,0,
00:06.2,0.001407623,-0.006597519,0.00903511,0,
00:06.2,0.001396179,-0.006631851,0.009063721,0,
00:06.2,0.001390457,-0.006626129,0.009063721,0,
00:06.2,0.001419067,-0.006608963,0.009057999,0,
00:06.2,0.001436234,-0.006586075,0.009057999,0,
00:06.2,0.001424789,-0.006620407,0.009080887,0,
00:06.2,0.001464844,-0.006568909,0.009080887,0,
00:06.2,0.001436234,-0.006637573,0.009080887,0,
00:06.2,0.001401901,-0.006631851,0.009063721,0,
00:06.2,0.001424789,-0.006637573,0.009086609,0,
00:06.2,0.0014534,-0.006643295,0.009063721,0,
00:06.2,0.001459122,-0.006580353,0.009046555,0,
00:06.2,0.001441956,-0.006608963,0.009075165,0,
00:06.2,0.001459122,-0.006631851,0.009092331,0,
00:06.2,0.0014534,-0.006603241,0.009080887,0,
00:06.2,0.001464844,-0.006626129,0.009069443,0,
00:06.3,0.001470566,-0.006654739,0.009098053,0,
00:06.3,0.001476288,-0.006608963,0.009086609,0,
00:06.3,0.001470566,-0.006608963,0.009086609,0,
00:06.3,0.001487732,-0.006597519,0.009086609,0,
00:06.3,0.00151062,-0.006568909,0.009057999,0,
00:06.3,0.001522064,-0.006580353,0.009069443,0,
00:06.3,0.001487732,-0.006620407,0.009063721,0,
00:06.3,0.001493454,-0.006631851,0.009092331,0,
00:06.3,0.00151062,-0.006557465,0.009115219,0,
00:06.3,0.001527786,-0.006557465,0.009098053,0,
00:06.3,0.001504898,-0.006637573,0.009098053,0,
00:06.3,0.001493454,-0.006637573,0.009126663,0,
00:06.3,0.001527786,-0.006580353,0.009120941,0,
00:06.3,0.001522064,-0.006597519,0.009103775,0,
00:06.3,0.001527786,-0.006603241,0.009098053,0,
00:06.3,0.001544952,-0.006603241,0.009098053,0,
00:06.3,0.001562119,-0.006563187,0.009115219,0,
00:06.3,0.001544952,-0.006591797,0.009120941,0,
00:06.3,0.001533508,-0.006603241,0.009109497,0,
00:06.3,0.001556396,-0.006591797,0.009098053,0,
00:06.3,0.001562119,-0.006586075,0.009109497,0,
00:06.3,0.001573563,-0.006603241,0.009115219,0,
00:06.3,0.001573563,-0.006551743,0.009115219,0,
00:06.3,0.001556396,-0.006591797,0.009132385,0,
00:06.3,0.001567841,-0.006603241,0.009126663,0,
00:06.4,0.001573563,-0.006597519,0.009160995,0,
00:06.4,0.001602173,-0.006546021,0.009155273,0,
00:06.4,0.001585007,-0.006557465,0.009132385,0,
00:06.4,0.001573563,-0.006580353,0.009103775,0,
00:06.4,0.001585007,-0.006586075,0.009120941,0,
00:06.4,0.001619339,-0.006546021,0.009126663,0,
00:06.4,0.001607895,-0.006574631,0.009092331,0,
00:06.4,0.001602173,-0.006586075,0.009149551,0,
00:06.4,0.001602173,-0.006574631,0.009166718,0,
00:06.4,0.001619339,-0.006557465,0.009160995,0,
00:06.4,0.001625061,-0.006568909,0.009166718,0,
00:06.4,0.001625061,-0.006568909,0.009189606,0,
00:06.4,0.001607895,-0.006563187,0.009155273,0,
00:06.4,0.001613617,-0.006568909,0.009132385,0,
00:06.4,0.001636505,-0.006568909,0.009115219,0,
00:06.4,0.001659393,-0.006557465,0.009166718,0,
00:06.4,0.001647949,-0.006540298,0.009166718,0,
00:06.4,0.001636505,-0.006546021,0.009143829,0,
00:06.4,0.001630783,-0.006534576,0.009178162,0,
00:06.4,0.001659393,-0.006534576,0.009183884,0,
00:06.4,0.001642227,-0.006568909,0.009178162,0,
00:06.4,0.001642227,-0.006563187,0.009195328,0,
00:06.4,0.001659393,-0.006500244,0.009195328,0,
00:06.4,0.001665115,-0.006546021,0.00917244,0,
00:06.4,0.001659393,-0.006603241,0.009166718,0,
00:06.5,0.001665115,-0.006568909,0.009189606,0,
00:06.5,0.001659393,-0.006523132,0.009160995,0,
00:06.5,0.001676559,-0.006528854,0.00917244,0,
00:06.5,0.001682281,-0.00651741,0.00920105,0,
00:06.5,0.001688004,-0.0064888,0.009166718,0,
00:06.5,0.001693726,-0.006505966,0.009195328,0,
00:06.5,0.001682281,-0.006505966,0.00920105,0,
00:06.5,0.001699448,-0.006505966,0.00920105,0,
00:06.5,0.001688004,-0.006528854,0.00922966,0,
00:06.5,0.001676559,-0.006574631,0.009183884,0,
00:06.5,0.001688004,-0.006568909,0.009160995,0,
00:06.5,0.001699448,-0.006540298,0.009206772,0,
00:06.5,0.001699448,-0.0064888,0.009235382,0,
00:06.5,0.00170517,-0.006494522,0.009223938,0,
00:06.5,0.001710892,-0.006494522,0.009189606,0,
00:06.5,0.001728058,-0.006511688,0.009189606,0,
00:06.5,0.001728058,-0.006523132,0.00922966,0,
00:06.5,0.001710892,-0.006534576,0.009218216,0,
00:06.5,0.00170517,-0.00651741,0.009195328,0,
00:06.5,0.001710892,-0.006505966,0.009223938,0,
00:06.5,0.001739502,-0.006505966,0.00922966,0,
00:06.5,0.001739502,-0.006540298,0.009246826,0,
00:06.5,0.001710892,-0.006523132,0.009223938,0,
00:06.5,0.001716614,-0.00651741,0.009206772,0,
00:06.5,0.00173378,-0.006494522,0.00922966,0,
00:06.6,0.001739502,-0.006494522,0.009223938,0,
00:06.6,0.00173378,-0.0064888,0.009235382,0,
00:06.6,0.001722336,-0.006511688,0.00922966,0,
00:06.6,0.001728058,-0.006505966,0.00925827,0,
00:06.6,0.001756668,-0.0064888,0.009246826,0,
00:06.6,0.001728058,-0.006505966,0.009218216,0,
00:06.6,0.00173378,-0.00651741,0.009241104,0,
00:06.6,0.001728058,-0.006511688,0.009235382,0,
00:06.6,0.00173378,-0.006534576,0.009241104,0,
00:06.6,0.001750946,-0.00651741,0.009223938,0,
00:06.6,0.00176239,-0.006500244,0.009252548,0,
00:06.6,0.001745224,-0.006500244,0.00925827,0,
00:06.6,0.001739502,-0.0064888,0.009235382,0,
00:06.6,0.001745224,-0.006528854,0.009246826,0,
00:06.6,0.001739502,-0.006551743,0.009252548,0,
00:06.6,0.001756668,-0.006448746,0.009241104,0,
00:06.6,0.00176239,-0.00646019,0.00925827,0,
00:06.6,0.001756668,-0.006511688,0.00925827,0,
00:06.6,0.001773834,-0.006523132,0.009218216,0,
00:06.6,0.001773834,-0.006494522,0.00920105,0,
00:06.6,0.001773834,-0.006471634,0.009223938,0,
00:06.6,0.001756668,-0.006505966,0.009292603,0,
00:06.6,0.001750946,-0.0064888,0.009298325,0,
00:06.6,0.00176239,-0.006494522,0.009292603,0,
00:06.6,0.001768112,-0.006528854,0.009292603,0,
00:06.7,0.001791,-0.006443024,0.009281158,0,
00:06.7,0.00176239,-0.006500244,0.009269714,0,
00:06.7,0.001750946,-0.006523132,0.00925827,0,
00:06.7,0.001756668,-0.006523132,0.009275436,0,
00:06.7,0.001768112,-0.006511688,0.009292603,0,
00:06.7,0.001768112,-0.006500244,0.009269714,0,
00:06.7,0.001796722,-0.00643158,0.009263992,0,
00:06.7,0.001791,-0.006471634,0.009269714,0,
00:06.7,0.001768112,-0.006500244,0.00928688,0,
00:06.7,0.001773834,-0.006511688,0.009292603,0,
00:06.7,0.001773834,-0.006511688,0.009292603,0,
00:06.7,0.001779556,-0.006448746,0.009269714,0,
00:06.7,0.001791,-0.00646019,0.009275436,0,
00:06.7,0.001796722,-0.006443024,0.009263992,0,
00:06.7,0.001779556,-0.0064888,0.00928688,0,
00:06.7,0.001768112,-0.006540298,0.009298325,0,
00:06.7,0.001785278,-0.006505966,0.00925827,0,
00:06.7,0.001796722,-0.006471634,0.00925827,0,
00:06.7,0.001779556,-0.006511688,0.009338379,0,
00:06.7,0.001773834,-0.006511688,0.009332657,0,
00:06.7,0.001808167,-0.006420135,0.009315491,0,
00:06.7,0.001813889,-0.006397247,0.009304047,0,
00:06.7,0.001779556,-0.006494522,0.009292603,0,
00:06.7,0.001756668,-0.006528854,0.009281158,0,
00:06.7,0.001779556,-0.006505966,0.009275436,0,
00:06.8,0.001779556,-0.006505966,0.009275436,0,
00:06.8,0.001785278,-0.006477356,0.009321213,0,
00:06.8,0.001785278,-0.0064888,0.009326935,0,
00:06.8,0.001779556,-0.006483078,0.009309769,0,
00:06.8,0.001802444,-0.006420135,0.009281158,0,
00:06.8,0.001831055,-0.006408691,0.009275436,0,
00:06.8,0.001779556,-0.006465912,0.009281158,0,
00:06.8,0.001773834,-0.006494522,0.009332657,0,
00:06.8,0.001785278,-0.006494522,0.009309769,0,
00:06.8,0.001779556,-0.006483078,0.009292603,0,
00:06.8,0.001785278,-0.006448746,0.009309769,0,
00:06.8,0.001791,-0.00646019,0.009315491,0,
00:06.8,0.001785278,-0.006471634,0.009332657,0,
00:06.8,0.001791,-0.006448746,0.009332657,0,
00:06.8,0.001796722,-0.006443024,0.009309769,0,
00:06.8,0.00176239,-0.006511688,0.009281158,0,
00:06.8,0.001773834,-0.006540298,0.009292603,0,
00:06.8,0.001779556,-0.006494522,0.009304047,0,
00:06.8,0.001779556,-0.006448746,0.009309769,0,
00:06.8,0.001802444,-0.006420135,0.009309769,0,
00:06.8,0.001791,-0.006425858,0.009326935,0,
00:06.8,0.00176239,-0.006483078,0.009326935,0,
00:06.8,0.001791,-0.0064888,0.009315491,0,
00:06.8,0.00176239,-0.006534576,0.009304047,0,
00:06.8,0.001796722,-0.006397247,0.009315491,0,
00:06.9,0.001813889,-0.00643158,0.009292603,0,
00:06.9,0.00176239,-0.006483078,0.009315491,0,
00:06.9,0.001745224,-0.006505966,0.009304047,0,
00:06.9,0.00176239,-0.006511688,0.00928688,0,
00:06.9,0.001779556,-0.006471634,0.009309769,0,
00:06.9,0.001791,-0.006437302,0.009309769,0,
00:06.9,0.001773834,-0.006448746,0.009321213,0,
00:06.9,0.001768112,-0.006494522,0.009326935,0,
00:06.9,0.001768112,-0.006477356,0.009315491,0,
00:06.9,0.001773834,-0.006477356,0.009344101,0,
00:06.9,0.001785278,-0.006465912,0.009315491,0,
00:06.9,0.001779556,-0.006500244,0.00928688,0,
00:06.9,0.001768112,-0.006505966,0.009315491,0,
00:06.9,0.001768112,-0.006471634,0.009321213,0,
00:06.9,0.001779556,-0.006437302,0.009326935,0,
00:06.9,0.001756668,-0.006454468,0.009304047,0,
00:06.9,0.001750946,-0.0064888,0.009304047,0,
00:06.9,0.001779556,-0.006471634,0.009292603,0,
00:06.9,0.001785278,-0.006454468,0.009321213,0,
00:06.9,0.001779556,-0.006471634,0.009315491,0,
00:06.9,0.001750946,-0.006443024,0.009269714,0,
00:06.9,0.001745224,-0.006500244,0.009304047,0,
00:06.9,0.001773834,-0.006477356,0.009309769,0,
00:06.9,0.001779556,-0.006443024,0.009361267,0,
00:06.9,0.001773834,-0.006425858,0.009338379,0,
00:07.0,0.001745224,-0.006511688,0.009332657,0,
00:07.0,0.001739502,-0.00651741,0.009304047,0,
00:07.0,0.001722336,-0.0064888,0.00928688,0,
00:07.0,0.001756668,-0.006465912,0.009321213,0,
00:07.0,0.001768112,-0.006448746,0.009321213,0,
00:07.0,0.001745224,-0.006471634,0.009298325,0,
00:07.0,0.001750946,-0.00651741,0.009315491,0,
00:07.0,0.001728058,-0.006511688,0.009315491,0,
00:07.0,0.001728058,-0.006465912,0.009304047,0,
00:07.0,0.001739502,-0.006454468,0.009309769,0,
00:07.0,0.001756668,-0.006471634,0.009326935,0,
00:07.0,0.00173378,-0.006546021,0.009326935,0,
00:00:07,0.001710892,-0.006534576,0.009315491,0,
00:07.0,0.001756668,-0.006425858,0.009298325,0,
00:07.0,0.001791,-0.006374359,0.009281158,0,
00:07.0,0.001728058,-0.0064888,0.009321213,0,
00:07.0,0.001716614,-0.006483078,0.009315491,0,
00:07.0,0.001728058,-0.006465912,0.009292603,0,
00:07.0,0.00173378,-0.006483078,0.009332657,0,
00:07.0,0.00173378,-0.006483078,0.009338379,0,
00:07.0,0.001722336,-0.006523132,0.009332657,0,
00:07.0,0.00173378,-0.006494522,0.009321213,0,
00:07.0,0.00176239,-0.006408691,0.009309769,0,
00:07.0,0.001722336,-0.006465912,0.009269714,0,
00:07.0,0.001710892,-0.0064888,0.009309769,0,
00:07.1,0.001710892,-0.006483078,0.009326935,0,
00:07.1,0.00170517,-0.00646019,0.009321213,0,
00:07.1,0.001716614,-0.006523132,0.009326935,0,
00:07.1,0.001716614,-0.006505966,0.009304047,0,
00:07.1,0.001722336,-0.006454468,0.009321213,0,
00:07.1,0.001693726,-0.006511688,0.009315491,0,
00:07.1,0.001710892,-0.006528854,0.009309769,0,
00:07.1,0.00173378,-0.006443024,0.009321213,0,
00:07.1,0.001728058,-0.00643158,0.009298325,0,
00:07.1,0.001699448,-0.006471634,0.009304047,0,
00:07.1,0.001699448,-0.006500244,0.009298325,0,
00:07.1,0.001682281,-0.006534576,0.009281158,0,
00:07.1,0.001693726,-0.006505966,0.009309769,0,
00:07.1,0.001728058,-0.006443024,0.009292603,0,
00:07.1,0.001750946,-0.006414413,0.009246826,0,
00:07.1,0.00173378,-0.00643158,0.009349823,0,
00:07.1,0.001693726,-0.006505966,0.009344101,0,
00:07.1,0.001647949,-0.006580353,0.009332657,0,
00:07.1,0.001676559,-0.006528854,0.009298325,0,
00:07.1,0.001688004,-0.0064888,0.00928688,0,
00:07.1,0.001693726,-0.006483078,0.00928688,0,
00:07.1,0.001699448,-0.0064888,0.009304047,0,
00:07.1,0.001682281,-0.006511688,0.009304047,0,
00:07.1,0.001682281,-0.006546021,0.009309769,0,
00:07.1,0.001693726,-0.006586075,0.009263992,0,
00:07.2,0.001699448,-0.006443024,0.009309769,0,
00:07.2,0.001670837,-0.006477356,0.009309769,0,
00:07.2,0.001659393,-0.006546021,0.009304047,0,
00:07.2,0.001682281,-0.006511688,0.009309769,0,
00:07.2,0.001682281,-0.006500244,0.009292603,0,
00:07.2,0.001676559,-0.006494522,0.009292603,0,
00:07.2,0.001670837,-0.006483078,0.00928688,0,
00:07.2,0.001693726,-0.006448746,0.009275436,0,
00:07.2,0.001670837,-0.006505966,0.009281158,0,
00:07.2,0.001659393,-0.006534576,0.00928688,0,
00:07.2,0.001665115,-0.006523132,0.00928688,0,
00:07.2,0.001676559,-0.006505966,0.00928688,0,
00:07.2,0.001659393,-0.006546021,0.00928688,0,
00:07.2,0.001659393,-0.006540298,0.00925827,0,
00:07.2,0.001659393,-0.006546021,0.009241104,0,
00:07.2,0.001676559,-0.00651741,0.009263992,0,
00:07.2,0.001642227,-0.006540298,0.009326935,0,
00:07.2,0.001676559,-0.006477356,0.00928688,0,
00:07.2,0.001682281,-0.006477356,0.009281158,0,
00:07.2,0.001653671,-0.006483078,0.009269714,0,
00:07.2,0.001647949,-0.006500244,0.009275436,0,
00:07.2,0.001636505,-0.006546021,0.00928688,0,
00:07.2,0.001653671,-0.006551743,0.009292603,0,
00:07.2,0.001653671,-0.006557465,0.009269714,0,
00:07.2,0.001630783,-0.006551743,0.009298325,0,
00:07.3,0.001636505,-0.0064888,0.009298325,0,
00:07.3,0.001659393,-0.0064888,0.00928688,0,
00:07.3,0.001670837,-0.0064888,0.009292603,0,
00:07.3,0.001625061,-0.00651741,0.00928688,0,
00:07.3,0.001613617,-0.006586075,0.00925827,0,
00:07.3,0.001636505,-0.006557465,0.009275436,0,
00:07.3,0.001642227,-0.006534576,0.00928688,0,
00:07.3,0.001642227,-0.006528854,0.009241104,0,
00:07.3,0.001659393,-0.006505966,0.009275436,0,
00:07.3,0.001647949,-0.006523132,0.00928688,0,
00:07.3,0.001619339,-0.006568909,0.009275436,0,
00:07.3,0.001653671,-0.006500244,0.009292603,0,
00:07.3,0.001607895,-0.006568909,0.009263992,0,
00:07.3,0.001625061,-0.006523132,0.009275436,0,
00:07.3,0.001636505,-0.006505966,0.009281158,0,
00:07.3,0.001625061,-0.006546021,0.009263992,0,
00:07.3,0.001613617,-0.006540298,0.009281158,0,
00:07.3,0.001613617,-0.006568909,0.009269714,0,
00:07.3,0.001630783,-0.006551743,0.009252548,0,
00:07.3,0.001619339,-0.006563187,0.00922966,0,
00:07.3,0.001647949,-0.006494522,0.009269714,0,
00:07.3,0.001630783,-0.006528854,0.009269714,0,
00:07.3,0.001573563,-0.006586075,0.009252548,0,
00:07.3,0.001607895,-0.006557465,0.009275436,0,
00:07.3,0.001619339,-0.006534576,0.009269714,0,
00:07.4,0.001602173,-0.006534576,0.00928688,0,
00:07.4,0.001602173,-0.006551743,0.00928688,0,
00:07.4,0.001625061,-0.0064888,0.009281158,0,
00:07.4,0.001607895,-0.006534576,0.009241104,0,
00:07.4,0.001585007,-0.006608963,0.009241104,0,
00:07.4,0.001613617,-0.006534576,0.009269714,0,
00:07.4,0.001636505,-0.00651741,0.009246826,0,
00:07.4,0.001596451,-0.006563187,0.009206772,0,
00:07.4,0.001585007,-0.006597519,0.009263992,0,
00:07.4,0.001567841,-0.006620407,0.009298325,0,
00:07.4,0.001596451,-0.006523132,0.009269714,0,
00:07.4,0.001676559,-0.006420135,0.009252548,0,
00:07.4,0.001642227,-0.006511688,0.009252548,0,
00:07.4,0.001550674,-0.006631851,0.009241104,0,
00:07.4,0.001567841,-0.006580353,0.009246826,0,
00:07.4,0.001567841,-0.006591797,0.009275436,0,
00:07.4,0.001613617,-0.006568909,0.009281158,0,
00:07.4,0.001625061,-0.006505966,0.009269714,0,
00:07.4,0.001567841,-0.006563187,0.009235382,0,
00:07.4,0.001579285,-0.006568909,0.009281158,0,
00:07.4,0.001579285,-0.006563187,0.009241104,0,
00:07.4,0.001590729,-0.006568909,0.00922966,0,
00:07.4,0.001590729,-0.006580353,0.009281158,0,
00:07.4,0.001590729,-0.006540298,0.009246826,0,
00:07.4,0.001613617,-0.0064888,0.00925827,0,
00:07.5,0.001562119,-0.006574631,0.00928688,0,
00:07.5,0.001544952,-0.006603241,0.009263992,0,
00:07.5,0.001567841,-0.006591797,0.009263992,0,
00:07.5,0.001579285,-0.006574631,0.009235382,0,
00:07.5,0.001567841,-0.006597519,0.009223938,0,
00:07.5,0.001579285,-0.006551743,0.009241104,0,
00:07.5,0.001590729,-0.006534576,0.009252548,0,
00:07.5,0.001630783,-0.006511688,0.009252548,0,
00:07.5,0.001596451,-0.006500244,0.00925827,0,
00:07.5,0.001550674,-0.006591797,0.009218216,0,
00:07.5,0.001573563,-0.006563187,0.00922966,0,
00:07.5,0.001556396,-0.006608963,0.009246826,0,
00:07.5,0.001556396,-0.006597519,0.009252548,0,
00:07.5,0.001556396,-0.006603241,0.009235382,0,
00:07.5,0.001585007,-0.006546021,0.009252548,0,
00:07.5,0.001625061,-0.0064888,0.009263992,0,
00:07.5,0.001556396,-0.006603241,0.009246826,0,
00:07.5,0.001533508,-0.006597519,0.009263992,0,
00:07.5,0.001573563,-0.006568909,0.009246826,0,
00:07.5,0.001573563,-0.006546021,0.009246826,0,
00:07.5,0.00153923,-0.006586075,0.009235382,0,
00:07.5,0.001585007,-0.006540298,0.009223938,0,
00:07.5,0.001567841,-0.006557465,0.009246826,0,
00:07.5,0.001522064,-0.006597519,0.009206772,0,
00:07.5,0.00153923,-0.006580353,0.00917244,0,
00:07.6,0.001550674,-0.006568909,0.00917244,0,
00:07.6,0.001544952,-0.006586075,0.009275436,0,
00:07.6,0.001544952,-0.006568909,0.009292603,0,
00:07.6,0.001556396,-0.006523132,0.009241104,0,
00:07.6,0.001556396,-0.006528854,0.009223938,0,
00:07.6,0.001533508,-0.006591797,0.009235382,0,
00:07.6,0.001527786,-0.006603241,0.009235382,0,
00:07.6,0.00153923,-0.006574631,0.009223938,0,
00:07.6,0.001544952,-0.006591797,0.009241104,0,
00:07.6,0.001544952,-0.006574631,0.009223938,0,
00:07.6,0.00153923,-0.006614685,0.009195328,0,
00:07.6,0.001550674,-0.006551743,0.00922966,0,
00:07.6,0.001550674,-0.006523132,0.009206772,0,
00:07.6,0.001527786,-0.006580353,0.009195328,0,
00:07.6,0.001533508,-0.006568909,0.009218216,0,
00:07.6,0.001533508,-0.006563187,0.009223938,0,
00:07.6,0.001522064,-0.006620407,0.009241104,0,
00:07.6,0.00151062,-0.006626129,0.009235382,0,
00:07.6,0.00153923,-0.006568909,0.009235382,0,
00:07.6,0.001533508,-0.006546021,0.009178162,0,
00:07.6,0.001522064,-0.006580353,0.009212494,0,
00:07.6,0.001527786,-0.006580353,0.009206772,0,
00:07.6,0.001522064,-0.006563187,0.009183884,0,
00:07.6,0.00151062,-0.006563187,0.00922966,0,
00:07.6,0.001504898,-0.006586075,0.009212494,0,
00:07.7,0.001516342,-0.006591797,0.009223938,0,
00:07.7,0.00153923,-0.006523132,0.009223938,0,
00:07.7,0.001567841,-0.006500244,0.009212494,0,
00:07.7,0.001476288,-0.006637573,0.009178162,0,
00:07.7,0.001487732,-0.006614685,0.009166718,0,
00:07.7,0.00151062,-0.006580353,0.00920105,0,
00:07.7,0.00151062,-0.006591797,0.009212494,0,
00:07.7,0.001499176,-0.006591797,0.009206772,0,
00:07.7,0.001516342,-0.006574631,0.00920105,0,
00:07.7,0.001516342,-0.006620407,0.009189606,0,
00:07.7,0.001516342,-0.006563187,0.00920105,0,
00:07.7,0.001522064,-0.006540298,0.009206772,0,
00:07.7,0.001544952,-0.006551743,0.009246826,0,
00:07.7,0.001493454,-0.006614685,0.009195328,0,
00:07.7,0.0014534,-0.006637573,0.009189606,0,
00:07.7,0.001487732,-0.006574631,0.009195328,0,
00:07.7,0.00151062,-0.006534576,0.009183884,0,
00:07.7,0.001527786,-0.006505966,0.009183884,0,
00:07.7,0.001493454,-0.006597519,0.009143829,0,
00:07.7,0.00148201,-0.006603241,0.009195328,0,
00:07.7,0.001464844,-0.006603241,0.009218216,0,
00:07.7,0.001476288,-0.006580353,0.00920105,0,
00:07.7,0.001487732,-0.006580353,0.009166718,0,
00:07.7,0.001499176,-0.006568909,0.009178162,0,
00:07.7,0.001522064,-0.006546021,0.009206772,0,
00:07.8,0.00153923,-0.006505966,0.009195328,0,
00:07.8,0.00148201,-0.006546021,0.00917244,0,
00:07.8,0.001459122,-0.006614685,0.009160995,0,
00:07.8,0.001447678,-0.006643295,0.009166718,0,
00:07.8,0.001470566,-0.006626129,0.009166718,0,
00:07.8,0.001476288,-0.006568909,0.009206772,0,
00:07.8,0.001464844,-0.006580353,0.00920105,0,
00:07.8,0.001459122,-0.006631851,0.009195328,0,
00:07.8,0.001476288,-0.006620407,0.00917244,0,
00:07.8,0.001533508,-0.00646019,0.009166718,0,
00:07.8,0.001493454,-0.0064888,0.009143829,0,
00:07.8,0.001436234,-0.006586075,0.009132385,0,
00:07.8,0.001436234,-0.006591797,0.009183884,0,
00:07.8,0.0014534,-0.006591797,0.009195328,0,
00:07.8,0.001464844,-0.006574631,0.009178162,0,
00:07.8,0.001464844,-0.006557465,0.009166718,0,
00:07.8,0.001447678,-0.006603241,0.009195328,0,
00:07.8,0.001447678,-0.006586075,0.00917244,0,
00:07.8,0.0014534,-0.006580353,0.009149551,0,
00:07.8,0.001459122,-0.006580353,0.009149551,0,
00:07.8,0.0014534,-0.006586075,0.009166718,0,
00:07.8,0.001459122,-0.006557465,0.009149551,0,
00:07.8,0.001459122,-0.006568909,0.009149551,0,
00:07.8,0.001459122,-0.006557465,0.009160995,0,
00:07.8,0.0014534,-0.006586075,0.00917244,0,
00:07.9,0.001441956,-0.006620407,0.009160995,0,
00:07.9,0.001464844,-0.006568909,0.009155273,0,
00:07.9,0.001447678,-0.006563187,0.009166718,0,
00:07.9,0.001436234,-0.006574631,0.009160995,0,
00:07.9,0.001430511,-0.006580353,0.009149551,0,
00:07.9,0.001447678,-0.006574631,0.009132385,0,
00:07.9,0.001447678,-0.006586075,0.009138107,0,
00:07.9,0.001430511,-0.006534576,0.009126663,0,
00:07.9,0.001441956,-0.006557465,0.009160995,0,
00:07.9,0.001430511,-0.006597519,0.009143829,0,
00:07.9,0.001441956,-0.006568909,0.009155273,0,
00:07.9,0.001436234,-0.006591797,0.009166718,0,
00:07.9,0.001407623,-0.006608963,0.009155273,0,
00:07.9,0.001407623,-0.006631851,0.009120941,0,
00:07.9,0.001424789,-0.006580353,0.009132385,0,
00:07.9,0.001447678,-0.006523132,0.009115219,0,
00:07.9,0.001424789,-0.006574631,0.009115219,0,
00:07.9,0.001401901,-0.006597519,0.009132385,0,
00:07.9,0.001407623,-0.006586075,0.009098053,0,
00:07.9,0.001413345,-0.006580353,0.009143829,0,
00:07.9,0.001413345,-0.006574631,0.009132385,0,
00:07.9,0.001407623,-0.006574631,0.009098053,0,
00:07.9,0.001413345,-0.006603241,0.009098053,0,
00:07.9,0.001401901,-0.006631851,0.009092331,0,
00:07.9,0.001413345,-0.006568909,0.009143829,0,
00:08.0,0.001419067,-0.006534576,0.009149551,0,
00:08.0,0.001413345,-0.006551743,0.009132385,0,
00:08.0,0.001401901,-0.006568909,0.009126663,0,
00:08.0,0.001384735,-0.006597519,0.009092331,0,
00:08.0,0.001396179,-0.006597519,0.009075165,0,
00:08.0,0.001430511,-0.006563187,0.009075165,0,
00:08.0,0.001390457,-0.006574631,0.009138107,0,
00:08.0,0.001379013,-0.006580353,0.009132385,0,
00:08.0,0.001396179,-0.006568909,0.009109497,0,
00:08.0,0.001390457,-0.006603241,0.009103775,0,
00:08.0,0.001407623,-0.006586075,0.009115219,0,
00:08.0,0.001396179,-0.006534576,0.009086609,0,
00:00:08,0.001379013,-0.006591797,0.009098053,0,
00:08.0,0.001401901,-0.006557465,0.009115219,0,
00:08.0,0.001379013,-0.006574631,0.009092331,0,
00:08.0,0.001373291,-0.006597519,0.009126663,0,
00:08.0,0.001373291,-0.006603241,0.009109497,0,
00:08.0,0.001367569,-0.006591797,0.009075165,0,
00:08.0,0.001373291,-0.006603241,0.009086609,0,
00:08.0,0.001373291,-0.006586075,0.009086609,0,
00:08.0,0.001379013,-0.006563187,0.009098053,0,
00:08.0,0.001379013,-0.006551743,0.009086609,0,
00:08.0,0.001379013,-0.006580353,0.009080887,0,
00:08.0,0.001379013,-0.006603241,0.009103775,0,
00:08.0,0.001367569,-0.006603241,0.009098053,0,
00:08.1,0.001373291,-0.006574631,0.009115219,0,
00:08.1,0.001373291,-0.006580353,0.009103775,0,
00:08.1,0.001344681,-0.006614685,0.009092331,0,
00:08.1,0.001367569,-0.006546021,0.009098053,0,
00:08.1,0.001373291,-0.006563187,0.009080887,0,
00:08.1,0.001367569,-0.006568909,0.009109497,0,
00:08.1,0.001373291,-0.006546021,0.009098053,0,
00:08.1,0.001361847,-0.006563187,0.009086609,0,
00:08.1,0.001350403,-0.006603241,0.009098053,0,
00:08.1,0.001367569,-0.006546021,0.009086609,0,
00:08.1,0.001373291,-0.006568909,0.009069443,0,
00:08.1,0.001344681,-0.006608963,0.009103775,0,
00:08.1,0.001350403,-0.006568909,0.009098053,0,
00:08.1,0.001344681,-0.006620407,0.009080887,0,
00:08.1,0.001350403,-0.006643295,0.009069443,0,
00:08.1,0.001367569,-0.006511688,0.009109497,0,
00:08.1,0.001356125,-0.006557465,0.009098053,0,
00:08.1,0.001344681,-0.006580353,0.009075165,0,
00:08.1,0.001338959,-0.006574631,0.009063721,0,
00:08.1,0.001344681,-0.006563187,0.009075165,0,
00:08.1,0.001338959,-0.006614685,0.009086609,0,
00:08.1,0.001344681,-0.006614685,0.009086609,0,
00:08.1,0.001356125,-0.006586075,0.009086609,0,
00:08.1,0.001367569,-0.006523132,0.009057999,0,
00:08.1,0.001373291,-0.006500244,0.009052277,0,
00:08.2,0.001338959,-0.006563187,0.009040833,0,
00:08.2,0.001316071,-0.006637573,0.009052277,0,
00:08.2,0.001338959,-0.006563187,0.009075165,0,
00:08.2,0.001350403,-0.006568909,0.009080887,0,
00:08.2,0.001344681,-0.006603241,0.009069443,0,
00:08.2,0.001338959,-0.006626129,0.009069443,0,
00:08.2,0.001321793,-0.006603241,0.009052277,0,
00:08.2,0.001327515,-0.006557465,0.009040833,0,
00:08.2,0.001327515,-0.006574631,0.009057999,0,
00:08.2,0.001321793,-0.006603241,0.0090065,0,
00:08.2,0.001333237,-0.006608963,0.009046555,0,
00:08.2,0.001338959,-0.006546021,0.009086609,0,
00:08.2,0.001316071,-0.006586075,0.009069443,0,
00:08.2,0.001304626,-0.006620407,0.009040833,0,
00:08.2,0.001327515,-0.006586075,0.009063721,0,
00:08.2,0.001356125,-0.006557465,0.009063721,0,
00:08.2,0.001327515,-0.006540298,0.009057999,0,
00:08.2,0.001316071,-0.006608963,0.009063721,0,
00:08.2,0.001333237,-0.006546021,0.009040833,0,
00:08.2,0.001321793,-0.006563187,0.009023666,0,
00:08.2,0.001276016,-0.006626129,0.009057999,0,
00:08.2,0.001298904,-0.006603241,0.009052277,0,
00:08.2,0.001316071,-0.006563187,0.009023666,0,
00:08.2,0.001327515,-0.006586075,0.009017944,0,
00:08.2,0.001350403,-0.006540298,0.00903511,0,
00:08.3,0.001304626,-0.006586075,0.009029388,0,
00:08.3,0.001293182,-0.006637573,0.009063721,0,
00:08.3,0.001304626,-0.006597519,0.009063721,0,
00:08.3,0.001316071,-0.006546021,0.009017944,0,
00:08.3,0.001316071,-0.006557465,0.008983612,0,
00:08.3,0.001316071,-0.006591797,0.009029388,0,
00:08.3,0.001321793,-0.006574631,0.009092331,0,
00:08.3,0.001310349,-0.006574631,0.009046555,0,
00:08.3,0.001304626,-0.006597519,0.008995056,0,
00:08.3,0.001333237,-0.006586075,0.009012222,0,
00:08.3,0.001304626,-0.006597519,0.009040833,0,
00:08.3,0.001298904,-0.006580353,0.009080887,0,
00:08.3,0.001304626,-0.006586075,0.009046555,0,
00:08.3,0.001321793,-0.006540298,0.009017944,0,
00:08.3,0.001310349,-0.006580353,0.009029388,0,
00:08.3,0.001304626,-0.006591797,0.009040833,0,
00:08.3,0.00128746,-0.006649017,0.009052277,0,
00:08.3,0.001293182,-0.006608963,0.009040833,0,
00:08.3,0.001321793,-0.006528854,0.009029388,0,
00:08.3,0.001298904,-0.006557465,0.009017944,0,
00:08.3,0.001298904,-0.006603241,0.008995056,0,
00:08.3,0.001321793,-0.006603241,0.008995056,0,
00:08.3,0.001333237,-0.006528854,0.009080887,0,
00:08.3,0.001298904,-0.006568909,0.009046555,0,
00:08.3,0.001298904,-0.006574631,0.0090065,0,
00:08.4,0.001281738,-0.006597519,0.0090065,0,
00:08.4,0.001293182,-0.006586075,0.009017944,0,
00:08.4,0.001298904,-0.006603241,0.009063721,0,
00:08.4,0.001298904,-0.006568909,0.009017944,0,
00:08.4,0.001293182,-0.006586075,0.0090065,0,
00:08.4,0.001310349,-0.006563187,0.009040833,0,
00:08.4,0.001298904,-0.006597519,0.009029388,0,
00:08.4,0.001270294,-0.006643295,0.009017944,0,
00:08.4,0.00128746,-0.006563187,0.009023666,0,
00:08.4,0.001298904,-0.006534576,0.0090065,0,
00:08.4,0.001298904,-0.006580353,0.009023666,0,
00:08.4,0.001321793,-0.006574631,0.009017944,0,
00:08.4,0.001270294,-0.006637573,0.009023666,0,
00:08.4,0.001276016,-0.006643295,0.009046555,0,
00:08.4,0.001276016,-0.006603241,0.009017944,0,
00:08.4,0.001276016,-0.006563187,0.009000778,0,
00:08.4,0.001281738,-0.006597519,0.009029388,0,
00:08.4,0.001281738,-0.006574631,0.00903511,0,
00:08.4,0.00128746,-0.006557465,0.009012222,0,
00:08.4,0.001281738,-0.006563187,0.008995056,0,
00:08.4,0.001304626,-0.006551743,0.009012222,0,
00:08.4,0.001298904,-0.006551743,0.009017944,0,
00:08.4,0.001276016,-0.006614685,0.008989334,0,
00:08.4,0.001281738,-0.006597519,0.008983612,0,
00:08.4,0.001276016,-0.006591797,0.008989334,0,
00:08.5,0.001276016,-0.006568909,0.0090065,0,
00:08.5,0.001264572,-0.006557465,0.009040833,0,
00:08.5,0.001247406,-0.006608963,0.009040833,0,
00:08.5,0.001235962,-0.006586075,0.009029388,0,
00:08.5,0.001281738,-0.006563187,0.009000778,0,
00:08.5,0.001321793,-0.006597519,0.00903511,0,
00:08.5,0.001253128,-0.006603241,0.009012222,0,
00:08.5,0.001241684,-0.006563187,0.009012222,0,
00:08.5,0.001218796,-0.006574631,0.0090065,0,
00:08.5,0.001253128,-0.006574631,0.009000778,0,
00:08.5,0.001264572,-0.006580353,0.009000778,0,
00:08.5,0.001293182,-0.006597519,0.009023666,0,
00:08.5,0.001281738,-0.006574631,0.008995056,0,
00:08.5,0.001270294,-0.006580353,0.00892067,0,
00:08.5,0.00125885,-0.006626129,0.00897789,0,
00:08.5,0.00125885,-0.006649017,0.009029388,0,
00:08.5,0.001276016,-0.006586075,0.009000778,0,
00:08.5,0.001293182,-0.006483078,0.009017944,0,
00:08.5,0.001247406,-0.006568909,0.009012222,0,
00:08.5,0.00123024,-0.006608963,0.008995056,0,
00:08.5,0.001298904,-0.006534576,0.0090065,0,
00:08.5,0.001264572,-0.006563187,0.009000778,0,
00:08.5,0.00123024,-0.006614685,0.009023666,0,
00:08.5,0.001253128,-0.006597519,0.008995056,0,
00:08.5,0.001235962,-0.006597519,0.008989334,0,
00:08.6,0.001247406,-0.006586075,0.008989334,0,
00:08.6,0.001270294,-0.006580353,0.008995056,0,
00:08.6,0.001270294,-0.006540298,0.008995056,0,
00:08.6,0.001235962,-0.006614685,0.008972168,0,
00:08.6,0.001241684,-0.006603241,0.008983612,0,
00:08.6,0.001264572,-0.006563187,0.009012222,0,
00:08.6,0.001218796,-0.006626129,0.008972168,0,
00:08.6,0.00125885,-0.006597519,0.009029388,0,
00:08.6,0.001270294,-0.006551743,0.009012222,0,
00:08.6,0.001224518,-0.006580353,0.008972168,0,
00:08.6,0.001207352,-0.006597519,0.009012222,0,
00:08.6,0.001224518,-0.006597519,0.008989334,0,
00:08.6,0.001241684,-0.006586075,0.008943558,0,
00:08.6,0.001253128,-0.006563187,0.008960724,0,
00:08.6,0.001253128,-0.006551743,0.009029388,0,
00:08.6,0.00123024,-0.006586075,0.008989334,0,
00:08.6,0.001241684,-0.006563187,0.009012222,0,
00:08.6,0.001224518,-0.006597519,0.008989334,0,
00:08.6,0.001247406,-0.006563187,0.008966446,0,
00:08.6,0.001235962,-0.006580353,0.0090065,0,
00:08.6,0.001235962,-0.006586075,0.008989334,0,
00:08.6,0.001218796,-0.006608963,0.00897789,0,
00:08.6,0.001213074,-0.006608963,0.008995056,0,
00:08.6,0.001218796,-0.006608963,0.008972168,0,
00:08.6,0.00125885,-0.006551743,0.008995056,0,
00:08.7,0.00123024,-0.006586075,0.008972168,0,
00:08.7,0.001235962,-0.006528854,0.008983612,0,
00:08.7,0.001241684,-0.006586075,0.008989334,0,
00:08.7,0.001235962,-0.006603241,0.008960724,0,
00:08.7,0.001241684,-0.006563187,0.00897789,0,
00:08.7,0.001207352,-0.006603241,0.00897789,0,
00:08.7,0.00123024,-0.006591797,0.008972168,0,
00:08.7,0.001247406,-0.006528854,0.008989334,0,
00:08.7,0.001207352,-0.006603241,0.00897789,0,
00:08.7,0.001218796,-0.006614685,0.008972168,0,
00:08.7,0.001213074,-0.006631851,0.00894928,0,
00:08.7,0.001213074,-0.006574631,0.008960724,0,
00:08.7,0.001224518,-0.006580353,0.009000778,0,
00:08.7,0.001247406,-0.006540298,0.00903511,0,
00:08.7,0.001241684,-0.006574631,0.008983612,0,
00:08.7,0.00123024,-0.006580353,0.008960724,0,
00:08.7,0.001213074,-0.006563187,0.008972168,0,
00:08.7,0.001195908,-0.006603241,0.008995056,0,
00:08.7,0.001218796,-0.006586075,0.00897789,0,
00:08.7,0.001224518,-0.006591797,0.008943558,0,
00:08.7,0.001247406,-0.006563187,0.008960724,0,
00:08.7,0.001241684,-0.006557465,0.009000778,0,
00:08.7,0.001224518,-0.006643295,0.008989334,0,
00:08.7,0.001213074,-0.006637573,0.008983612,0,
00:08.7,0.001190186,-0.006557465,0.008966446,0,
00:08.8,0.001218796,-0.006568909,0.008983612,0,
00:08.8,0.001224518,-0.006574631,0.008966446,0,
00:08.8,0.001218796,-0.006580353,0.008960724,0,
00:08.8,0.001247406,-0.006540298,0.008966446,0,
00:08.8,0.001241684,-0.006557465,0.008966446,0,
00:08.8,0.00123024,-0.006603241,0.008966446,0,
00:08.8,0.001213074,-0.006586075,0.00897789,0,
00:08.8,0.00120163,-0.006580353,0.00894928,0,
00:08.8,0.001218796,-0.006586075,0.008960724,0,
00:08.8,0.001241684,-0.006563187,0.00897789,0,
00:08.8,0.001178741,-0.006643295,0.008960724,0,
00:08.8,0.001207352,-0.006603241,0.008983612,0,
00:08.8,0.00123024,-0.006563187,0.008966446,0,
00:08.8,0.00123024,-0.006557465,0.008983612,0,
00:08.8,0.00120163,-0.006603241,0.008972168,0,
00:08.8,0.001195908,-0.006608963,0.008943558,0,
00:08.8,0.001224518,-0.006574631,0.008960724,0,
00:08.8,0.001264572,-0.006546021,0.00894928,0,
00:08.8,0.00120163,-0.006637573,0.00892067,0,
00:08.8,0.001190186,-0.006580353,0.00894928,0,
00:08.8,0.001207352,-0.006574631,0.008989334,0,
00:08.8,0.001213074,-0.006586075,0.008966446,0,
00:08.8,0.001213074,-0.006626129,0.008943558,0,
00:08.8,0.001241684,-0.006528854,0.008960724,0,
00:08.8,0.001207352,-0.006580353,0.008955002,0,
00:08.9,0.00120163,-0.006608963,0.008955002,0,
00:08.9,0.001224518,-0.006574631,0.008932114,0,
00:08.9,0.001218796,-0.006551743,0.008932114,0,
00:08.9,0.00120163,-0.006591797,0.008932114,0,
00:08.9,0.001218796,-0.006551743,0.008932114,0,
00:08.9,0.001224518,-0.006540298,0.008943558,0,
00:08.9,0.001224518,-0.006580353,0.008960724,0,
00:08.9,0.001190186,-0.006631851,0.008943558,0,
00:08.9,0.001178741,-0.006631851,0.008955002,0,
00:08.9,0.001190186,-0.006580353,0.00894928,0,
00:08.9,0.001207352,-0.006557465,0.008937836,0,
00:08.9,0.001213074,-0.006563187,0.008932114,0,
00:08.9,0.001190186,-0.006631851,0.00894928,0,
00:08.9,0.001195908,-0.006614685,0.008943558,0,
00:08.9,0.00120163,-0.006580353,0.008932114,0,
00:08.9,0.00120163,-0.006603241,0.00892067,0,
00:08.9,0.001195908,-0.006563187,0.008932114,0,
00:08.9,0.001224518,-0.006528854,0.008943558,0,
00:08.9,0.001213074,-0.006580353,0.008937836,0,
00:08.9,0.001184464,-0.006631851,0.008914948,0,
00:08.9,0.001195908,-0.006586075,0.008909225,0,
00:08.9,0.001195908,-0.006568909,0.008926392,0,
00:08.9,0.001190186,-0.006603241,0.008914948,0,
00:08.9,0.001190186,-0.006568909,0.00894928,0,
00:08.9,0.001190186,-0.006580353,0.008955002,0,
00:09.0,0.001195908,-0.006574631,0.008926392,0,
00:09.0,0.00120163,-0.006580353,0.008932114,0,
00:09.0,0.001195908,-0.006563187,0.008966446,0,
00:09.0,0.001173019,-0.006620407,0.008943558,0,
00:09.0,0.001173019,-0.006597519,0.00892067,0,
00:09.0,0.001195908,-0.006580353,0.008937836,0,
00:09.0,0.001178741,-0.006603241,0.008937836,0,
00:09.0,0.001173019,-0.006586075,0.008914948,0,
00:09.0,0.001184464,-0.006591797,0.008914948,0,
00:09.0,0.001190186,-0.006574631,0.00894928,0,
00:09.0,0.001207352,-0.006534576,0.00894928,0,
00:09.0,0.001178741,-0.006603241,0.008932114,0,
00:00:09,0.001184464,-0.006586075,0.008909225,0,
00:09.0,0.001195908,-0.006563187,0.008892059,0,
00:09.0,0.001190186,-0.006586075,0.008943558,0,
00:09.0,0.001178741,-0.006603241,0.00894928,0,
00:09.0,0.001173019,-0.006597519,0.008937836,0,
00:09.0,0.001167297,-0.006603241,0.008926392,0,
00:09.0,0.001178741,-0.006580353,0.00892067,0,
00:09.0,0.001173019,-0.006603241,0.008926392,0,
00:09.0,0.001184464,-0.006597519,0.008926392,0,
00:09.0,0.001190186,-0.006563187,0.008943558,0,
00:09.0,0.001178741,-0.006557465,0.008932114,0,
00:09.0,0.001161575,-0.006603241,0.008943558,0,
00:09.0,0.001184464,-0.006557465,0.008909225,0,
00:09.1,0.00120163,-0.006580353,0.008914948,0,
00:09.1,0.001184464,-0.006603241,0.008926392,0,
00:09.1,0.001184464,-0.006574631,0.008926392,0,
00:09.1,0.001173019,-0.006626129,0.008932114,0,
00:09.1,0.001178741,-0.006580353,0.008909225,0,
00:09.1,0.001195908,-0.006568909,0.00892067,0,
00:09.1,0.001167297,-0.006608963,0.00894928,0,
00:09.1,0.001167297,-0.006586075,0.008943558,0,
00:09.1,0.001178741,-0.006563187,0.008909225,0,
00:09.1,0.001190186,-0.006568909,0.00892067,0,
00:09.1,0.001178741,-0.006580353,0.00892067,0,
00:09.1,0.001155853,-0.006614685,0.008903503,0,
00:09.1,0.001173019,-0.006574631,0.008937836,0,
00:09.1,0.001167297,-0.006597519,0.008897781,0,
00:09.1,0.001195908,-0.006563187,0.008892059,0,
00:09.1,0.001195908,-0.006574631,0.008909225,0,
00:09.1,0.001173019,-0.006551743,0.008943558,0,
00:09.1,0.001167297,-0.006586075,0.00892067,0,
00:09.1,0.001161575,-0.006603241,0.008926392,0,
00:09.1,0.001173019,-0.006586075,0.008903503,0,
00:09.1,0.001167297,-0.006586075,0.008897781,0,
00:09.1,0.001167297,-0.006568909,0.008903503,0,
00:09.1,0.001178741,-0.006580353,0.008909225,0,
00:09.1,0.001184464,-0.006580353,0.008903503,0,
00:09.1,0.001195908,-0.006574631,0.008903503,0,
00:09.2,0.001161575,-0.006603241,0.00892067,0,
00:09.2,0.001161575,-0.006591797,0.00892067,0,
00:09.2,0.001155853,-0.006574631,0.008914948,0,
00:09.2,0.001161575,-0.006563187,0.008897781,0,
00:09.2,0.001184464,-0.006534576,0.008909225,0,
00:09.2,0.001167297,-0.006603241,0.00892067,0,
00:09.2,0.001161575,-0.006614685,0.008909225,0,
00:09.2,0.001173019,-0.006568909,0.008892059,0,
00:09.2,0.001195908,-0.006563187,0.008903503,0,
00:09.2,0.001144409,-0.006620407,0.008897781,0,
00:09.2,0.001144409,-0.006580353,0.008914948,0,
00:09.2,0.001167297,-0.006563187,0.008880615,0,
00:09.2,0.001195908,-0.006546021,0.008857727,0,
00:09.2,0.001178741,-0.006557465,0.00892067,0,
00:09.2,0.001121521,-0.006643295,0.008926392,0,
00:09.2,0.001144409,-0.006608963,0.008903503,0,
00:09.2,0.001155853,-0.006586075,0.008897781,0,
00:09.2,0.001167297,-0.006557465,0.008903503,0,
00:09.2,0.001178741,-0.006546021,0.008926392,0,
00:09.2,0.001167297,-0.006580353,0.008892059,0,
00:09.2,0.001150131,-0.006603241,0.008897781,0,
00:09.2,0.001150131,-0.006608963,0.00892067,0,
00:09.2,0.001190186,-0.006551743,0.008909225,0,
00:09.2,0.001184464,-0.006528854,0.008863449,0,
00:09.2,0.001155853,-0.006626129,0.008863449,0,
00:09.3,0.001155853,-0.006620407,0.008897781,0,
00:09.3,0.001155853,-0.006597519,0.008897781,0,
00:09.3,0.001161575,-0.006534576,0.008914948,0,
00:09.3,0.001161575,-0.006580353,0.008880615,0,
00:09.3,0.001161575,-0.006614685,0.008903503,0,
00:09.3,0.001167297,-0.006580353,0.008914948,0,
00:09.3,0.001167297,-0.006580353,0.00892067,0,
00:09.3,0.001173019,-0.006574631,0.008886337,0,
00:09.3,0.001167297,-0.006591797,0.008886337,0,
00:09.3,0.001167297,-0.006574631,0.008909225,0,
00:09.3,0.001161575,-0.006574631,0.008892059,0,
00:09.3,0.001155853,-0.006574631,0.008892059,0,
00:09.3,0.001155853,-0.006568909,0.008880615,0,
00:09.3,0.001155853,-0.006591797,0.008886337,0,
00:09.3,0.001150131,-0.006586075,0.008909225,0,
00:09.3,0.001155853,-0.006563187,0.008886337,0,
00:09.3,0.001178741,-0.006563187,0.008897781,0,
00:09.3,0.001150131,-0.006574631,0.008892059,0,
00:09.3,0.001144409,-0.006597519,0.008897781,0,
00:09.3,0.001161575,-0.006574631,0.008863449,0,
00:09.3,0.001150131,-0.006574631,0.008880615,0,
00:09.3,0.001155853,-0.006580353,0.008914948,0,
00:09.3,0.001150131,-0.006608963,0.008892059,0,
00:09.3,0.001167297,-0.006603241,0.008874893,0,
00:09.3,0.001173019,-0.006563187,0.008886337,0,
00:09.4,0.001138687,-0.006557465,0.008869171,0,
00:09.4,0.001150131,-0.006574631,0.008903503,0,
00:09.4,0.001138687,-0.006608963,0.008914948,0,
00:09.4,0.001144409,-0.006557465,0.008874893,0,
00:09.4,0.001155853,-0.006546021,0.008880615,0,
00:09.4,0.001161575,-0.006620407,0.008892059,0,
00:09.4,0.001161575,-0.006574631,0.008874893,0,
00:09.4,0.001150131,-0.006568909,0.008880615,0,
00:09.4,0.001144409,-0.006557465,0.008897781,0,
00:09.4,0.001138687,-0.006568909,0.008926392,0,
00:09.4,0.001150131,-0.006563187,0.008909225,0,
00:09.4,0.001150131,-0.006586075,0.008886337,0,
00:09.4,0.001144409,-0.006608963,0.008886337,0,
00:09.4,0.001155853,-0.006557465,0.008886337,0,
00:09.4,0.001144409,-0.006574631,0.008880615,0,
00:09.4,0.001150131,-0.006568909,0.008852005,0,
00:09.4,0.001155853,-0.006568909,0.008863449,0,
00:09.4,0.001150131,-0.006574631,0.008897781,0,
00:09.4,0.001144409,-0.006591797,0.008914948,0,
00:09.4,0.001150131,-0.006574631,0.008903503,0,
00:09.4,0.001132965,-0.006591797,0.008880615,0,
00:09.4,0.001132965,-0.006568909,0.008886337,0,
00:09.4,0.001127243,-0.006603241,0.008897781,0,
00:09.4,0.001150131,-0.006574631,0.008897781,0,
00:09.4,0.001161575,-0.006528854,0.008886337,0,
00:09.5,0.001127243,-0.006586075,0.008874893,0,
00:09.5,0.001150131,-0.006597519,0.008886337,0,
00:09.5,0.001161575,-0.006568909,0.008897781,0,
00:09.5,0.001132965,-0.006580353,0.008892059,0,
00:09.5,0.001132965,-0.006563187,0.008892059,0,
00:09.5,0.001132965,-0.006563187,0.008897781,0,
00:09.5,0.001138687,-0.006574631,0.008886337,0,
00:09.5,0.001138687,-0.006563187,0.008880615,0,
00:09.5,0.001132965,-0.006580353,0.008880615,0,
00:09.5,0.001121521,-0.006597519,0.008874893,0,
00:09.5,0.001132965,-0.006574631,0.008874893,0,
00:09.5,0.001150131,-0.006551743,0.008886337,0,
00:09.5,0.001150131,-0.006557465,0.008886337,0,
00:09.5,0.001127243,-0.006597519,0.008869171,0,
00:09.5,0.001127243,-0.006591797,0.008874893,0,
00:09.5,0.001138687,-0.006574631,0.008863449,0,
00:09.5,0.001155853,-0.006551743,0.008869171,0,
00:09.5,0.001144409,-0.006540298,0.008886337,0,
00:09.5,0.001121521,-0.006580353,0.008886337,0,
00:09.5,0.001127243,-0.006608963,0.008874893,0,
00:09.5,0.001155853,-0.006563187,0.008852005,0,
00:09.5,0.001132965,-0.006557465,0.008857727,0,
00:09.5,0.001115799,-0.006574631,0.008903503,0,
00:09.5,0.001127243,-0.006586075,0.008909225,0,
00:09.5,0.001138687,-0.006551743,0.008892059,0,
00:09.6,0.001127243,-0.006557465,0.008886337,0,
00:09.6,0.001115799,-0.006614685,0.008869171,0,
00:09.6,0.001127243,-0.006603241,0.008840561,0,
00:09.6,0.001127243,-0.006568909,0.008857727,0,
00:09.6,0.001121521,-0.006557465,0.008892059,0,
00:09.6,0.001121521,-0.006574631,0.008897781,0,
00:09.6,0.001138687,-0.006557465,0.008880615,0,
00:09.6,0.001150131,-0.006528854,0.008823395,0,
00:09.6,0.001138687,-0.006563187,0.008874893,0,
00:09.6,0.001127243,-0.006580353,0.008880615,0,
00:09.6,0.001115799,-0.006597519,0.008909225,0,
00:09.6,0.001127243,-0.006580353,0.008903503,0,
00:09.6,0.001110077,-0.006586075,0.008886337,0,
00:09.6,0.001132965,-0.006563187,0.008880615,0,
00:09.6,0.001127243,-0.006574631,0.008863449,0,
00:09.6,0.001115799,-0.006574631,0.008869171,0,
00:09.6,0.001144409,-0.006563187,0.008863449,0,
00:09.6,0.001138687,-0.006563187,0.008880615,0,
00:09.6,0.001121521,-0.006551743,0.008886337,0,
00:09.6,0.001121521,-0.006568909,0.008863449,0,
00:09.6,0.001127243,-0.006580353,0.008863449,0,
00:09.6,0.001138687,-0.006574631,0.008874893,0,
00:09.6,0.001132965,-0.006563187,0.008874893,0,
00:09.6,0.001121521,-0.006563187,0.008863449,0,
00:09.6,0.001138687,-0.006540298,0.008874893,0,
00:09.7,0.001138687,-0.006568909,0.008874893,0,
00:09.7,0.001110077,-0.006608963,0.008869171,0,
00:09.7,0.001104355,-0.006591797,0.008892059,0,
00:09.7,0.001132965,-0.006546021,0.008863449,0,
00:09.7,0.001155853,-0.006540298,0.008846283,0,
00:09.7,0.001098633,-0.006620407,0.008892059,0,
00:09.7,0.001104355,-0.006586075,0.008886337,0,
00:09.7,0.001127243,-0.006540298,0.008886337,0,
00:09.7,0.001115799,-0.006568909,0.008852005,0,
00:09.7,0.001121521,-0.006591797,0.008857727,0,
00:09.7,0.001132965,-0.006580353,0.008869171,0,
00:09.7,0.001132965,-0.006557465,0.008840561,0,
00:09.7,0.001132965,-0.006563187,0.008886337,0,
00:09.7,0.001115799,-0.006597519,0.008914948,0,
00:09.7,0.001121521,-0.006597519,0.008897781,0,
00:09.7,0.001115799,-0.006557465,0.008886337,0,
00:09.7,0.001132965,-0.006534576,0.008863449,0,
00:09.7,0.001138687,-0.006557465,0.008857727,0,
00:09.7,0.001121521,-0.006608963,0.008846283,0,
00:09.7,0.001121521,-0.006631851,0.008834839,0,
00:09.7,0.001132965,-0.006574631,0.008863449,0,
00:09.7,0.001127243,-0.00651741,0.008892059,0,
00:09.7,0.001115799,-0.006568909,0.008892059,0,
00:09.7,0.001104355,-0.006563187,0.008857727,0,
00:09.7,0.001110077,-0.006551743,0.008869171,0,
00:09.8,0.001132965,-0.006528854,0.008874893,0,
00:09.8,0.001115799,-0.006586075,0.008886337,0,
00:09.8,0.001115799,-0.006574631,0.008880615,0,
00:09.8,0.001110077,-0.006580353,0.008852005,0,
00:09.8,0.001110077,-0.006574631,0.008874893,0,
00:09.8,0.001121521,-0.006574631,0.008863449,0,
00:09.8,0.001110077,-0.006568909,0.008846283,0,
00:09.8,0.001110077,-0.006580353,0.008874893,0,
00:09.8,0.001104355,-0.006580353,0.008886337,0,
00:09.8,0.001121521,-0.006563187,0.008874893,0,
00:09.8,0.001138687,-0.006551743,0.008852005,0,
00:09.8,0.001115799,-0.006591797,0.008869171,0,
00:09.8,0.001110077,-0.006568909,0.008892059,0,
00:09.8,0.001104355,-0.006586075,0.008857727,0,
00:09.8,0.001127243,-0.006580353,0.008840561,0,
00:09.8,0.001155853,-0.006511688,0.008852005,0,
00:09.8,0.001104355,-0.006568909,0.008892059,0,
00:09.8,0.001081467,-0.006649017,0.008897781,0,
00:09.8,0.001098633,-0.006614685,0.008874893,0,
00:09.8,0.001098633,-0.006580353,0.008863449,0,
00:09.8,0.001104355,-0.006586075,0.008863449,0,
00:09.8,0.001115799,-0.006563187,0.008846283,0,
00:09.8,0.001121521,-0.006563187,0.008863449,0,
00:09.8,0.001110077,-0.006580353,0.008897781,0,
00:09.8,0.001127243,-0.006528854,0.008880615,0,
00:09.9,0.001127243,-0.006505966,0.008869171,0,
00:09.9,0.001115799,-0.006591797,0.008874893,0,
00:09.9,0.001115799,-0.006563187,0.008880615,0,
00:09.9,0.001087189,-0.006620407,0.008857727,0,
00:09.9,0.001092911,-0.006591797,0.008869171,0,
00:09.9,0.001104355,-0.006574631,0.008892059,0,
00:09.9,0.001110077,-0.006568909,0.008869171,0,
00:09.9,0.001104355,-0.006603241,0.008857727,0,
00:09.9,0.001115799,-0.006568909,0.008869171,0,
00:09.9,0.001121521,-0.006534576,0.008869171,0,
00:09.9,0.001115799,-0.006546021,0.008892059,0,
00:09.9,0.001110077,-0.006586075,0.008869171,0,
00:09.9,0.001127243,-0.006546021,0.008886337,0,
00:09.9,0.001121521,-0.006528854,0.008863449,0,
00:09.9,0.001104355,-0.006580353,0.008852005,0,
00:09.9,0.001092911,-0.006603241,0.008886337,0,
00:09.9,0.001104355,-0.006597519,0.008886337,0,
00:09.9,0.001092911,-0.006608963,0.008892059,0,
00:09.9,0.001110077,-0.006546021,0.008869171,0,
00:09.9,0.001110077,-0.006563187,0.008869171,0,
00:09.9,0.001098633,-0.006597519,0.008880615,0,
00:09.9,0.001110077,-0.006608963,0.008892059,0,
00:09.9,0.001110077,-0.006534576,0.008869171,0,
00:09.9,0.001110077,-0.006551743,0.008880615,0,
00:09.9,0.001121521,-0.006540298,0.008852005,0,
00:10.0,0.001115799,-0.006568909,0.008852005,0,
00:10.0,0.001092911,-0.006597519,0.008897781,0,
00:10.0,0.001104355,-0.006580353,0.008897781,0,
00:10.0,0.001098633,-0.006568909,0.008880615,0,
00:10.0,0.001098633,-0.006563187,0.008874893,0,
00:10.0,0.001110077,-0.006546021,0.008886337,0,
00:10.0,0.001110077,-0.006551743,0.008874893,0,
00:10.0,0.001110077,-0.006563187,0.008863449,0,
00:10.0,0.001110077,-0.006540298,0.008886337,0,
00:10.0,0.001092911,-0.006574631,0.008857727,0,
00:10.0,0.001092911,-0.006591797,0.008857727,0,
00:10.0,0.001104355,-0.006597519,0.008886337,0,
00:00:10,0.001092911,-0.006563187,0.008874893,0,
00:10.0,0.001075745,-0.006597519,0.008886337,0,
00:10.0,0.001098633,-0.006540298,0.008886337,0,
00:10.0,0.001104355,-0.006574631,0.008863449,0,
00:10.0,0.001110077,-0.006551743,0.008869171,0,
00:10.0,0.001115799,-0.006528854,0.008892059,0,
00:10.0,0.001098633,-0.006563187,0.008892059,0,
00:10.0,0.001098633,-0.006580353,0.008874893,0,
00:10.0,0.001104355,-0.006580353,0.008846283,0,
00:10.0,0.001104355,-0.006563187,0.008846283,0,
00:10.0,0.001098633,-0.006563187,0.008909225,0,
00:10.0,0.001110077,-0.006551743,0.008903503,0,
00:10.0,0.001092911,-0.006580353,0.008874893,0,
00:10.1,0.001092911,-0.006574631,0.008880615,0,
