Elapsed_Time,EMG1,EMG2,EMG3,BioRadio Event,Unnamed: 5
00:00:00,2.29E-05,-0.000680923,0.007959366,0,
00:00.0,1.72E-05,-0.000715256,0.007959366,0,
00:00.0,1.14E-05,-0.00069809,0.007959366,0,
00:00.0,1.14E-05,-0.000663757,0.007959366,0,
00:00.0,1.72E-05,-0.000663757,0.007959366,0,
00:00.0,1.72E-05,-0.000675201,0.007959366,0,
00:00.0,1.14E-05,-0.000709534,0.007959366,0,
00:00.0,1.72E-05,-0.000692368,0.007959366,0,
00:00.0,1.72E-05,-0.000658035,0.007959366,0,
00:00.0,1.72E-05,-0.000680923,0.007959366,0,
00:00.0,2.29E-05,-0.000680923,0.007953644,0,
00:00.0,1.14E-05,-0.000686646,0.007953644,0,
00:00.0,1.14E-05,-0.000686646,0.007959366,0,
00:00.1,2.29E-05,-0.000675201,0.007959366,0,
00:00.1,2.29E-05,-0.000669479,0.007959366,0,
00:00.1,2.29E-05,-0.000675201,0.007953644,0,
00:00.1,2.29E-05,-0.000675201,0.007953644,0,
00:00.1,1.72E-05,-0.000675201,0.007959366,0,
00:00.1,1.14E-05,-0.00069809,0.007959366,0,
00:00.1,1.14E-05,-0.000703812,0.007953644,0,
00:00.1,1.72E-05,-0.000692368,0.007953644,0,
00:00.1,2.29E-05,-0.000680923,0.007953644,0,
00:00.1,1.72E-05,-0.000675201,0.007953644,0,
00:00.1,1.72E-05,-0.000675201,0.007953644,0,
00:00.1,2.29E-05,-0.000686646,0.007953644,0,
00:00.1,1.72E-05,-0.000692368,0.007953644,0,
00:00.1,1.72E-05,-0.000675201,0.007953644,0,
00:00.1,1.72E-05,-0.000686646,0.007953644,0,
00:00.1,1.14E-05,-0.000720978,0.007947922,0,
00:00.1,5.72E-06,-0.000715256,0.007953644,0,
00:00.1,1.14E-05,-0.000652313,0.007953644,0,
00:00.1,2.86E-05,-0.000640869,0.007947922,0,
00:00.1,2.86E-05,-0.000669479,0.007947922,0,
00:00.1,2.29E-05,-0.000675201,0.007947922,0,
00:00.1,1.72E-05,-0.000692368,0.007947922,0,
00:00.1,1.14E-05,-0.000720978,0.007947922,0,
00:00.1,1.14E-05,-0.000703812,0.007947922,0,
00:00.1,2.86E-05,-0.000675201,0.007947922,0,
00:00.2,2.86E-05,-0.000663757,0.007947922,0,
00:00.2,2.29E-05,-0.000675201,0.007947922,0,
00:00.2,2.29E-05,-0.000680923,0.0079422,0,
00:00.2,2.29E-05,-0.000692368,0.007947922,0,
00:00.2,2.29E-05,-0.000686646,0.007947922,0,
00:00.2,2.29E-05,-0.000675201,0.0079422,0,
00:00.2,1.72E-05,-0.000669479,0.0079422,0,
00:00.2,2.86E-05,-0.000669479,0.0079422,0,
00:00.2,2.86E-05,-0.000675201,0.0079422,0,
00:00.2,1.72E-05,-0.00069809,0.0079422,0,
00:00.2,1.14E-05,-0.0007267,0.0079422,0,
00:00.2,1.14E-05,-0.000692368,0.0079422,0,
00:00.2,1.72E-05,-0.000658035,0.0079422,0,
00:00.2,2.86E-05,-0.000646591,0.0079422,0,
00:00.2,2.29E-05,-0.000658035,0.0079422,0,
00:00.2,2.29E-05,-0.000675201,0.0079422,0,
00:00.2,1.72E-05,-0.000686646,0.0079422,0,
00:00.2,2.29E-05,-0.00069809,0.0079422,0,
00:00.2,2.29E-05,-0.000703812,0.0079422,0,
00:00.2,2.86E-05,-0.000692368,0.007936478,0,
00:00.2,2.86E-05,-0.000680923,0.007936478,0,
00:00.2,2.86E-05,-0.000686646,0.0079422,0,
00:00.2,2.86E-05,-0.000680923,0.0079422,0,
00:00.2,3.43E-05,-0.000675201,0.007936478,0,
00:00.2,3.43E-05,-0.000675201,0.007936478,0,
00:00.3,2.86E-05,-0.000675201,0.0079422,0,
00:00.3,2.86E-05,-0.000675201,0.0079422,0,
00:00.3,2.29E-05,-0.000680923,0.007936478,0,
00:00.3,2.86E-05,-0.000663757,0.007936478,0,
00:00.3,3.43E-05,-0.000669479,0.0079422,0,
00:00.3,2.29E-05,-0.000680923,0.0079422,0,
00:00.3,2.29E-05,-0.000692368,0.0079422,0,
00:00.3,2.29E-05,-0.000692368,0.0079422,0,
00:00.3,2.29E-05,-0.000675201,0.0079422,0,
00:00.3,2.86E-05,-0.000669479,0.0079422,0,
00:00.3,2.86E-05,-0.000669479,0.0079422,0,
00:00.3,2.29E-05,-0.000692368,0.0079422,0,
00:00.3,1.72E-05,-0.000686646,0.007936478,0,
00:00.3,2.29E-05,-0.000675201,0.007936478,0,
00:00.3,2.86E-05,-0.000663757,0.007936478,0,
00:00.3,2.86E-05,-0.000675201,0.007936478,0,
00:00.3,2.86E-05,-0.000675201,0.007930756,0,
00:00.3,2.86E-05,-0.000663757,0.007936478,0,
00:00.3,2.86E-05,-0.000675201,0.007936478,0,
00:00.3,2.29E-05,-0.000680923,0.007936478,0,
00:00.3,1.72E-05,-0.000703812,0.007936478,0,
00:00.3,1.72E-05,-0.000692368,0.007936478,0,
00:00.3,2.29E-05,-0.000669479,0.007936478,0,
00:00.3,2.86E-05,-0.000663757,0.007936478,0,
00:00.3,3.43E-05,-0.000669479,0.007936478,0,
00:00.4,2.86E-05,-0.000669479,0.007930756,0,
00:00.4,2.29E-05,-0.000669479,0.007930756,0,
00:00.4,2.29E-05,-0.000675201,0.007930756,0,
00:00.4,1.72E-05,-0.000680923,0.007930756,0,
00:00.4,2.86E-05,-0.000686646,0.007930756,0,
00:00.4,2.86E-05,-0.000686646,0.007930756,0,
00:00.4,2.86E-05,-0.000680923,0.007930756,0,
00:00.4,2.86E-05,-0.000669479,0.007930756,0,
00:00.4,2.29E-05,-0.000652313,0.007930756,0,
00:00.4,2.29E-05,-0.000692368,0.007930756,0,
00:00.4,1.72E-05,-0.000715256,0.007930756,0,
00:00.4,1.14E-05,-0.000675201,0.007930756,0,
00:00.4,2.29E-05,-0.000646591,0.007930756,0,
00:00.4,2.86E-05,-0.000663757,0.007925034,0,
00:00.4,2.29E-05,-0.000675201,0.007925034,0,
00:00.4,1.72E-05,-0.000675201,0.007930756,0,
00:00.4,1.72E-05,-0.000658035,0.007930756,0,
00:00.4,2.29E-05,-0.000663757,0.007925034,0,
00:00.4,2.29E-05,-0.000663757,0.007925034,0,
00:00.4,2.29E-05,-0.000675201,0.007925034,0,
00:00.4,1.72E-05,-0.000669479,0.007925034,0,
00:00.4,1.72E-05,-0.000658035,0.007919312,0,
00:00.4,1.14E-05,-0.000658035,0.007919312,0,
00:00.4,1.14E-05,-0.000658035,0.007919312,0,
00:00.4,1.72E-05,-0.000675201,0.007919312,0,
00:00.5,1.14E-05,-0.000686646,0.007919312,0,
00:00.5,1.14E-05,-0.00069809,0.007919312,0,
00:00.5,5.72E-06,-0.00069809,0.007919312,0,
00:00.5,5.72E-06,-0.000686646,0.007913589,0,
00:00.5,1.14E-05,-0.000663757,0.007913589,0,
00:00.5,1.14E-05,-0.000669479,0.007913589,0,
00:00.5,1.14E-05,-0.000675201,0.007913589,0,
00:00.5,1.14E-05,-0.000669479,0.007913589,0,
00:00.5,5.72E-06,-0.000663757,0.007913589,0,
00:00.5,5.72E-06,-0.000675201,0.007919312,0,
00:00.5,5.72E-06,-0.000692368,0.007919312,0,
00:00.5,5.72E-06,-0.00069809,0.007919312,0,
00:00.5,5.72E-06,-0.000669479,0.007919312,0,
00:00.5,1.72E-05,-0.000663757,0.007919312,0,
00:00.5,1.72E-05,-0.000663757,0.007919312,0,
00:00.5,1.14E-05,-0.000663757,0.007919312,0,
00:00.5,1.72E-05,-0.000663757,0.007919312,0,
00:00.5,1.72E-05,-0.000658035,0.007919312,0,
00:00.5,1.72E-05,-0.000680923,0.007919312,0,
00:00.5,1.72E-05,-0.000675201,0.007919312,0,
00:00.5,1.72E-05,-0.000663757,0.007919312,0,
00:00.5,1.14E-05,-0.000658035,0.007919312,0,
00:00.5,1.72E-05,-0.000663757,0.007919312,0,
00:00.5,1.72E-05,-0.000686646,0.007919312,0,
00:00.5,1.14E-05,-0.000675201,0.007919312,0,
00:00.6,1.14E-05,-0.000658035,0.007919312,0,
00:00.6,1.14E-05,-0.000663757,0.007919312,0,
00:00.6,1.14E-05,-0.000669479,0.007919312,0,
00:00.6,1.72E-05,-0.000663757,0.007919312,0,
00:00.6,1.14E-05,-0.000680923,0.007919312,0,
00:00.6,5.72E-06,-0.000680923,0.007913589,0,
00:00.6,1.14E-05,-0.000675201,0.007919312,0,
00:00.6,1.14E-05,-0.000686646,0.007919312,0,
00:00.6,1.14E-05,-0.000680923,0.007919312,0,
00:00.6,1.72E-05,-0.000663757,0.007919312,0,
00:00.6,1.72E-05,-0.000663757,0.007919312,0,
00:00.6,1.14E-05,-0.000652313,0.007913589,0,
00:00.6,1.14E-05,-0.000669479,0.007919312,0,
00:00.6,1.72E-05,-0.000703812,0.007919312,0,
00:00.6,1.14E-05,-0.00069809,0.007919312,0,
00:00.6,1.14E-05,-0.000658035,0.007919312,0,
00:00.6,1.14E-05,-0.000646591,0.007913589,0,
00:00.6,1.72E-05,-0.000646591,0.007913589,0,
00:00.6,1.14E-05,-0.000663757,0.007913589,0,
00:00.6,5.72E-06,-0.000692368,0.007913589,0,
00:00.6,5.72E-06,-0.000709534,0.007913589,0,
00:00.6,5.72E-06,-0.000686646,0.007913589,0,
00:00.6,1.14E-05,-0.000652313,0.007913589,0,
00:00.6,1.72E-05,-0.000658035,0.007913589,0,
00:00.6,1.14E-05,-0.000663757,0.007913589,0,
00:00.7,5.72E-06,-0.000663757,0.007913589,0,
00:00.7,1.14E-05,-0.000658035,0.007913589,0,
00:00.7,1.72E-05,-0.000652313,0.007913589,0,
00:00.7,1.14E-05,-0.000669479,0.007913589,0,
00:00.7,5.72E-06,-0.000675201,0.007919312,0,
00:00.7,5.72E-06,-0.000680923,0.007913589,0,
00:00.7,5.72E-06,-0.000669479,0.007913589,0,
00:00.7,5.72E-06,-0.000669479,0.007913589,0,
00:00.7,1.14E-05,-0.000658035,0.007913589,0,
00:00.7,5.72E-06,-0.000640869,0.007913589,0,
00:00.7,1.72E-05,-0.000669479,0.007913589,0,
00:00.7,1.14E-05,-0.000686646,0.007913589,0,
00:00.7,5.72E-06,-0.000675201,0.007913589,0,
00:00.7,5.72E-06,-0.000669479,0.007913589,0,
00:00.7,0,-0.000663757,0.007907867,0,
00:00.7,5.72E-06,-0.000658035,0.007907867,0,
00:00.7,5.72E-06,-0.000675201,0.007907867,0,
00:00.7,0,-0.000680923,0.007907867,0,
00:00.7,-5.72E-06,-0.000675201,0.007907867,0,
00:00.7,-5.72E-06,-0.000675201,0.007907867,0,
00:00.7,0,-0.000675201,0.007907867,0,
00:00.7,0,-0.000680923,0.007907867,0,
00:00.7,5.72E-06,-0.000669479,0.007907867,0,
00:00.7,5.72E-06,-0.000663757,0.007902145,0,
00:00.7,5.72E-06,-0.000663757,0.007902145,0,
00:00.8,0,-0.000686646,0.007902145,0,
00:00.8,0,-0.000692368,0.007902145,0,
00:00.8,1.14E-05,-0.000663757,0.007902145,0,
00:00.8,5.72E-06,-0.000663757,0.007902145,0,
00:00.8,0,-0.000663757,0.007902145,0,
00:00.8,0,-0.000686646,0.007902145,0,
00:00.8,0,-0.00069809,0.007902145,0,
00:00.8,5.72E-06,-0.000663757,0.007907867,0,
00:00.8,1.14E-05,-0.000652313,0.007907867,0,
00:00.8,1.14E-05,-0.000669479,0.007907867,0,
00:00.8,5.72E-06,-0.000669479,0.007907867,0,
00:00.8,1.14E-05,-0.000675201,0.007907867,0,
00:00.8,5.72E-06,-0.000692368,0.007902145,0,
00:00.8,5.72E-06,-0.000680923,0.007907867,0,
00:00.8,1.72E-05,-0.000652313,0.007902145,0,
00:00.8,1.72E-05,-0.000658035,0.007907867,0,
00:00.8,1.14E-05,-0.000680923,0.007902145,0,
00:00.8,1.14E-05,-0.00069809,0.007902145,0,
00:00.8,5.72E-06,-0.000715256,0.007902145,0,
00:00.8,5.72E-06,-0.00069809,0.007902145,0,
00:00.8,1.14E-05,-0.000663757,0.007902145,0,
00:00.8,1.14E-05,-0.000663757,0.007902145,0,
00:00.8,1.14E-05,-0.000669479,0.007902145,0,
00:00.8,1.14E-05,-0.000675201,0.007902145,0,
00:00.8,1.14E-05,-0.000703812,0.007902145,0,
00:00.9,1.14E-05,-0.00069809,0.007902145,0,
00:00.9,1.14E-05,-0.000669479,0.007902145,0,
00:00.9,1.14E-05,-0.000652313,0.007902145,0,
00:00.9,1.72E-05,-0.000652313,0.007902145,0,
00:00.9,1.72E-05,-0.000663757,0.007902145,0,
00:00.9,1.72E-05,-0.000669479,0.007902145,0,
00:00.9,1.14E-05,-0.000675201,0.007902145,0,
00:00.9,5.72E-06,-0.000692368,0.007902145,0,
00:00.9,5.72E-06,-0.000686646,0.007902145,0,
00:00.9,5.72E-06,-0.000658035,0.007896423,0,
00:00.9,1.14E-05,-0.000663757,0.007896423,0,
00:00.9,5.72E-06,-0.000675201,0.007896423,0,
00:00.9,1.14E-05,-0.000680923,0.007896423,0,
00:00.9,1.14E-05,-0.000669479,0.007896423,0,
00:00.9,1.14E-05,-0.000663757,0.007896423,0,
00:00.9,1.14E-05,-0.000675201,0.007896423,0,
00:00.9,5.72E-06,-0.000686646,0.007896423,0,
00:00.9,0,-0.000703812,0.007896423,0,
00:00.9,0,-0.000703812,0.007896423,0,
00:00.9,0,-0.000663757,0.007896423,0,
00:00.9,1.14E-05,-0.000646591,0.007896423,0,
00:00.9,1.72E-05,-0.000658035,0.007896423,0,
00:00.9,1.72E-05,-0.000663757,0.007896423,0,
00:00.9,1.72E-05,-0.000652313,0.007896423,0,
00:00.9,1.14E-05,-0.000675201,0.007896423,0,
00:01.0,5.72E-06,-0.000675201,0.007896423,0,
00:01.0,1.14E-05,-0.000658035,0.007896423,0,
00:01.0,1.72E-05,-0.000652313,0.007890701,0,
00:01.0,1.72E-05,-0.000658035,0.007890701,0,
00:01.0,1.72E-05,-0.000669479,0.007890701,0,
00:01.0,1.72E-05,-0.000686646,0.007890701,0,
00:01.0,1.72E-05,-0.00069809,0.007890701,0,
00:01.0,1.14E-05,-0.000675201,0.007896423,0,
00:01.0,1.14E-05,-0.000663757,0.007896423,0,
00:01.0,1.14E-05,-0.000675201,0.007890701,0,
00:01.0,1.14E-05,-0.000658035,0.007890701,0,
00:01.0,1.14E-05,-0.000658035,0.007890701,0,
00:00:01,1.72E-05,-0.000686646,0.007890701,0,
00:01.0,1.72E-05,-0.000680923,0.007890701,0,
00:01.0,1.72E-05,-0.000680923,0.007890701,0,
00:01.0,1.14E-05,-0.000692368,0.007890701,0,
00:01.0,1.72E-05,-0.000675201,0.007896423,0,
00:01.0,2.29E-05,-0.000663757,0.007896423,0,
00:01.0,2.29E-05,-0.000686646,0.007890701,0,
00:01.0,1.72E-05,-0.000675201,0.007890701,0,
00:01.0,1.14E-05,-0.000658035,0.007896423,0,
00:01.0,2.29E-05,-0.000652313,0.007896423,0,
00:01.0,1.72E-05,-0.000669479,0.007890701,0,
00:01.0,1.72E-05,-0.000692368,0.007896423,0,
00:01.0,1.14E-05,-0.000692368,0.007896423,0,
00:01.1,1.72E-05,-0.000675201,0.007890701,0,
00:01.1,2.86E-05,-0.000646591,0.007890701,0,
00:01.1,2.29E-05,-0.000640869,0.007896423,0,
00:01.1,1.72E-05,-0.000646591,0.007896423,0,
00:01.1,1.72E-05,-0.000663757,0.007890701,0,
00:01.1,1.72E-05,-0.000669479,0.007890701,0,
00:01.1,1.72E-05,-0.000663757,0.007890701,0,
00:01.1,1.72E-05,-0.000675201,0.007890701,0,
00:01.1,1.14E-05,-0.000686646,0.007890701,0,
00:01.1,1.14E-05,-0.000658035,0.007896423,0,
00:01.1,1.72E-05,-0.000663757,0.007896423,0,
00:01.1,2.29E-05,-0.000692368,0.007890701,0,
00:01.1,1.72E-05,-0.00069809,0.007896423,0,
00:01.1,1.14E-05,-0.000680923,0.007896423,0,
00:01.1,2.29E-05,-0.000663757,0.007896423,0,
00:01.1,2.29E-05,-0.000658035,0.007890701,0,
00:01.1,1.72E-05,-0.000669479,0.007896423,0,
00:01.1,1.72E-05,-0.000680923,0.007896423,0,
00:01.1,1.72E-05,-0.000669479,0.007896423,0,
00:01.1,2.29E-05,-0.000658035,0.007896423,0,
00:01.1,2.29E-05,-0.000658035,0.007896423,0,
00:01.1,2.29E-05,-0.000658035,0.007896423,0,
00:01.1,2.29E-05,-0.000669479,0.007896423,0,
00:01.1,1.72E-05,-0.000686646,0.007896423,0,
00:01.1,1.72E-05,-0.000703812,0.007902145,0,
00:01.2,1.14E-05,-0.000703812,0.007902145,0,
00:01.2,1.14E-05,-0.000675201,0.007902145,0,
00:01.2,2.29E-05,-0.000652313,0.007902145,0,
00:01.2,2.29E-05,-0.000652313,0.007902145,0,
00:01.2,2.86E-05,-0.000652313,0.007902145,0,
00:01.2,2.86E-05,-0.000652313,0.007902145,0,
00:01.2,2.29E-05,-0.000675201,0.007902145,0,
00:01.2,2.29E-05,-0.000680923,0.007902145,0,
00:01.2,2.29E-05,-0.000686646,0.007902145,0,
00:01.2,1.72E-05,-0.000680923,0.007902145,0,
00:01.2,2.29E-05,-0.000669479,0.007907867,0,
00:01.2,2.29E-05,-0.000669479,0.007907867,0,
00:01.2,2.29E-05,-0.000669479,0.007902145,0,
00:01.2,2.29E-05,-0.000663757,0.007907867,0,
00:01.2,2.86E-05,-0.000663757,0.007907867,0,
00:01.2,2.29E-05,-0.000675201,0.007907867,0,
00:01.2,2.29E-05,-0.000686646,0.007907867,0,
00:01.2,2.29E-05,-0.000686646,0.007907867,0,
00:01.2,1.72E-05,-0.000675201,0.007907867,0,
00:01.2,2.29E-05,-0.000686646,0.007907867,0,
00:01.2,2.86E-05,-0.000686646,0.007913589,0,
00:01.2,2.86E-05,-0.000675201,0.007913589,0,
00:01.2,2.86E-05,-0.000658035,0.007913589,0,
00:01.2,2.86E-05,-0.000663757,0.007913589,0,
00:01.2,1.72E-05,-0.000686646,0.007913589,0,
00:01.3,5.72E-06,-0.000743866,0.007913589,0,
00:01.3,5.72E-06,-0.0007267,0.007913589,0,
00:01.3,2.29E-05,-0.000646591,0.007913589,0,
00:01.3,2.86E-05,-0.000646591,0.007913589,0,
00:01.3,2.29E-05,-0.000652313,0.007913589,0,
00:01.3,2.29E-05,-0.000658035,0.007913589,0,
00:01.3,2.29E-05,-0.000675201,0.007913589,0,
00:01.3,1.72E-05,-0.000675201,0.007913589,0,
00:01.3,1.14E-05,-0.000675201,0.007919312,0,
00:01.3,2.29E-05,-0.000680923,0.007919312,0,
00:01.3,2.86E-05,-0.000675201,0.007919312,0,
00:01.3,2.86E-05,-0.000663757,0.007919312,0,
00:01.3,2.29E-05,-0.000675201,0.007919312,0,
00:01.3,1.72E-05,-0.000686646,0.007925034,0,
00:01.3,1.14E-05,-0.000692368,0.007925034,0,
00:01.3,1.14E-05,-0.000703812,0.007925034,0,
00:01.3,1.72E-05,-0.000703812,0.007925034,0,
00:01.3,2.29E-05,-0.000680923,0.007925034,0,
00:01.3,2.29E-05,-0.000669479,0.007925034,0,
00:01.3,2.29E-05,-0.000663757,0.007930756,0,
00:01.3,2.29E-05,-0.000675201,0.007930756,0,
00:01.3,2.29E-05,-0.000669479,0.007930756,0,
00:01.3,2.86E-05,-0.000658035,0.007936478,0,
00:01.3,3.43E-05,-0.000663757,0.007936478,0,
00:01.3,2.86E-05,-0.000669479,0.007936478,0,
00:01.4,2.29E-05,-0.000686646,0.007936478,0,
00:01.4,2.29E-05,-0.000686646,0.007936478,0,
00:01.4,2.86E-05,-0.000663757,0.007936478,0,
00:01.4,2.86E-05,-0.000669479,0.007936478,0,
00:01.4,2.29E-05,-0.000680923,0.0079422,0,
00:01.4,1.72E-05,-0.000675201,0.0079422,0,
00:01.4,2.29E-05,-0.000669479,0.0079422,0,
00:01.4,2.29E-05,-0.000675201,0.0079422,0,
00:01.4,1.72E-05,-0.000669479,0.0079422,0,
00:01.4,1.72E-05,-0.000692368,0.007936478,0,
00:01.4,1.72E-05,-0.000692368,0.007947922,0,
00:01.4,2.29E-05,-0.000709534,0.007953644,0,
00:01.4,2.29E-05,-0.000709534,0.007947922,0,
00:01.4,2.29E-05,-0.000680923,0.007953644,0,
00:01.4,2.86E-05,-0.000663757,0.007953644,0,
00:01.4,2.86E-05,-0.000663757,0.007953644,0,
00:01.4,2.86E-05,-0.000663757,0.007953644,0,
00:01.4,1.72E-05,-0.000675201,0.007953644,0,
00:01.4,1.72E-05,-0.000680923,0.007953644,0,
00:01.4,1.72E-05,-0.000663757,0.007959366,0,
00:01.4,2.29E-05,-0.000652313,0.007959366,0,
00:01.4,3.43E-05,-0.000652313,0.007959366,0,
00:01.4,2.86E-05,-0.000675201,0.007959366,0,
00:01.4,1.72E-05,-0.000692368,0.007959366,0,
00:01.4,1.72E-05,-0.000692368,0.007965088,0,
00:01.5,2.29E-05,-0.000669479,0.007965088,0,
00:01.5,2.29E-05,-0.000663757,0.007965088,0,
00:01.5,2.29E-05,-0.000675201,0.007965088,0,
00:01.5,2.29E-05,-0.000675201,0.007965088,0,
00:01.5,1.72E-05,-0.000663757,0.00797081,0,
00:01.5,2.29E-05,-0.000680923,0.00797081,0,
00:01.5,2.86E-05,-0.000692368,0.00797081,0,
00:01.5,2.29E-05,-0.00069809,0.00797081,0,
00:01.5,2.29E-05,-0.000692368,0.007976532,0,
00:01.5,1.72E-05,-0.000675201,0.007976532,0,
00:01.5,2.86E-05,-0.000658035,0.007976532,0,
00:01.5,3.43E-05,-0.000669479,0.007976532,0,
00:01.5,2.86E-05,-0.000686646,0.007982254,0,
00:01.5,2.29E-05,-0.000675201,0.007982254,0,
00:01.5,3.43E-05,-0.000669479,0.007982254,0,
00:01.5,2.86E-05,-0.000692368,0.007982254,0,
00:01.5,2.29E-05,-0.00069809,0.007987976,0,
00:01.5,1.72E-05,-0.000686646,0.007987976,0,
00:01.5,2.29E-05,-0.000692368,0.007987976,0,
00:01.5,2.29E-05,-0.000703812,0.007987976,0,
00:01.5,2.29E-05,-0.00069809,0.007993698,0,
00:01.5,2.86E-05,-0.000658035,0.007993698,0,
00:01.5,3.43E-05,-0.000629425,0.00799942,0,
00:01.5,2.86E-05,-0.000652313,0.00799942,0,
00:01.5,2.86E-05,-0.000652313,0.00799942,0,
00:01.6,2.86E-05,-0.000669479,0.00799942,0,
00:01.6,2.86E-05,-0.000675201,0.008005142,0,
00:01.6,2.86E-05,-0.000680923,0.008005142,0,
00:01.6,2.86E-05,-0.000692368,0.008005142,0,
00:01.6,2.86E-05,-0.000692368,0.008010864,0,
00:01.6,2.86E-05,-0.000675201,0.008010864,0,
00:01.6,2.86E-05,-0.000658035,0.008005142,0,
00:01.6,2.86E-05,-0.000658035,0.008010864,0,
00:01.6,2.86E-05,-0.000663757,0.008010864,0,
00:01.6,2.29E-05,-0.000663757,0.008010864,0,
00:01.6,2.29E-05,-0.000675201,0.008010864,0,
00:01.6,2.86E-05,-0.000680923,0.008016586,0,
00:01.6,2.29E-05,-0.000675201,0.008016586,0,
00:01.6,2.86E-05,-0.000680923,0.008016586,0,
00:01.6,2.29E-05,-0.000675201,0.008016586,0,
00:01.6,2.86E-05,-0.000658035,0.008022308,0,
00:01.6,2.86E-05,-0.000663757,0.008022308,0,
00:01.6,2.29E-05,-0.000692368,0.00802803,0,
00:01.6,1.72E-05,-0.000703812,0.00802803,0,
00:01.6,1.72E-05,-0.000686646,0.008033752,0,
00:01.6,2.29E-05,-0.000663757,0.008033752,0,
00:01.6,2.86E-05,-0.000652313,0.008033752,0,
00:01.6,2.86E-05,-0.000646591,0.008033752,0,
00:01.6,2.86E-05,-0.000652313,0.008039474,0,
00:01.6,2.29E-05,-0.000658035,0.008039474,0,
00:01.7,2.29E-05,-0.000686646,0.008039474,0,
00:01.7,2.29E-05,-0.000703812,0.008039474,0,
00:01.7,2.29E-05,-0.000669479,0.008045197,0,
00:01.7,2.29E-05,-0.000646591,0.008045197,0,
00:01.7,2.86E-05,-0.000658035,0.008045197,0,
00:01.7,2.86E-05,-0.000663757,0.008050919,0,
00:01.7,2.29E-05,-0.000663757,0.008050919,0,
00:01.7,2.29E-05,-0.000675201,0.008050919,0,
00:01.7,1.14E-05,-0.000680923,0.008056641,0,
00:01.7,5.72E-06,-0.000692368,0.008056641,0,
00:01.7,1.14E-05,-0.000692368,0.008062363,0,
00:01.7,1.14E-05,-0.000686646,0.008068085,0,
00:01.7,1.14E-05,-0.000669479,0.008068085,0,
00:01.7,1.72E-05,-0.000658035,0.008068085,0,
00:01.7,2.29E-05,-0.000663757,0.008068085,0,
00:01.7,1.72E-05,-0.000658035,0.008073807,0,
00:01.7,2.29E-05,-0.000652313,0.008073807,0,
00:01.7,2.29E-05,-0.000646591,0.008073807,0,
00:01.7,2.29E-05,-0.000652313,0.008073807,0,
00:01.7,2.29E-05,-0.000663757,0.008079529,0,
00:01.7,2.29E-05,-0.000680923,0.008079529,0,
00:01.7,1.14E-05,-0.000703812,0.008085251,0,
00:01.7,1.14E-05,-0.000692368,0.008085251,0,
00:01.7,2.29E-05,-0.000669479,0.008090973,0,
00:01.7,2.86E-05,-0.000663757,0.008090973,0,
00:01.8,2.86E-05,-0.000652313,0.008090973,0,
00:01.8,2.29E-05,-0.000646591,0.008090973,0,
00:01.8,2.86E-05,-0.000652313,0.008096695,0,
00:01.8,3.43E-05,-0.000658035,0.008096695,0,
00:01.8,2.86E-05,-0.000669479,0.008102417,0,
00:01.8,2.29E-05,-0.00069809,0.008102417,0,
00:01.8,1.72E-05,-0.00069809,0.008102417,0,
00:01.8,2.29E-05,-0.000669479,0.008108139,0,
00:01.8,2.86E-05,-0.000652313,0.008108139,0,
00:01.8,2.86E-05,-0.000658035,0.008108139,0,
00:01.8,3.43E-05,-0.000680923,0.008108139,0,
00:01.8,2.29E-05,-0.000686646,0.008113861,0,
00:01.8,2.86E-05,-0.000663757,0.008113861,0,
00:01.8,3.43E-05,-0.000646591,0.008113861,0,
00:01.8,3.43E-05,-0.000658035,0.008119583,0,
00:01.8,2.86E-05,-0.000669479,0.008119583,0,
00:01.8,2.86E-05,-0.000675201,0.008125305,0,
00:01.8,2.29E-05,-0.000686646,0.008125305,0,
00:01.8,2.86E-05,-0.000669479,0.008131027,0,
00:01.8,3.43E-05,-0.000669479,0.008131027,0,
00:01.8,3.43E-05,-0.000675201,0.008136749,0,
00:01.8,3.43E-05,-0.000658035,0.008136749,0,
00:01.8,4.01E-05,-0.000669479,0.008136749,0,
00:01.8,4.01E-05,-0.000663757,0.008136749,0,
00:01.8,3.43E-05,-0.000669479,0.008136749,0,
00:01.9,3.43E-05,-0.000692368,0.008142471,0,
00:01.9,3.43E-05,-0.00069809,0.008142471,0,
00:01.9,3.43E-05,-0.000680923,0.008142471,0,
00:01.9,2.86E-05,-0.000663757,0.008148193,0,
00:01.9,3.43E-05,-0.000663757,0.008148193,0,
00:01.9,4.01E-05,-0.000669479,0.008153915,0,
00:01.9,4.01E-05,-0.000658035,0.008153915,0,
00:01.9,4.01E-05,-0.000669479,0.008153915,0,
00:01.9,3.43E-05,-0.000675201,0.008159637,0,
00:01.9,3.43E-05,-0.000663757,0.008159637,0,
00:01.9,4.01E-05,-0.000652313,0.008159637,0,
00:01.9,4.01E-05,-0.000663757,0.008159637,0,
00:01.9,4.01E-05,-0.000680923,0.008165359,0,
00:01.9,3.43E-05,-0.000686646,0.008165359,0,
00:01.9,3.43E-05,-0.000680923,0.008165359,0,
00:01.9,4.01E-05,-0.000680923,0.008171082,0,
00:01.9,4.01E-05,-0.000669479,0.008171082,0,
00:01.9,3.43E-05,-0.000686646,0.008171082,0,
00:01.9,3.43E-05,-0.000680923,0.008176804,0,
00:01.9,3.43E-05,-0.000669479,0.008176804,0,
00:01.9,3.43E-05,-0.000669479,0.008182526,0,
00:01.9,3.43E-05,-0.000680923,0.008182526,0,
00:01.9,3.43E-05,-0.000686646,0.008182526,0,
00:01.9,4.01E-05,-0.000675201,0.008182526,0,
00:01.9,4.01E-05,-0.000669479,0.008188248,0,
00:02.0,4.01E-05,-0.000652313,0.008188248,0,
00:02.0,3.43E-05,-0.000663757,0.00819397,0,
00:02.0,2.86E-05,-0.000680923,0.00819397,0,
00:02.0,2.29E-05,-0.000692368,0.00819397,0,
00:02.0,2.29E-05,-0.000686646,0.00819397,0,
00:02.0,3.43E-05,-0.000675201,0.00819397,0,
00:02.0,4.01E-05,-0.000669479,0.00819397,0,
00:02.0,4.01E-05,-0.000658035,0.008199692,0,
00:02.0,4.01E-05,-0.000652313,0.008199692,0,
00:02.0,4.01E-05,-0.000646591,0.008199692,0,
00:02.0,4.01E-05,-0.000652313,0.008205414,0,
00:02.0,4.01E-05,-0.000675201,0.008205414,0,
00:00:02,2.86E-05,-0.000680923,0.008205414,0,
00:02.0,2.86E-05,-0.000663757,0.008211136,0,
00:02.0,2.86E-05,-0.000652313,0.008216858,0,
00:02.0,3.43E-05,-0.000652313,0.008216858,0,
00:02.0,3.43E-05,-0.000663757,0.008216858,0,
00:02.0,2.86E-05,-0.000675201,0.00822258,0,
00:02.0,2.29E-05,-0.000703812,0.00822258,0,
00:02.0,1.72E-05,-0.000692368,0.00822258,0,
00:02.0,2.29E-05,-0.000663757,0.008228302,0,
00:02.0,3.43E-05,-0.000658035,0.008228302,0,
00:02.0,2.86E-05,-0.000652313,0.008228302,0,
00:02.0,3.43E-05,-0.000652313,0.008234024,0,
00:02.0,3.43E-05,-0.000669479,0.008234024,0,
00:02.1,2.86E-05,-0.000680923,0.008234024,0,
00:02.1,1.72E-05,-0.000686646,0.008239746,0,
00:02.1,2.29E-05,-0.000686646,0.008239746,0,
00:02.1,2.29E-05,-0.000680923,0.008245468,0,
00:02.1,2.86E-05,-0.000675201,0.008245468,0,
00:02.1,2.86E-05,-0.000669479,0.008245468,0,
00:02.1,2.86E-05,-0.000652313,0.008245468,0,
00:02.1,2.29E-05,-0.000658035,0.008245468,0,
00:02.1,2.29E-05,-0.000669479,0.008245468,0,
00:02.1,2.86E-05,-0.000663757,0.00825119,0,
00:02.1,2.86E-05,-0.000652313,0.00825119,0,
00:02.1,2.29E-05,-0.000646591,0.00825119,0,
00:02.1,2.29E-05,-0.000652313,0.008256912,0,
00:02.1,2.29E-05,-0.000652313,0.008256912,0,
00:02.1,2.86E-05,-0.000658035,0.008262634,0,
00:02.1,2.29E-05,-0.000675201,0.008262634,0,
00:02.1,2.29E-05,-0.000686646,0.008262634,0,
00:02.1,1.72E-05,-0.000680923,0.008262634,0,
00:02.1,1.72E-05,-0.000663757,0.008262634,0,
00:02.1,2.29E-05,-0.000652313,0.008268356,0,
00:02.1,2.86E-05,-0.000658035,0.008268356,0,
00:02.1,2.29E-05,-0.000669479,0.008268356,0,
00:02.1,1.72E-05,-0.000658035,0.008268356,0,
00:02.1,2.29E-05,-0.000663757,0.008268356,0,
00:02.1,2.29E-05,-0.000680923,0.008274078,0,
00:02.2,2.29E-05,-0.000686646,0.008274078,0,
00:02.2,1.72E-05,-0.000692368,0.008274078,0,
00:02.2,1.72E-05,-0.000675201,0.0082798,0,
00:02.2,2.29E-05,-0.000675201,0.0082798,0,
00:02.2,2.86E-05,-0.000669479,0.0082798,0,
00:02.2,2.86E-05,-0.000675201,0.0082798,0,
00:02.2,2.86E-05,-0.00069809,0.008285522,0,
00:02.2,2.29E-05,-0.000720978,0.008285522,0,
00:02.2,1.14E-05,-0.000692368,0.008285522,0,
00:02.2,2.29E-05,-0.000658035,0.008285522,0,
00:02.2,3.43E-05,-0.000646591,0.008285522,0,
00:02.2,2.86E-05,-0.000652313,0.008285522,0,
00:02.2,2.86E-05,-0.000658035,0.008291245,0,
00:02.2,2.29E-05,-0.000652313,0.008291245,0,
00:02.2,2.29E-05,-0.000652313,0.008291245,0,
00:02.2,2.86E-05,-0.000652313,0.008296967,0,
00:02.2,3.43E-05,-0.000658035,0.008302689,0,
00:02.2,2.86E-05,-0.000663757,0.008302689,0,
00:02.2,2.29E-05,-0.000663757,0.008302689,0,
00:02.2,1.72E-05,-0.000669479,0.008302689,0,
00:02.2,2.29E-05,-0.000669479,0.008302689,0,
00:02.2,2.86E-05,-0.000669479,0.008308411,0,
00:02.2,2.29E-05,-0.000663757,0.008308411,0,
00:02.2,1.72E-05,-0.000669479,0.008308411,0,
00:02.2,1.72E-05,-0.000709534,0.008314133,0,
00:02.3,1.72E-05,-0.000715256,0.008314133,0,
00:02.3,1.72E-05,-0.000680923,0.008314133,0,
00:02.3,2.29E-05,-0.000675201,0.008314133,0,
00:02.3,2.29E-05,-0.000669479,0.008314133,0,
00:02.3,2.86E-05,-0.000658035,0.008314133,0,
00:02.3,2.29E-05,-0.000669479,0.008314133,0,
00:02.3,2.29E-05,-0.000658035,0.008314133,0,
00:02.3,2.29E-05,-0.000652313,0.008319855,0,
00:02.3,2.29E-05,-0.000652313,0.008319855,0,
00:02.3,1.72E-05,-0.000675201,0.008319855,0,
00:02.3,1.72E-05,-0.000680923,0.008319855,0,
00:02.3,2.29E-05,-0.000669479,0.008325577,0,
00:02.3,2.29E-05,-0.000658035,0.008325577,0,
00:02.3,2.86E-05,-0.000646591,0.008325577,0,
00:02.3,2.86E-05,-0.000669479,0.008325577,0,
00:02.3,2.29E-05,-0.000675201,0.008331299,0,
00:02.3,2.29E-05,-0.000675201,0.008331299,0,
00:02.3,1.72E-05,-0.000669479,0.008331299,0,
00:02.3,1.72E-05,-0.000675201,0.008331299,0,
00:02.3,2.29E-05,-0.000675201,0.008331299,0,
00:02.3,2.29E-05,-0.000663757,0.008337021,0,
00:02.3,2.29E-05,-0.000675201,0.008337021,0,
00:02.3,2.29E-05,-0.000692368,0.008337021,0,
00:02.3,1.72E-05,-0.000709534,0.008337021,0,
00:02.3,2.29E-05,-0.000715256,0.008337021,0,
00:02.4,1.72E-05,-0.00069809,0.008342743,0,
00:02.4,1.14E-05,-0.000675201,0.008342743,0,
00:02.4,2.29E-05,-0.000658035,0.008342743,0,
00:02.4,2.86E-05,-0.000640869,0.008342743,0,
00:02.4,2.86E-05,-0.000652313,0.008342743,0,
00:02.4,2.29E-05,-0.000663757,0.008348465,0,
00:02.4,2.29E-05,-0.000663757,0.008348465,0,
00:02.4,2.29E-05,-0.000669479,0.008348465,0,
00:02.4,1.72E-05,-0.000675201,0.008348465,0,
00:02.4,1.14E-05,-0.000686646,0.008354187,0,
00:02.4,1.14E-05,-0.000692368,0.008354187,0,
00:02.4,1.72E-05,-0.000680923,0.008354187,0,
00:02.4,1.72E-05,-0.000675201,0.008354187,0,
00:02.4,2.29E-05,-0.000686646,0.008354187,0,
00:02.4,2.86E-05,-0.000669479,0.008354187,0,
00:02.4,2.86E-05,-0.000663757,0.008354187,0,
00:02.4,2.29E-05,-0.000703812,0.008354187,0,
00:02.4,1.14E-05,-0.000709534,0.008359909,0,
00:02.4,1.14E-05,-0.000709534,0.008359909,0,
00:02.4,1.72E-05,-0.000692368,0.008365631,0,
00:02.4,2.29E-05,-0.000646591,0.008365631,0,
00:02.4,2.29E-05,-0.000652313,0.008359909,0,
00:02.4,2.29E-05,-0.000669479,0.008365631,0,
00:02.4,1.72E-05,-0.000675201,0.008365631,0,
00:02.4,1.72E-05,-0.000658035,0.008365631,0,
00:02.5,2.29E-05,-0.000663757,0.008365631,0,
00:02.5,2.29E-05,-0.000669479,0.008365631,0,
00:02.5,1.72E-05,-0.000680923,0.008371353,0,
00:02.5,1.14E-05,-0.000680923,0.008371353,0,
00:02.5,1.72E-05,-0.000675201,0.008371353,0,
00:02.5,2.29E-05,-0.000663757,0.008365631,0,
00:02.5,2.29E-05,-0.000663757,0.008371353,0,
00:02.5,2.29E-05,-0.000669479,0.008365631,0,
00:02.5,2.29E-05,-0.000675201,0.008371353,0,
00:02.5,2.29E-05,-0.000675201,0.008371353,0,
00:02.5,2.29E-05,-0.000686646,0.008371353,0,
00:02.5,2.29E-05,-0.000703812,0.008371353,0,
00:02.5,2.29E-05,-0.000692368,0.008371353,0,
00:02.5,1.72E-05,-0.000680923,0.008371353,0,
00:02.5,2.29E-05,-0.000675201,0.008371353,0,
00:02.5,2.86E-05,-0.000680923,0.008377075,0,
00:02.5,2.29E-05,-0.000675201,0.008377075,0,
00:02.5,1.72E-05,-0.000669479,0.008377075,0,
00:02.5,1.14E-05,-0.000692368,0.008377075,0,
00:02.5,1.14E-05,-0.000703812,0.008382797,0,
00:02.5,1.72E-05,-0.000692368,0.008377075,0,
00:02.5,2.29E-05,-0.000686646,0.008377075,0,
00:02.5,2.29E-05,-0.000686646,0.008382797,0,
00:02.5,1.72E-05,-0.000680923,0.008382797,0,
00:02.5,1.72E-05,-0.000663757,0.008382797,0,
00:02.6,2.29E-05,-0.000680923,0.008382797,0,
00:02.6,2.29E-05,-0.000680923,0.008382797,0,
00:02.6,2.29E-05,-0.000669479,0.008382797,0,
00:02.6,2.29E-05,-0.000669479,0.008382797,0,
00:02.6,2.29E-05,-0.000675201,0.008382797,0,
00:02.6,2.29E-05,-0.000680923,0.008382797,0,
00:02.6,2.29E-05,-0.000675201,0.008382797,0,
00:02.6,2.29E-05,-0.000675201,0.008382797,0,
00:02.6,1.72E-05,-0.000686646,0.008382797,0,
00:02.6,2.29E-05,-0.00069809,0.008388519,0,
00:02.6,2.29E-05,-0.000692368,0.008388519,0,
00:02.6,1.72E-05,-0.000686646,0.008388519,0,
00:02.6,1.14E-05,-0.000703812,0.008388519,0,
00:02.6,1.14E-05,-0.000703812,0.008388519,0,
00:02.6,1.72E-05,-0.000675201,0.008388519,0,
00:02.6,2.29E-05,-0.000652313,0.008388519,0,
00:02.6,2.29E-05,-0.000652313,0.008394241,0,
00:02.6,1.72E-05,-0.000686646,0.008394241,0,
00:02.6,1.72E-05,-0.00069809,0.008394241,0,
00:02.6,1.72E-05,-0.000669479,0.008394241,0,
00:02.6,2.29E-05,-0.000675201,0.008394241,0,
00:02.6,1.72E-05,-0.000686646,0.008394241,0,
00:02.6,1.72E-05,-0.000680923,0.008394241,0,
00:02.6,1.72E-05,-0.000658035,0.008399963,0,
00:02.6,1.72E-05,-0.000680923,0.008399963,0,
00:02.7,1.14E-05,-0.000692368,0.008399963,0,
00:02.7,1.72E-05,-0.000680923,0.008399963,0,
00:02.7,1.14E-05,-0.000686646,0.008399963,0,
00:02.7,1.14E-05,-0.000686646,0.008399963,0,
00:02.7,1.14E-05,-0.000680923,0.008399963,0,
00:02.7,1.14E-05,-0.000675201,0.008399963,0,
00:02.7,1.14E-05,-0.000686646,0.008399963,0,
00:02.7,5.72E-06,-0.000669479,0.008399963,0,
00:02.7,1.14E-05,-0.000663757,0.008399963,0,
00:02.7,5.72E-06,-0.000675201,0.008399963,0,
00:02.7,5.72E-06,-0.000675201,0.008405685,0,
00:02.7,5.72E-06,-0.000680923,0.008405685,0,
00:02.7,1.14E-05,-0.000680923,0.008405685,0,
00:02.7,5.72E-06,-0.000692368,0.008399963,0,
00:02.7,5.72E-06,-0.000680923,0.008399963,0,
00:02.7,5.72E-06,-0.000680923,0.008399963,0,
00:02.7,5.72E-06,-0.000686646,0.008405685,0,
00:02.7,5.72E-06,-0.000663757,0.008405685,0,
00:02.7,5.72E-06,-0.000663757,0.008405685,0,
00:02.7,5.72E-06,-0.000675201,0.008399963,0,
00:02.7,5.72E-06,-0.000686646,0.008405685,0,
00:02.7,0,-0.000675201,0.008405685,0,
00:02.7,0,-0.000675201,0.008405685,0,
00:02.7,0,-0.000692368,0.008405685,0,
00:02.7,0,-0.000692368,0.008405685,0,
00:02.8,5.72E-06,-0.000675201,0.008405685,0,
00:02.8,5.72E-06,-0.000658035,0.008405685,0,
00:02.8,1.14E-05,-0.000663757,0.008405685,0,
00:02.8,1.14E-05,-0.000680923,0.008405685,0,
00:02.8,5.72E-06,-0.000686646,0.008411407,0,
00:02.8,5.72E-06,-0.000680923,0.008411407,0,
00:02.8,5.72E-06,-0.000703812,0.008411407,0,
00:02.8,1.14E-05,-0.00069809,0.008405685,0,
00:02.8,1.14E-05,-0.000680923,0.008405685,0,
00:02.8,1.14E-05,-0.000680923,0.008405685,0,
00:02.8,1.14E-05,-0.000686646,0.008405685,0,
00:02.8,1.14E-05,-0.000669479,0.008405685,0,
00:02.8,5.72E-06,-0.000669479,0.008405685,0,
00:02.8,5.72E-06,-0.000686646,0.008405685,0,
00:02.8,5.72E-06,-0.00069809,0.008405685,0,
00:02.8,5.72E-06,-0.000709534,0.008405685,0,
00:02.8,5.72E-06,-0.000686646,0.008405685,0,
00:02.8,5.72E-06,-0.000669479,0.008405685,0,
00:02.8,1.14E-05,-0.000663757,0.008405685,0,
00:02.8,5.72E-06,-0.000675201,0.008405685,0,
00:02.8,5.72E-06,-0.000680923,0.008405685,0,
00:02.8,5.72E-06,-0.000669479,0.008405685,0,
00:02.8,5.72E-06,-0.000669479,0.008411407,0,
00:02.8,0,-0.000675201,0.008411407,0,
00:02.8,0,-0.000675201,0.008411407,0,
00:02.9,-5.72E-06,-0.000686646,0.008411407,0,
00:02.9,0,-0.00069809,0.008405685,0,
00:02.9,-5.72E-06,-0.000709534,0.008405685,0,
00:02.9,0,-0.00069809,0.008411407,0,
00:02.9,5.72E-06,-0.000658035,0.008411407,0,
00:02.9,5.72E-06,-0.000658035,0.008411407,0,
00:02.9,0,-0.000680923,0.008405685,0,
00:02.9,-5.72E-06,-0.00069809,0.008405685,0,
00:02.9,0,-0.000686646,0.008405685,0,
00:02.9,0,-0.000675201,0.008411407,0,
00:02.9,0,-0.000675201,0.008405685,0,
00:02.9,0,-0.000675201,0.008405685,0,
00:02.9,-5.72E-06,-0.000675201,0.008405685,0,
00:02.9,-5.72E-06,-0.000686646,0.008405685,0,
00:02.9,-5.72E-06,-0.00069809,0.008411407,0,
00:02.9,-5.72E-06,-0.000709534,0.008411407,0,
00:02.9,-5.72E-06,-0.00069809,0.008411407,0,
00:02.9,-5.72E-06,-0.000680923,0.008405685,0,
00:02.9,-5.72E-06,-0.000680923,0.008411407,0,
00:02.9,0,-0.000669479,0.008411407,0,
00:02.9,0,-0.000658035,0.008411407,0,
00:02.9,0,-0.000675201,0.008411407,0,
00:02.9,0,-0.000686646,0.008411407,0,
00:02.9,5.72E-06,-0.000669479,0.008411407,0,
00:02.9,0,-0.000703812,0.008411407,0,
00:03.0,-5.72E-06,-0.000709534,0.008411407,0,
00:03.0,0,-0.000669479,0.008411407,0,
00:03.0,0,-0.000669479,0.008405685,0,
00:03.0,5.72E-06,-0.000680923,0.008405685,0,
00:03.0,0,-0.000686646,0.008405685,0,
00:03.0,0,-0.000686646,0.008411407,0,
00:03.0,0,-0.000686646,0.008411407,0,
00:03.0,-5.72E-06,-0.00069809,0.008405685,0,
00:03.0,0,-0.000692368,0.008411407,0,
00:03.0,0,-0.000669479,0.008411407,0,
00:03.0,0,-0.000669479,0.008405685,0,
00:03.0,0,-0.000675201,0.008405685,0,
00:00:03,-5.72E-06,-0.000680923,0.008405685,0,
00:03.0,-5.72E-06,-0.000686646,0.008405685,0,
00:03.0,-1.14E-05,-0.000680923,0.008405685,0,
00:03.0,-1.14E-05,-0.000675201,0.008405685,0,
00:03.0,-1.14E-05,-0.000686646,0.008405685,0,
00:03.0,-5.72E-06,-0.000692368,0.008405685,0,
00:03.0,-5.72E-06,-0.00069809,0.008405685,0,
00:03.0,-5.72E-06,-0.000709534,0.008405685,0,
00:03.0,-5.72E-06,-0.000692368,0.008405685,0,
00:03.0,-5.72E-06,-0.000680923,0.008405685,0,
00:03.0,0,-0.00069809,0.008405685,0,
00:03.0,0,-0.000669479,0.008405685,0,
00:03.0,0,-0.000669479,0.008411407,0,
00:03.1,0,-0.000680923,0.008411407,0,
00:03.1,-5.72E-06,-0.000675201,0.008411407,0,
00:03.1,0,-0.000686646,0.008405685,0,
00:03.1,0,-0.000703812,0.008405685,0,
00:03.1,-5.72E-06,-0.000709534,0.008405685,0,
00:03.1,0,-0.000686646,0.008405685,0,
00:03.1,0,-0.000669479,0.008405685,0,
00:03.1,0,-0.000663757,0.008405685,0,
00:03.1,0,-0.000663757,0.008405685,0,
00:03.1,-5.72E-06,-0.000675201,0.008405685,0,
00:03.1,-5.72E-06,-0.000692368,0.008405685,0,
00:03.1,-5.72E-06,-0.000692368,0.008405685,0,
00:03.1,0,-0.000703812,0.008399963,0,
00:03.1,-5.72E-06,-0.000709534,0.008399963,0,
00:03.1,-5.72E-06,-0.000692368,0.008399963,0,
00:03.1,0,-0.000686646,0.008399963,0,
00:03.1,5.72E-06,-0.000675201,0.008399963,0,
00:03.1,-5.72E-06,-0.000669479,0.008399963,0,
00:03.1,-5.72E-06,-0.000692368,0.008399963,0,
00:03.1,0,-0.000686646,0.008405685,0,
00:03.1,0,-0.000686646,0.008399963,0,
00:03.1,0,-0.00069809,0.008399963,0,
00:03.1,-5.72E-06,-0.000680923,0.008405685,0,
00:03.1,0,-0.000686646,0.008405685,0,
00:03.1,5.72E-06,-0.000703812,0.008405685,0,
00:03.2,0,-0.000709534,0.008405685,0,
00:03.2,5.72E-06,-0.000692368,0.008399963,0,
00:03.2,5.72E-06,-0.000680923,0.008399963,0,
00:03.2,0,-0.000680923,0.008399963,0,
00:03.2,0,-0.000680923,0.008399963,0,
00:03.2,0,-0.000680923,0.008399963,0,
00:03.2,0,-0.000686646,0.008399963,0,
00:03.2,-1.14E-05,-0.00069809,0.008399963,0,
00:03.2,0,-0.000709534,0.008399963,0,
00:03.2,5.72E-06,-0.000703812,0.008399963,0,
00:03.2,0,-0.00069809,0.008399963,0,
00:03.2,0,-0.000686646,0.008399963,0,
00:03.2,5.72E-06,-0.000669479,0.008394241,0,
00:03.2,5.72E-06,-0.000663757,0.008394241,0,
00:03.2,5.72E-06,-0.000680923,0.008394241,0,
00:03.2,5.72E-06,-0.000680923,0.008394241,0,
00:03.2,5.72E-06,-0.000686646,0.008394241,0,
00:03.2,5.72E-06,-0.000680923,0.008394241,0,
00:03.2,0,-0.000686646,0.008394241,0,
00:03.2,0,-0.000703812,0.008388519,0,
00:03.2,0,-0.000703812,0.008394241,0,
00:03.2,-5.72E-06,-0.000715256,0.008394241,0,
00:03.2,0,-0.000686646,0.008394241,0,
00:03.2,5.72E-06,-0.000663757,0.008394241,0,
00:03.2,1.14E-05,-0.000680923,0.008394241,0,
00:03.3,5.72E-06,-0.000703812,0.008388519,0,
00:03.3,0,-0.000692368,0.008388519,0,
00:03.3,-5.72E-06,-0.000686646,0.008388519,0,
00:03.3,-5.72E-06,-0.000692368,0.008388519,0,
00:03.3,-5.72E-06,-0.000692368,0.008388519,0,
00:03.3,0,-0.000680923,0.008388519,0,
00:03.3,0,-0.000686646,0.008388519,0,
00:03.3,-5.72E-06,-0.000686646,0.008388519,0,
00:03.3,-1.14E-05,-0.000680923,0.008388519,0,
00:03.3,-5.72E-06,-0.000692368,0.008388519,0,
00:03.3,-5.72E-06,-0.000686646,0.008382797,0,
00:03.3,-5.72E-06,-0.000669479,0.008382797,0,
00:03.3,-5.72E-06,-0.000675201,0.008388519,0,
00:03.3,-5.72E-06,-0.000680923,0.008382797,0,
00:03.3,-1.14E-05,-0.000686646,0.008382797,0,
00:03.3,-5.72E-06,-0.000692368,0.008388519,0,
00:03.3,-5.72E-06,-0.000720978,0.008388519,0,
00:03.3,-1.14E-05,-0.000709534,0.008382797,0,
00:03.3,0,-0.000680923,0.008382797,0,
00:03.3,5.72E-06,-0.000669479,0.008382797,0,
00:03.3,0,-0.000675201,0.008382797,0,
00:03.3,0,-0.00069809,0.008382797,0,
00:03.3,-5.72E-06,-0.000703812,0.008382797,0,
00:03.3,-1.14E-05,-0.00069809,0.008382797,0,
00:03.3,-1.14E-05,-0.00069809,0.008382797,0,
00:03.4,0,-0.000680923,0.008382797,0,
00:03.4,-5.72E-06,-0.000680923,0.008377075,0,
00:03.4,-1.14E-05,-0.000692368,0.008377075,0,
00:03.4,-1.14E-05,-0.00069809,0.008377075,0,
00:03.4,-1.14E-05,-0.000686646,0.008377075,0,
00:03.4,-1.14E-05,-0.000692368,0.008377075,0,
00:03.4,-5.72E-06,-0.000692368,0.008377075,0,
00:03.4,-5.72E-06,-0.000692368,0.008371353,0,
00:03.4,-5.72E-06,-0.00069809,0.008371353,0,
00:03.4,-5.72E-06,-0.00069809,0.008371353,0,
00:03.4,-1.14E-05,-0.0007267,0.008371353,0,
00:03.4,-1.14E-05,-0.000743866,0.008371353,0,
00:03.4,-1.14E-05,-0.000692368,0.008371353,0,
00:03.4,-5.72E-06,-0.000652313,0.008371353,0,
00:03.4,0,-0.000663757,0.008371353,0,
00:03.4,0,-0.000686646,0.008371353,0,
00:03.4,-5.72E-06,-0.000709534,0.008365631,0,
00:03.4,-5.72E-06,-0.00069809,0.008365631,0,
00:03.4,-5.72E-06,-0.000680923,0.008365631,0,
00:03.4,-1.14E-05,-0.000686646,0.008365631,0,
00:03.4,-1.72E-05,-0.000692368,0.008365631,0,
00:03.4,-1.72E-05,-0.000686646,0.008365631,0,
00:03.4,-1.14E-05,-0.000692368,0.008365631,0,
00:03.4,-1.14E-05,-0.000692368,0.008365631,0,
00:03.4,-5.72E-06,-0.000675201,0.008365631,0,
00:03.5,0,-0.000680923,0.008365631,0,
00:03.5,-5.72E-06,-0.000692368,0.008365631,0,
00:03.5,-1.14E-05,-0.000692368,0.008365631,0,
00:03.5,-1.14E-05,-0.000675201,0.008365631,0,
00:03.5,-1.14E-05,-0.000680923,0.008365631,0,
00:03.5,-5.72E-06,-0.000680923,0.008365631,0,
00:03.5,-1.14E-05,-0.000703812,0.008365631,0,
00:03.5,-1.14E-05,-0.000709534,0.008365631,0,
00:03.5,-1.14E-05,-0.000686646,0.008365631,0,
00:03.5,-5.72E-06,-0.000675201,0.008359909,0,
00:03.5,-5.72E-06,-0.000680923,0.008359909,0,
00:03.5,-1.14E-05,-0.00069809,0.008359909,0,
00:03.5,-1.14E-05,-0.000692368,0.008359909,0,
00:03.5,-1.14E-05,-0.000692368,0.008365631,0,
00:03.5,-1.14E-05,-0.00069809,0.008359909,0,
00:03.5,-1.14E-05,-0.000686646,0.008359909,0,
00:03.5,-5.72E-06,-0.000669479,0.008359909,0,
00:03.5,-5.72E-06,-0.000680923,0.008359909,0,
00:03.5,-5.72E-06,-0.000686646,0.008354187,0,
00:03.5,-1.14E-05,-0.00069809,0.008354187,0,
00:03.5,-1.14E-05,-0.000680923,0.008354187,0,
00:03.5,-5.72E-06,-0.000663757,0.008354187,0,
00:03.5,-5.72E-06,-0.000675201,0.008354187,0,
00:03.5,-1.14E-05,-0.00069809,0.008354187,0,
00:03.5,-1.72E-05,-0.00069809,0.008354187,0,
00:03.6,-2.29E-05,-0.000692368,0.008354187,0,
00:03.6,-1.14E-05,-0.000680923,0.008354187,0,
00:03.6,-5.72E-06,-0.000675201,0.008348465,0,
00:03.6,-5.72E-06,-0.000680923,0.008348465,0,
00:03.6,-1.14E-05,-0.000675201,0.008348465,0,
00:03.6,-1.72E-05,-0.000680923,0.008348465,0,
00:03.6,-1.14E-05,-0.000680923,0.008348465,0,
00:03.6,-1.14E-05,-0.000675201,0.008348465,0,
00:03.6,-1.14E-05,-0.000675201,0.008348465,0,
00:03.6,-1.14E-05,-0.000680923,0.008348465,0,
00:03.6,-1.72E-05,-0.000692368,0.008348465,0,
00:03.6,-2.29E-05,-0.000703812,0.008348465,0,
00:03.6,-1.72E-05,-0.00069809,0.008348465,0,
00:03.6,-1.72E-05,-0.000709534,0.008348465,0,
00:03.6,-1.72E-05,-0.0007267,0.008348465,0,
00:03.6,-2.29E-05,-0.00069809,0.008348465,0,
00:03.6,-1.72E-05,-0.000703812,0.008348465,0,
00:03.6,-1.14E-05,-0.000675201,0.008342743,0,
00:03.6,-1.14E-05,-0.000663757,0.008342743,0,
00:03.6,-1.14E-05,-0.000663757,0.008342743,0,
00:03.6,-1.72E-05,-0.000680923,0.008342743,0,
00:03.6,-2.29E-05,-0.000686646,0.008342743,0,
00:03.6,-1.14E-05,-0.000680923,0.008342743,0,
00:03.6,-1.14E-05,-0.000686646,0.008342743,0,
00:03.6,-1.72E-05,-0.000686646,0.008342743,0,
00:03.7,-1.72E-05,-0.000680923,0.008342743,0,
00:03.7,-1.14E-05,-0.000680923,0.008337021,0,
00:03.7,-1.14E-05,-0.000675201,0.008337021,0,
00:03.7,-1.72E-05,-0.000675201,0.008337021,0,
00:03.7,-1.72E-05,-0.000680923,0.008337021,0,
00:03.7,-1.72E-05,-0.000692368,0.008337021,0,
00:03.7,-1.72E-05,-0.000692368,0.008337021,0,
00:03.7,-1.14E-05,-0.000680923,0.008337021,0,
00:03.7,-1.72E-05,-0.000680923,0.008337021,0,
00:03.7,-1.72E-05,-0.000680923,0.008337021,0,
00:03.7,-1.72E-05,-0.000686646,0.008337021,0,
00:03.7,-1.72E-05,-0.000692368,0.008331299,0,
00:03.7,-1.72E-05,-0.000703812,0.008331299,0,
00:03.7,-2.29E-05,-0.000709534,0.008337021,0,
00:03.7,-2.29E-05,-0.000709534,0.008337021,0,
00:03.7,-2.86E-05,-0.000715256,0.008337021,0,
00:03.7,-2.86E-05,-0.000703812,0.008337021,0,
00:03.7,-2.29E-05,-0.000680923,0.008331299,0,
00:03.7,-1.14E-05,-0.000652313,0.008331299,0,
00:03.7,-1.14E-05,-0.000675201,0.008331299,0,
00:03.7,-1.72E-05,-0.000692368,0.008331299,0,
00:03.7,-2.29E-05,-0.00069809,0.008331299,0,
00:03.7,-2.29E-05,-0.000686646,0.008325577,0,
00:03.7,-2.29E-05,-0.000680923,0.008325577,0,
00:03.7,-2.29E-05,-0.000680923,0.008331299,0,
00:03.8,-2.86E-05,-0.000692368,0.008331299,0,
00:03.8,-2.86E-05,-0.00069809,0.008331299,0,
00:03.8,-2.29E-05,-0.000686646,0.008325577,0,
00:03.8,-1.72E-05,-0.000675201,0.008325577,0,
00:03.8,-1.72E-05,-0.000675201,0.008325577,0,
00:03.8,-1.72E-05,-0.000692368,0.008325577,0,
00:03.8,-2.29E-05,-0.000686646,0.008325577,0,
00:03.8,-2.86E-05,-0.000680923,0.008325577,0,
00:03.8,-2.29E-05,-0.000680923,0.008319855,0,
00:03.8,-2.86E-05,-0.000686646,0.008319855,0,
00:03.8,-2.86E-05,-0.000692368,0.008319855,0,
00:03.8,-2.29E-05,-0.000692368,0.008325577,0,
00:03.8,-2.86E-05,-0.00069809,0.008319855,0,
00:03.8,-2.86E-05,-0.00069809,0.008319855,0,
00:03.8,-2.86E-05,-0.00069809,0.008319855,0,
00:03.8,-3.43E-05,-0.000709534,0.008319855,0,
00:03.8,-2.86E-05,-0.000680923,0.008319855,0,
00:03.8,-2.86E-05,-0.000675201,0.008314133,0,
00:03.8,-2.29E-05,-0.00069809,0.008314133,0,
00:03.8,-2.29E-05,-0.000692368,0.008314133,0,
00:03.8,-2.86E-05,-0.00069809,0.008314133,0,
00:03.8,-3.43E-05,-0.000709534,0.008314133,0,
00:03.8,-3.43E-05,-0.000703812,0.008314133,0,
00:03.8,-3.43E-05,-0.000692368,0.008314133,0,
00:03.8,-2.86E-05,-0.000686646,0.008314133,0,
00:03.9,-2.86E-05,-0.000703812,0.008314133,0,
00:03.9,-2.29E-05,-0.000692368,0.008308411,0,
00:03.9,-2.29E-05,-0.000686646,0.008308411,0,
00:03.9,-2.86E-05,-0.000692368,0.008308411,0,
00:03.9,-2.86E-05,-0.000686646,0.008308411,0,
00:03.9,-2.86E-05,-0.000692368,0.008308411,0,
00:03.9,-2.29E-05,-0.000692368,0.008308411,0,
00:03.9,-2.86E-05,-0.000686646,0.008308411,0,
00:03.9,-2.86E-05,-0.000686646,0.008308411,0,
00:03.9,-2.29E-05,-0.000686646,0.008302689,0,
00:03.9,-2.29E-05,-0.000680923,0.008302689,0,
00:03.9,-2.86E-05,-0.00069809,0.008302689,0,
00:03.9,-2.29E-05,-0.000703812,0.008302689,0,
00:03.9,-2.86E-05,-0.000692368,0.008302689,0,
00:03.9,-2.29E-05,-0.000692368,0.008302689,0,
00:03.9,-2.29E-05,-0.00069809,0.008302689,0,
00:03.9,-2.29E-05,-0.000680923,0.008296967,0,
00:03.9,-2.29E-05,-0.000709534,0.008296967,0,
00:03.9,-2.29E-05,-0.000738144,0.008302689,0,
00:03.9,-2.86E-05,-0.000709534,0.008296967,0,
00:03.9,-2.29E-05,-0.000703812,0.008296967,0,
00:03.9,-2.86E-05,-0.000715256,0.008296967,0,
00:03.9,-2.86E-05,-0.000703812,0.008296967,0,
00:03.9,-2.86E-05,-0.00069809,0.008296967,0,
00:03.9,-2.29E-05,-0.000692368,0.008296967,0,
00:04.0,-2.29E-05,-0.000680923,0.008296967,0,
00:04.0,-2.29E-05,-0.000669479,0.008296967,0,
00:04.0,-2.86E-05,-0.000686646,0.008296967,0,
00:04.0,-4.58E-05,-0.000720978,0.008296967,0,
00:04.0,-4.58E-05,-0.000715256,0.008296967,0,
00:04.0,-2.29E-05,-0.000692368,0.008291245,0,
00:04.0,-1.72E-05,-0.000680923,0.008291245,0,
00:04.0,-1.72E-05,-0.000675201,0.008291245,0,
00:04.0,-2.29E-05,-0.000686646,0.008291245,0,
00:04.0,-2.86E-05,-0.00069809,0.008291245,0,
00:04.0,-2.29E-05,-0.00069809,0.008291245,0,
00:04.0,-2.86E-05,-0.00069809,0.008291245,0,
00:00:04,-2.86E-05,-0.000738144,0.008291245,0,
00:04.0,-2.86E-05,-0.0007267,0.008285522,0,
00:04.0,-2.86E-05,-0.000692368,0.008285522,0,
00:04.0,-2.86E-05,-0.000686646,0.008285522,0,
00:04.0,-2.29E-05,-0.000692368,0.008285522,0,
00:04.0,-2.86E-05,-0.000692368,0.008285522,0,
00:04.0,-2.86E-05,-0.000692368,0.008285522,0,
00:04.0,-2.86E-05,-0.000692368,0.008285522,0,
00:04.0,-2.29E-05,-0.000686646,0.008285522,0,
00:04.0,-2.86E-05,-0.000692368,0.008285522,0,
00:04.0,-2.86E-05,-0.00069809,0.008285522,0,
00:04.0,-2.86E-05,-0.000703812,0.008285522,0,
00:04.0,-2.29E-05,-0.000703812,0.008285522,0,
00:04.1,-2.29E-05,-0.000703812,0.008285522,0,
00:04.1,-2.29E-05,-0.000692368,0.0082798,0,
00:04.1,-2.86E-05,-0.00069809,0.0082798,0,
00:04.1,-3.43E-05,-0.000715256,0.0082798,0,
00:04.1,-2.86E-05,-0.000709534,0.0082798,0,
00:04.1,-2.29E-05,-0.000686646,0.0082798,0,
00:04.1,-1.14E-05,-0.000675201,0.0082798,0,
00:04.1,-1.14E-05,-0.000680923,0.0082798,0,
00:04.1,-2.29E-05,-0.000715256,0.0082798,0,
00:04.1,-3.43E-05,-0.000720978,0.0082798,0,
00:04.1,-2.86E-05,-0.000686646,0.0082798,0,
00:04.1,-1.72E-05,-0.000692368,0.0082798,0,
00:04.1,-2.29E-05,-0.000709534,0.008274078,0,
00:04.1,-2.29E-05,-0.000686646,0.008274078,0,
00:04.1,-1.72E-05,-0.000669479,0.008274078,0,
00:04.1,-1.72E-05,-0.000675201,0.008274078,0,
00:04.1,-1.72E-05,-0.000680923,0.008274078,0,
00:04.1,-1.72E-05,-0.000686646,0.008274078,0,
00:04.1,-1.72E-05,-0.000692368,0.008274078,0,
00:04.1,-2.29E-05,-0.000692368,0.008274078,0,
00:04.1,-2.29E-05,-0.00069809,0.008274078,0,
00:04.1,-2.86E-05,-0.000703812,0.008274078,0,
00:04.1,-2.29E-05,-0.00069809,0.008274078,0,
00:04.1,-2.29E-05,-0.00069809,0.008268356,0,
00:04.1,-1.72E-05,-0.000692368,0.008268356,0,
00:04.2,-1.72E-05,-0.000692368,0.008268356,0,
00:04.2,-1.72E-05,-0.00069809,0.008268356,0,
00:04.2,-1.72E-05,-0.000703812,0.008268356,0,
00:04.2,-1.72E-05,-0.000692368,0.008268356,0,
00:04.2,-1.72E-05,-0.000686646,0.008268356,0,
00:04.2,-1.72E-05,-0.000692368,0.008268356,0,
00:04.2,-2.29E-05,-0.00069809,0.008268356,0,
00:04.2,-1.72E-05,-0.00069809,0.008268356,0,
00:04.2,-2.29E-05,-0.00069809,0.008268356,0,
00:04.2,-1.72E-05,-0.000686646,0.008262634,0,
00:04.2,-1.72E-05,-0.000692368,0.008262634,0,
00:04.2,-2.29E-05,-0.000709534,0.008262634,0,
00:04.2,-2.86E-05,-0.000720978,0.008262634,0,
00:04.2,-2.29E-05,-0.000703812,0.008262634,0,
00:04.2,-2.29E-05,-0.000686646,0.008262634,0,
00:04.2,-2.29E-05,-0.000680923,0.008262634,0,
00:04.2,-2.29E-05,-0.000692368,0.008262634,0,
00:04.2,-2.29E-05,-0.000709534,0.008262634,0,
00:04.2,-2.29E-05,-0.000703812,0.008262634,0,
00:04.2,-2.29E-05,-0.000686646,0.008262634,0,
00:04.2,-2.29E-05,-0.000680923,0.008262634,0,
00:04.2,-2.29E-05,-0.000686646,0.008262634,0,
00:04.2,-2.29E-05,-0.000692368,0.008262634,0,
00:04.2,-2.86E-05,-0.000686646,0.008262634,0,
00:04.2,-3.43E-05,-0.00069809,0.008262634,0,
00:04.3,-3.43E-05,-0.000703812,0.008256912,0,
00:04.3,-2.86E-05,-0.000709534,0.008256912,0,
00:04.3,-3.43E-05,-0.000703812,0.008262634,0,
00:04.3,-2.86E-05,-0.000703812,0.008262634,0,
00:04.3,-2.29E-05,-0.000686646,0.008256912,0,
00:04.3,-2.29E-05,-0.000692368,0.008262634,0,
00:04.3,-2.86E-05,-0.00069809,0.008256912,0,
00:04.3,-2.86E-05,-0.000669479,0.008256912,0,
00:04.3,-1.72E-05,-0.000663757,0.008256912,0,
00:04.3,-1.72E-05,-0.000675201,0.008256912,0,
00:04.3,-1.72E-05,-0.000686646,0.008256912,0,
00:04.3,-1.72E-05,-0.000692368,0.008256912,0,
00:04.3,-2.29E-05,-0.0007267,0.008256912,0,
00:04.3,-2.29E-05,-0.000732422,0.008256912,0,
00:04.3,-2.29E-05,-0.000686646,0.00825119,0,
00:04.3,-1.72E-05,-0.000640869,0.00825119,0,
00:04.3,-5.72E-06,-0.000652313,0.00825119,0,
00:04.3,-1.14E-05,-0.000675201,0.00825119,0,
00:04.3,-1.14E-05,-0.000675201,0.00825119,0,
00:04.3,-1.14E-05,-0.000675201,0.00825119,0,
00:04.3,-1.72E-05,-0.00069809,0.00825119,0,
00:04.3,-1.72E-05,-0.00069809,0.00825119,0,
00:04.3,-1.14E-05,-0.00069809,0.00825119,0,
00:04.3,-1.72E-05,-0.000715256,0.00825119,0,
00:04.3,-1.72E-05,-0.000686646,0.00825119,0,
00:04.4,-1.72E-05,-0.00069809,0.00825119,0,
00:04.4,-1.72E-05,-0.000732422,0.00825119,0,
00:04.4,-1.72E-05,-0.000720978,0.00825119,0,
00:04.4,-1.14E-05,-0.000675201,0.00825119,0,
00:04.4,-5.72E-06,-0.000663757,0.008245468,0,
00:04.4,-5.72E-06,-0.000652313,0.008245468,0,
00:04.4,-5.72E-06,-0.000663757,0.008245468,0,
00:04.4,-1.14E-05,-0.000680923,0.008245468,0,
00:04.4,-1.14E-05,-0.000692368,0.008245468,0,
00:04.4,-1.14E-05,-0.000686646,0.008245468,0,
00:04.4,-1.72E-05,-0.000686646,0.008245468,0,
00:04.4,-1.72E-05,-0.000692368,0.008245468,0,
00:04.4,-1.72E-05,-0.000680923,0.008245468,0,
00:04.4,-1.72E-05,-0.000680923,0.008245468,0,
00:04.4,-2.29E-05,-0.000692368,0.008245468,0,
00:04.4,-2.86E-05,-0.000680923,0.008245468,0,
00:04.4,-2.29E-05,-0.000692368,0.008239746,0,
00:04.4,-1.72E-05,-0.000686646,0.008239746,0,
00:04.4,-2.29E-05,-0.000680923,0.008245468,0,
00:04.4,-1.72E-05,-0.000692368,0.008245468,0,
00:04.4,-1.72E-05,-0.000686646,0.008239746,0,
00:04.4,-2.29E-05,-0.000715256,0.008239746,0,
00:04.4,-2.86E-05,-0.000749588,0.008239746,0,
00:04.4,-2.86E-05,-0.000732422,0.008239746,0,
00:04.4,-2.29E-05,-0.00069809,0.008239746,0,
00:04.5,-1.72E-05,-0.000658035,0.008239746,0,
00:04.5,-1.72E-05,-0.000663757,0.008239746,0,
00:04.5,-2.29E-05,-0.000680923,0.008239746,0,
00:04.5,-2.29E-05,-0.000680923,0.008239746,0,
00:04.5,-1.72E-05,-0.000680923,0.008239746,0,
00:04.5,-1.14E-05,-0.000675201,0.008239746,0,
00:04.5,-1.72E-05,-0.000686646,0.008239746,0,
00:04.5,-2.29E-05,-0.00069809,0.008239746,0,
00:04.5,-1.72E-05,-0.000680923,0.008239746,0,
00:04.5,-1.14E-05,-0.000663757,0.008239746,0,
00:04.5,-1.72E-05,-0.000669479,0.008234024,0,
00:04.5,-1.72E-05,-0.000686646,0.008234024,0,
00:04.5,-1.72E-05,-0.000680923,0.008234024,0,
00:04.5,-1.14E-05,-0.000669479,0.008234024,0,
00:04.5,-1.14E-05,-0.000680923,0.008234024,0,
00:04.5,-1.72E-05,-0.000675201,0.008234024,0,
00:04.5,-1.72E-05,-0.000675201,0.008234024,0,
00:04.5,-1.72E-05,-0.00069809,0.008234024,0,
00:04.5,-1.72E-05,-0.000703812,0.008234024,0,
00:04.5,-2.29E-05,-0.00069809,0.008234024,0,
00:04.5,-2.29E-05,-0.000686646,0.008234024,0,
00:04.5,-2.86E-05,-0.000663757,0.008234024,0,
00:04.5,-2.29E-05,-0.000680923,0.008234024,0,
00:04.5,-2.29E-05,-0.00069809,0.008234024,0,
00:04.5,-2.29E-05,-0.000715256,0.008228302,0,
00:04.6,-2.86E-05,-0.000709534,0.008228302,0,
00:04.6,-2.86E-05,-0.000692368,0.008228302,0,
00:04.6,-2.29E-05,-0.000663757,0.008228302,0,
00:04.6,-1.72E-05,-0.000669479,0.008228302,0,
00:04.6,-2.29E-05,-0.000680923,0.008228302,0,
00:04.6,-2.29E-05,-0.000669479,0.008234024,0,
00:04.6,-2.29E-05,-0.000663757,0.008234024,0,
00:04.6,-2.29E-05,-0.000669479,0.008228302,0,
00:04.6,-2.29E-05,-0.000669479,0.008228302,0,
00:04.6,-2.86E-05,-0.000680923,0.008234024,0,
00:04.6,-2.86E-05,-0.000675201,0.008234024,0,
00:04.6,-2.86E-05,-0.000675201,0.008234024,0,
00:04.6,-2.86E-05,-0.000675201,0.008228302,0,
00:04.6,-2.86E-05,-0.000675201,0.008234024,0,
00:04.6,-2.86E-05,-0.000686646,0.008228302,0,
00:04.6,-2.86E-05,-0.000692368,0.008228302,0,
00:04.6,-3.43E-05,-0.000703812,0.008228302,0,
00:04.6,-3.43E-05,-0.000686646,0.008228302,0,
00:04.6,-2.86E-05,-0.000686646,0.008228302,0,
00:04.6,-2.29E-05,-0.000680923,0.008228302,0,
00:04.6,-2.29E-05,-0.000663757,0.008228302,0,
00:04.6,-2.86E-05,-0.000675201,0.008228302,0,
00:04.6,-2.86E-05,-0.000680923,0.008228302,0,
00:04.6,-3.43E-05,-0.000692368,0.008228302,0,
00:04.6,-3.43E-05,-0.000686646,0.008228302,0,
00:04.7,-2.29E-05,-0.000680923,0.00822258,0,
00:04.7,-2.86E-05,-0.000680923,0.00822258,0,
00:04.7,-2.86E-05,-0.000680923,0.00822258,0,
00:04.7,-2.86E-05,-0.000669479,0.008228302,0,
00:04.7,-2.29E-05,-0.000658035,0.008228302,0,
00:04.7,-2.86E-05,-0.000663757,0.00822258,0,
00:04.7,-2.86E-05,-0.000663757,0.00822258,0,
00:04.7,-2.29E-05,-0.000675201,0.00822258,0,
00:04.7,-2.29E-05,-0.000680923,0.00822258,0,
00:04.7,-2.29E-05,-0.000680923,0.00822258,0,
00:04.7,-1.72E-05,-0.000675201,0.008216858,0,
00:04.7,-2.29E-05,-0.000663757,0.008216858,0,
00:04.7,-2.29E-05,-0.000663757,0.00822258,0,
00:04.7,-2.29E-05,-0.000663757,0.00822258,0,
00:04.7,-2.29E-05,-0.000663757,0.00822258,0,
00:04.7,-2.86E-05,-0.000675201,0.008216858,0,
00:04.7,-2.86E-05,-0.000675201,0.00822258,0,
00:04.7,-2.86E-05,-0.000686646,0.008216858,0,
00:04.7,-3.43E-05,-0.000703812,0.00822258,0,
00:04.7,-3.43E-05,-0.000709534,0.00822258,0,
00:04.7,-3.43E-05,-0.000692368,0.008216858,0,
00:04.7,-2.86E-05,-0.000658035,0.008216858,0,
00:04.7,-2.29E-05,-0.000652313,0.008216858,0,
00:04.7,-2.86E-05,-0.000658035,0.008216858,0,
00:04.7,-2.86E-05,-0.000669479,0.008216858,0,
00:04.8,-4.01E-05,-0.000692368,0.008216858,0,
00:04.8,-3.43E-05,-0.000686646,0.008216858,0,
00:04.8,-2.86E-05,-0.000675201,0.008216858,0,
00:04.8,-2.86E-05,-0.000675201,0.008216858,0,
00:04.8,-2.86E-05,-0.000669479,0.008216858,0,
00:04.8,-2.86E-05,-0.000663757,0.008216858,0,
00:04.8,-2.86E-05,-0.000686646,0.008216858,0,
00:04.8,-3.43E-05,-0.000680923,0.008216858,0,
00:04.8,-2.86E-05,-0.000675201,0.008216858,0,
00:04.8,-2.29E-05,-0.000663757,0.008216858,0,
00:04.8,-2.86E-05,-0.000663757,0.008216858,0,
00:04.8,-2.29E-05,-0.000680923,0.008216858,0,
00:04.8,-1.72E-05,-0.000680923,0.008216858,0,
00:04.8,-2.29E-05,-0.000686646,0.008216858,0,
00:04.8,-2.29E-05,-0.000686646,0.008216858,0,
00:04.8,-2.29E-05,-0.00069809,0.008216858,0,
00:04.8,-2.86E-05,-0.000703812,0.008216858,0,
00:04.8,-2.86E-05,-0.000680923,0.008216858,0,
00:04.8,-1.72E-05,-0.000652313,0.008216858,0,
00:04.8,-1.72E-05,-0.000663757,0.008216858,0,
00:04.8,-2.86E-05,-0.000686646,0.008216858,0,
00:04.8,-2.86E-05,-0.000709534,0.00822258,0,
00:04.8,-2.86E-05,-0.000703812,0.00822258,0,
00:04.8,-2.86E-05,-0.000703812,0.008216858,0,
00:04.8,-2.29E-05,-0.000675201,0.00822258,0,
00:04.9,-1.72E-05,-0.000646591,0.00822258,0,
00:04.9,-1.72E-05,-0.000652313,0.00822258,0,
00:04.9,-2.29E-05,-0.000658035,0.00822258,0,
00:04.9,-2.29E-05,-0.000675201,0.00822258,0,
00:04.9,-2.29E-05,-0.000675201,0.00822258,0,
00:04.9,-2.29E-05,-0.000675201,0.00822258,0,
00:04.9,-2.29E-05,-0.000669479,0.00822258,0,
00:04.9,-2.29E-05,-0.000669479,0.008216858,0,
00:04.9,-2.29E-05,-0.000669479,0.008216858,0,
00:04.9,-2.86E-05,-0.000680923,0.00822258,0,
00:04.9,-2.86E-05,-0.000686646,0.00822258,0,
00:04.9,-2.86E-05,-0.000692368,0.00822258,0,
00:04.9,-2.29E-05,-0.000692368,0.00822258,0,
00:04.9,-2.86E-05,-0.000703812,0.008228302,0,
00:04.9,-2.86E-05,-0.000703812,0.008228302,0,
00:04.9,-2.29E-05,-0.000675201,0.008228302,0,
00:04.9,-1.72E-05,-0.000652313,0.00822258,0,
00:04.9,-1.72E-05,-0.000669479,0.00822258,0,
00:04.9,-2.29E-05,-0.000675201,0.008228302,0,
00:04.9,-1.72E-05,-0.000680923,0.008228302,0,
00:04.9,-2.86E-05,-0.000686646,0.008228302,0,
00:04.9,-2.86E-05,-0.000680923,0.00822258,0,
00:04.9,-2.29E-05,-0.000675201,0.00822258,0,
00:04.9,-2.86E-05,-0.000680923,0.008228302,0,
00:04.9,-2.86E-05,-0.000692368,0.008228302,0,
00:05.0,-2.86E-05,-0.00069809,0.008234024,0,
00:05.0,-2.86E-05,-0.000715256,0.008234024,0,
00:05.0,-2.86E-05,-0.000686646,0.008228302,0,
00:05.0,-2.29E-05,-0.000658035,0.008234024,0,
00:05.0,-1.72E-05,-0.000663757,0.008228302,0,
00:05.0,-2.29E-05,-0.000669479,0.008234024,0,
00:05.0,-2.29E-05,-0.000675201,0.008234024,0,
00:05.0,-2.29E-05,-0.000675201,0.008234024,0,
00:05.0,-2.29E-05,-0.000669479,0.008234024,0,
00:05.0,-2.29E-05,-0.000675201,0.008234024,0,
00:05.0,-2.29E-05,-0.000686646,0.008234024,0,
00:05.0,-2.86E-05,-0.000692368,0.008234024,0,
00:00:05,-2.86E-05,-0.00069809,0.008234024,0,
00:05.0,-2.29E-05,-0.000675201,0.008234024,0,
00:05.0,-1.72E-05,-0.000663757,0.008239746,0,
00:05.0,-2.29E-05,-0.000663757,0.008234024,0,
00:05.0,-2.86E-05,-0.000658035,0.008234024,0,
00:05.0,-2.86E-05,-0.000658035,0.008234024,0,
00:05.0,-2.29E-05,-0.000669479,0.008234024,0,
00:05.0,-1.72E-05,-0.000675201,0.008234024,0,
00:05.0,-1.72E-05,-0.000675201,0.008234024,0,
00:05.0,-2.29E-05,-0.000680923,0.008234024,0,
00:05.0,-2.29E-05,-0.000686646,0.008234024,0,
00:05.0,-2.29E-05,-0.000680923,0.008234024,0,
00:05.0,-2.29E-05,-0.000680923,0.008234024,0,
00:05.1,-2.86E-05,-0.000675201,0.008234024,0,
00:05.1,-2.86E-05,-0.000669479,0.008239746,0,
00:05.1,-3.43E-05,-0.000663757,0.008239746,0,
00:05.1,-3.43E-05,-0.000703812,0.008239746,0,
00:05.1,-2.29E-05,-0.000703812,0.008239746,0,
00:05.1,-2.29E-05,-0.000686646,0.008239746,0,
00:05.1,-2.29E-05,-0.000652313,0.008239746,0,
00:05.1,-1.72E-05,-0.000640869,0.008239746,0,
00:05.1,-1.14E-05,-0.000640869,0.008239746,0,
00:05.1,-1.14E-05,-0.000646591,0.008239746,0,
00:05.1,-1.72E-05,-0.000658035,0.008245468,0,
00:05.1,-1.72E-05,-0.000663757,0.008245468,0,
00:05.1,-2.29E-05,-0.000669479,0.008245468,0,
00:05.1,-2.29E-05,-0.000669479,0.008245468,0,
00:05.1,-2.86E-05,-0.000669479,0.008245468,0,
00:05.1,-2.29E-05,-0.000669479,0.008245468,0,
00:05.1,-1.72E-05,-0.000663757,0.008245468,0,
00:05.1,-1.72E-05,-0.000680923,0.008245468,0,
00:05.1,-2.86E-05,-0.00069809,0.00825119,0,
00:05.1,-2.86E-05,-0.000686646,0.008245468,0,
00:05.1,-2.86E-05,-0.000658035,0.008245468,0,
00:05.1,-2.86E-05,-0.000669479,0.008245468,0,
00:05.1,-1.72E-05,-0.000669479,0.008245468,0,
00:05.1,-1.72E-05,-0.000652313,0.008245468,0,
00:05.1,-1.72E-05,-0.000658035,0.008245468,0,
00:05.2,-1.72E-05,-0.000680923,0.00825119,0,
00:05.2,-2.29E-05,-0.000680923,0.00825119,0,
00:05.2,-2.86E-05,-0.000680923,0.00825119,0,
00:05.2,-2.29E-05,-0.000675201,0.008256912,0,
00:05.2,-1.72E-05,-0.000652313,0.00825119,0,
00:05.2,-1.14E-05,-0.000640869,0.008256912,0,
00:05.2,-1.72E-05,-0.000652313,0.008256912,0,
00:05.2,-1.72E-05,-0.000658035,0.008256912,0,
00:05.2,-1.72E-05,-0.000663757,0.008256912,0,
00:05.2,-2.29E-05,-0.000686646,0.008256912,0,
00:05.2,-2.29E-05,-0.00069809,0.008262634,0,
00:05.2,-2.86E-05,-0.000686646,0.008262634,0,
00:05.2,-2.29E-05,-0.000663757,0.008262634,0,
00:05.2,-1.72E-05,-0.000658035,0.008262634,0,
00:05.2,-1.72E-05,-0.000658035,0.008268356,0,
00:05.2,-1.72E-05,-0.000663757,0.008268356,0,
00:05.2,-2.86E-05,-0.000675201,0.008268356,0,
00:05.2,-2.86E-05,-0.000675201,0.008268356,0,
00:05.2,-3.43E-05,-0.000715256,0.008268356,0,
00:05.2,-3.43E-05,-0.000680923,0.008274078,0,
00:05.2,-2.29E-05,-0.000646591,0.008274078,0,
00:05.2,-1.72E-05,-0.000652313,0.008268356,0,
00:05.2,-1.14E-05,-0.000646591,0.008268356,0,
00:05.2,-1.14E-05,-0.000658035,0.008274078,0,
00:05.2,-1.72E-05,-0.000669479,0.008268356,0,
00:05.3,-1.72E-05,-0.000680923,0.008274078,0,
00:05.3,-2.29E-05,-0.00069809,0.008274078,0,
00:05.3,-2.86E-05,-0.000686646,0.008274078,0,
00:05.3,-2.86E-05,-0.000675201,0.008274078,0,
00:05.3,-2.29E-05,-0.000652313,0.008274078,0,
00:05.3,-2.29E-05,-0.000658035,0.0082798,0,
00:05.3,-2.29E-05,-0.000669479,0.0082798,0,
00:05.3,-2.29E-05,-0.000669479,0.0082798,0,
00:05.3,-2.29E-05,-0.000669479,0.0082798,0,
00:05.3,-2.29E-05,-0.000692368,0.008285522,0,
00:05.3,-4.01E-05,-0.0007267,0.008285522,0,
00:05.3,-4.01E-05,-0.00069809,0.008285522,0,
00:05.3,-2.29E-05,-0.000675201,0.008285522,0,
00:05.3,-1.14E-05,-0.000675201,0.008285522,0,
00:05.3,-2.29E-05,-0.000658035,0.008285522,0,
00:05.3,-2.29E-05,-0.000646591,0.008285522,0,
00:05.3,-1.14E-05,-0.000658035,0.008285522,0,
00:05.3,-1.72E-05,-0.000663757,0.008285522,0,
00:05.3,-1.72E-05,-0.000675201,0.008291245,0,
00:05.3,-2.29E-05,-0.000709534,0.008291245,0,
00:05.3,-2.86E-05,-0.000715256,0.008291245,0,
00:05.3,-2.29E-05,-0.000686646,0.008296967,0,
00:05.3,-1.72E-05,-0.000663757,0.008296967,0,
00:05.3,-1.14E-05,-0.000652313,0.008296967,0,
00:05.3,-1.72E-05,-0.000658035,0.008296967,0,
00:05.4,-1.72E-05,-0.000663757,0.008296967,0,
00:05.4,-1.14E-05,-0.000669479,0.008296967,0,
00:05.4,-1.72E-05,-0.000669479,0.008296967,0,
00:05.4,-1.72E-05,-0.000686646,0.008302689,0,
00:05.4,-1.72E-05,-0.000703812,0.008302689,0,
00:05.4,-1.72E-05,-0.000686646,0.008302689,0,
00:05.4,-1.14E-05,-0.000663757,0.008302689,0,
00:05.4,-5.72E-06,-0.000669479,0.008302689,0,
00:05.4,-1.14E-05,-0.000692368,0.008302689,0,
00:05.4,-1.72E-05,-0.000692368,0.008302689,0,
00:05.4,-1.72E-05,-0.000675201,0.008308411,0,
00:05.4,-1.14E-05,-0.000686646,0.008308411,0,
00:05.4,-1.14E-05,-0.000680923,0.008308411,0,
00:05.4,-1.14E-05,-0.000669479,0.008308411,0,
00:05.4,-5.72E-06,-0.000669479,0.008308411,0,
00:05.4,-1.14E-05,-0.000669479,0.008314133,0,
00:05.4,-1.14E-05,-0.000675201,0.008314133,0,
00:05.4,-5.72E-06,-0.000675201,0.008314133,0,
00:05.4,-5.72E-06,-0.000658035,0.008319855,0,
00:05.4,-1.72E-05,-0.000675201,0.008319855,0,
00:05.4,-1.72E-05,-0.000692368,0.008319855,0,
00:05.4,-1.72E-05,-0.00069809,0.008319855,0,
00:05.4,-1.72E-05,-0.000680923,0.008325577,0,
00:05.4,-1.72E-05,-0.000663757,0.008325577,0,
00:05.4,-1.14E-05,-0.000663757,0.008325577,0,
00:05.5,-5.72E-06,-0.000658035,0.008325577,0,
00:05.5,-5.72E-06,-0.000663757,0.008325577,0,
00:05.5,-1.14E-05,-0.000669479,0.008331299,0,
00:05.5,-1.72E-05,-0.000680923,0.008331299,0,
00:05.5,-1.72E-05,-0.000709534,0.008331299,0,
00:05.5,-2.86E-05,-0.000715256,0.008331299,0,
00:05.5,-2.86E-05,-0.000686646,0.008331299,0,
00:05.5,-1.14E-05,-0.000663757,0.008331299,0,
00:05.5,0,-0.000663757,0.008331299,0,
00:05.5,-1.14E-05,-0.000675201,0.008337021,0,
00:05.5,-1.14E-05,-0.000680923,0.008337021,0,
00:05.5,-1.14E-05,-0.000669479,0.008337021,0,
00:05.5,-1.14E-05,-0.000675201,0.008337021,0,
00:05.5,-1.14E-05,-0.00069809,0.008342743,0,
00:05.5,-1.14E-05,-0.000692368,0.008342743,0,
00:05.5,-1.14E-05,-0.00069809,0.008342743,0,
00:05.5,-1.14E-05,-0.000703812,0.008342743,0,
00:05.5,-1.14E-05,-0.00069809,0.008348465,0,
00:05.5,-1.72E-05,-0.000686646,0.008348465,0,
00:05.5,-1.14E-05,-0.000663757,0.008348465,0,
00:05.5,-1.14E-05,-0.000658035,0.008348465,0,
00:05.5,-1.14E-05,-0.000686646,0.008348465,0,
00:05.5,-1.14E-05,-0.000686646,0.008354187,0,
00:05.5,-1.72E-05,-0.000680923,0.008354187,0,
00:05.5,-1.72E-05,-0.000680923,0.008354187,0,
00:05.6,-2.29E-05,-0.00069809,0.008354187,0,
00:05.6,-2.86E-05,-0.000738144,0.008359909,0,
00:05.6,-3.43E-05,-0.000743866,0.008359909,0,
00:05.6,-3.43E-05,-0.000715256,0.008359909,0,
00:05.6,-1.14E-05,-0.000692368,0.008359909,0,
00:05.6,-5.72E-06,-0.000663757,0.008359909,0,
00:05.6,-1.14E-05,-0.000646591,0.008359909,0,
00:05.6,-1.72E-05,-0.000663757,0.008365631,0,
00:05.6,-1.72E-05,-0.000680923,0.008365631,0,
00:05.6,-2.29E-05,-0.000703812,0.008365631,0,
00:05.6,-2.86E-05,-0.000703812,0.008365631,0,
00:05.6,-2.29E-05,-0.00069809,0.008365631,0,
00:05.6,-1.14E-05,-0.00069809,0.008365631,0,
00:05.6,-1.14E-05,-0.000692368,0.008365631,0,
00:05.6,-1.14E-05,-0.000669479,0.008371353,0,
00:05.6,-1.14E-05,-0.000663757,0.008371353,0,
00:05.6,-1.72E-05,-0.000675201,0.008371353,0,
00:05.6,-2.29E-05,-0.000686646,0.008371353,0,
00:05.6,-2.29E-05,-0.00069809,0.008371353,0,
00:05.6,-2.29E-05,-0.00069809,0.008377075,0,
00:05.6,-2.29E-05,-0.00069809,0.008377075,0,
00:05.6,-2.86E-05,-0.000720978,0.008377075,0,
00:05.6,-2.86E-05,-0.0007267,0.008377075,0,
00:05.6,-2.86E-05,-0.00069809,0.008382797,0,
00:05.6,-2.29E-05,-0.000675201,0.008377075,0,
00:05.7,-1.72E-05,-0.000675201,0.008377075,0,
00:05.7,-1.72E-05,-0.000680923,0.008382797,0,
00:05.7,-2.29E-05,-0.000692368,0.008382797,0,
00:05.7,-2.86E-05,-0.000703812,0.008388519,0,
00:05.7,-3.43E-05,-0.000703812,0.008388519,0,
00:05.7,-2.86E-05,-0.000680923,0.008388519,0,
00:05.7,-2.29E-05,-0.000658035,0.008388519,0,
00:05.7,-2.86E-05,-0.000686646,0.008388519,0,
00:05.7,-2.86E-05,-0.000663757,0.008388519,0,
00:05.7,-2.29E-05,-0.000675201,0.008388519,0,
00:05.7,-2.29E-05,-0.000692368,0.008394241,0,
00:05.7,-2.86E-05,-0.000692368,0.008394241,0,
00:05.7,-2.86E-05,-0.000686646,0.008394241,0,
00:05.7,-3.43E-05,-0.00069809,0.008394241,0,
00:05.7,-3.43E-05,-0.000703812,0.008399963,0,
00:05.7,-3.43E-05,-0.00069809,0.008394241,0,
00:05.7,-3.43E-05,-0.000703812,0.008394241,0,
00:05.7,-3.43E-05,-0.000720978,0.008394241,0,
00:05.7,-3.43E-05,-0.000732422,0.008399963,0,
00:05.7,-3.43E-05,-0.000703812,0.008405685,0,
00:05.7,-2.86E-05,-0.000669479,0.008405685,0,
00:05.7,-2.86E-05,-0.000669479,0.008405685,0,
00:05.7,-2.86E-05,-0.000663757,0.008405685,0,
00:05.7,-2.86E-05,-0.000675201,0.008405685,0,
00:05.7,-3.43E-05,-0.000715256,0.008405685,0,
00:05.8,-4.01E-05,-0.0007267,0.008411407,0,
00:05.8,-4.01E-05,-0.000703812,0.008411407,0,
00:05.8,-3.43E-05,-0.000675201,0.008411407,0,
00:05.8,-2.86E-05,-0.000658035,0.008411407,0,
00:05.8,-2.86E-05,-0.000658035,0.008411407,0,
00:05.8,-3.43E-05,-0.000680923,0.008411407,0,
00:05.8,-3.43E-05,-0.000686646,0.00841713,0,
00:05.8,-4.01E-05,-0.000692368,0.00841713,0,
00:05.8,-3.43E-05,-0.000686646,0.00841713,0,
00:05.8,-3.43E-05,-0.00069809,0.00841713,0,
00:05.8,-4.58E-05,-0.000709534,0.00841713,0,
00:05.8,-4.58E-05,-0.000709534,0.008422852,0,
00:05.8,-4.58E-05,-0.000686646,0.008422852,0,
00:05.8,-3.43E-05,-0.000663757,0.008422852,0,
00:05.8,-2.86E-05,-0.000669479,0.008422852,0,
00:05.8,-4.01E-05,-0.000709534,0.008428574,0,
00:05.8,-5.72E-05,-0.000732422,0.008428574,0,
00:05.8,-5.15E-05,-0.000709534,0.008428574,0,
00:05.8,-4.01E-05,-0.000675201,0.008428574,0,
00:05.8,-2.86E-05,-0.000663757,0.008428574,0,
00:05.8,-2.86E-05,-0.000675201,0.008428574,0,
00:05.8,-2.86E-05,-0.000663757,0.008428574,0,
00:05.8,-3.43E-05,-0.000680923,0.008428574,0,
00:05.8,-4.58E-05,-0.000703812,0.008434296,0,
00:05.8,-4.58E-05,-0.000703812,0.008434296,0,
00:05.9,-3.43E-05,-0.000680923,0.008434296,0,
00:05.9,-3.43E-05,-0.000663757,0.008434296,0,
00:05.9,-4.01E-05,-0.000675201,0.008440018,0,
00:05.9,-4.01E-05,-0.000686646,0.008434296,0,
00:05.9,-3.43E-05,-0.000703812,0.008434296,0,
00:05.9,-3.43E-05,-0.000692368,0.008434296,0,
00:05.9,-3.43E-05,-0.000675201,0.008434296,0,
00:05.9,-3.43E-05,-0.000675201,0.008434296,0,
00:05.9,-3.43E-05,-0.000686646,0.008440018,0,
00:05.9,-3.43E-05,-0.000715256,0.008440018,0,
00:05.9,-4.01E-05,-0.000709534,0.008440018,0,
00:05.9,-4.01E-05,-0.000680923,0.008440018,0,
00:05.9,-3.43E-05,-0.000686646,0.00844574,0,
00:05.9,-4.01E-05,-0.00069809,0.00844574,0,
00:05.9,-4.58E-05,-0.000703812,0.00844574,0,
00:05.9,-3.43E-05,-0.000703812,0.00844574,0,
00:05.9,-2.86E-05,-0.000663757,0.00844574,0,
00:05.9,-2.29E-05,-0.000680923,0.00844574,0,
00:05.9,-2.86E-05,-0.000692368,0.00844574,0,
00:05.9,-3.43E-05,-0.00069809,0.00844574,0,
00:05.9,-3.43E-05,-0.00069809,0.008451462,0,
00:05.9,-2.86E-05,-0.000692368,0.008451462,0,
00:05.9,-2.86E-05,-0.000675201,0.008451462,0,
00:05.9,-2.86E-05,-0.000663757,0.008457184,0,
00:05.9,-3.43E-05,-0.000692368,0.008457184,0,
00:06.0,-3.43E-05,-0.000720978,0.008457184,0,
00:06.0,-3.43E-05,-0.000709534,0.008457184,0,
00:06.0,-3.43E-05,-0.000680923,0.008457184,0,
00:06.0,-3.43E-05,-0.000669479,0.008457184,0,
00:06.0,-3.43E-05,-0.000680923,0.008457184,0,
00:06.0,-3.43E-05,-0.000692368,0.008457184,0,
00:06.0,-3.43E-05,-0.000686646,0.008462906,0,
00:06.0,-4.01E-05,-0.00069809,0.008462906,0,
00:06.0,-4.58E-05,-0.00069809,0.008462906,0,
00:06.0,-4.01E-05,-0.00069809,0.008462906,0,
00:06.0,-3.43E-05,-0.00069809,0.008462906,0,
00:06.0,-2.86E-05,-0.000686646,0.008462906,0,
00:00:06,-2.86E-05,-0.000675201,0.008462906,0,
00:06.0,-3.43E-05,-0.000669479,0.008462906,0,
00:06.0,-3.43E-05,-0.000675201,0.008462906,0,
00:06.0,-4.01E-05,-0.000686646,0.008462906,0,
00:06.0,-4.58E-05,-0.000703812,0.008468628,0,
00:06.0,-5.15E-05,-0.000715256,0.008468628,0,
00:06.0,-4.58E-05,-0.000715256,0.008468628,0,
00:06.0,-4.01E-05,-0.000703812,0.008468628,0,
00:06.0,-3.43E-05,-0.000675201,0.008468628,0,
00:06.0,-3.43E-05,-0.000686646,0.008468628,0,
00:06.0,-3.43E-05,-0.000709534,0.00847435,0,
00:06.0,-4.01E-05,-0.000715256,0.00847435,0,
00:06.0,-4.01E-05,-0.000703812,0.00847435,0,
00:06.1,-4.58E-05,-0.000686646,0.00847435,0,
00:06.1,-3.43E-05,-0.000669479,0.00847435,0,
00:06.1,-3.43E-05,-0.000675201,0.00847435,0,
00:06.1,-4.01E-05,-0.000692368,0.00847435,0,
00:06.1,-4.01E-05,-0.000703812,0.008480072,0,
00:06.1,-4.58E-05,-0.000686646,0.008480072,0,
00:06.1,-4.58E-05,-0.000692368,0.008480072,0,
00:06.1,-3.43E-05,-0.000680923,0.008480072,0,
00:06.1,-2.86E-05,-0.000686646,0.008480072,0,
00:06.1,-3.43E-05,-0.000680923,0.008480072,0,
00:06.1,-3.43E-05,-0.000680923,0.008480072,0,
00:06.1,-4.01E-05,-0.000692368,0.008480072,0,
00:06.1,-4.01E-05,-0.000703812,0.008485794,0,
00:06.1,-4.01E-05,-0.00069809,0.008485794,0,
00:06.1,-4.58E-05,-0.00069809,0.008485794,0,
00:06.1,-4.58E-05,-0.000703812,0.008485794,0,
00:06.1,-4.58E-05,-0.000703812,0.008485794,0,
00:06.1,-4.58E-05,-0.000703812,0.008491516,0,
00:06.1,-4.58E-05,-0.000720978,0.008491516,0,
00:06.1,-4.58E-05,-0.000720978,0.008491516,0,
00:06.1,-4.01E-05,-0.00069809,0.008491516,0,
00:06.1,-4.58E-05,-0.000686646,0.008491516,0,
00:06.1,-5.15E-05,-0.000692368,0.008491516,0,
00:06.1,-4.58E-05,-0.000680923,0.008497238,0,
00:06.1,-3.43E-05,-0.000669479,0.008497238,0,
00:06.2,-4.01E-05,-0.000680923,0.008497238,0,
00:06.2,-4.58E-05,-0.000686646,0.00850296,0,
00:06.2,-4.01E-05,-0.000675201,0.00850296,0,
00:06.2,-3.43E-05,-0.000680923,0.008497238,0,
00:06.2,-2.86E-05,-0.000686646,0.008497238,0,
00:06.2,-3.43E-05,-0.000680923,0.008497238,0,
00:06.2,-3.43E-05,-0.000686646,0.008497238,0,
00:06.2,-4.01E-05,-0.000680923,0.00850296,0,
00:06.2,-4.01E-05,-0.000680923,0.00850296,0,
00:06.2,-4.01E-05,-0.000686646,0.00850296,0,
00:06.2,-4.01E-05,-0.000686646,0.00850296,0,
00:06.2,-4.01E-05,-0.000692368,0.00850296,0,
00:06.2,-4.58E-05,-0.000692368,0.008508682,0,
00:06.2,-4.58E-05,-0.000692368,0.008508682,0,
00:06.2,-4.01E-05,-0.000709534,0.008508682,0,
00:06.2,-4.01E-05,-0.0007267,0.00850296,0,
00:06.2,-5.15E-05,-0.000720978,0.008508682,0,
00:06.2,-5.15E-05,-0.000703812,0.008514404,0,
00:06.2,-4.01E-05,-0.000680923,0.008514404,0,
00:06.2,-4.01E-05,-0.000675201,0.008514404,0,
00:06.2,-4.58E-05,-0.00069809,0.008514404,0,
00:06.2,-5.72E-05,-0.000715256,0.008520126,0,
00:06.2,-4.58E-05,-0.000663757,0.008520126,0,
00:06.2,-2.29E-05,-0.000652313,0.008514404,0,
00:06.2,-2.29E-05,-0.000669479,0.008514404,0,
00:06.3,-3.43E-05,-0.000669479,0.008514404,0,
00:06.3,-3.43E-05,-0.000675201,0.008514404,0,
00:06.3,-3.43E-05,-0.000680923,0.008514404,0,
00:06.3,-3.43E-05,-0.000669479,0.008514404,0,
00:06.3,-3.43E-05,-0.000675201,0.008514404,0,
00:06.3,-4.01E-05,-0.000680923,0.008514404,0,
00:06.3,-4.01E-05,-0.000680923,0.008520126,0,
00:06.3,-4.01E-05,-0.000703812,0.008520126,0,
00:06.3,-4.01E-05,-0.000709534,0.008520126,0,
00:06.3,-4.58E-05,-0.00069809,0.008520126,0,
00:06.3,-4.01E-05,-0.000675201,0.008520126,0,
00:06.3,-3.43E-05,-0.000663757,0.008520126,0,
00:06.3,-3.43E-05,-0.000669479,0.008520126,0,
00:06.3,-4.01E-05,-0.000675201,0.008520126,0,
00:06.3,-4.58E-05,-0.000686646,0.008525848,0,
00:06.3,-3.43E-05,-0.000686646,0.008525848,0,
00:06.3,-2.86E-05,-0.000680923,0.008525848,0,
00:06.3,-3.43E-05,-0.000692368,0.008525848,0,
00:06.3,-4.01E-05,-0.000703812,0.008525848,0,
00:06.3,-4.58E-05,-0.000732422,0.008525848,0,
00:06.3,-4.58E-05,-0.000692368,0.008525848,0,
00:06.3,-2.86E-05,-0.000658035,0.008525848,0,
00:06.3,-2.29E-05,-0.000680923,0.008520126,0,
00:06.3,-2.29E-05,-0.000675201,0.008525848,0,
00:06.3,-2.29E-05,-0.000658035,0.008525848,0,
00:06.4,-2.86E-05,-0.000675201,0.008525848,0,
00:06.4,-3.43E-05,-0.00069809,0.008525848,0,
00:06.4,-4.01E-05,-0.0007267,0.008525848,0,
00:06.4,-3.43E-05,-0.000709534,0.008525848,0,
00:06.4,-2.86E-05,-0.000675201,0.008525848,0,
00:06.4,-2.86E-05,-0.000663757,0.008525848,0,
00:06.4,-2.86E-05,-0.000680923,0.008525848,0,
00:06.4,-2.86E-05,-0.000675201,0.008525848,0,
00:06.4,-2.86E-05,-0.000675201,0.008525848,0,
00:06.4,-2.86E-05,-0.000680923,0.00853157,0,
00:06.4,-3.43E-05,-0.000686646,0.00853157,0,
00:06.4,-3.43E-05,-0.000686646,0.00853157,0,
00:06.4,-2.86E-05,-0.000686646,0.00853157,0,
00:06.4,-2.29E-05,-0.000686646,0.00853157,0,
00:06.4,-2.29E-05,-0.000680923,0.00853157,0,
00:06.4,-2.29E-05,-0.000680923,0.00853157,0,
00:06.4,-2.86E-05,-0.000686646,0.00853157,0,
00:06.4,-2.86E-05,-0.000715256,0.00853157,0,
00:06.4,-3.43E-05,-0.000703812,0.00853157,0,
00:06.4,-3.43E-05,-0.000675201,0.00853157,0,
00:06.4,-2.29E-05,-0.000692368,0.00853157,0,
00:06.4,-1.14E-05,-0.000680923,0.00853157,0,
00:06.4,-1.14E-05,-0.000675201,0.00853157,0,
00:06.4,-1.72E-05,-0.00069809,0.008537292,0,
00:06.4,-1.72E-05,-0.000703812,0.008537292,0,
00:06.5,-2.29E-05,-0.000686646,0.008537292,0,
00:06.5,-2.29E-05,-0.000686646,0.008537292,0,
00:06.5,-2.86E-05,-0.000686646,0.008537292,0,
00:06.5,-2.29E-05,-0.000669479,0.008537292,0,
00:06.5,-1.14E-05,-0.000658035,0.008543015,0,
00:06.5,-1.72E-05,-0.000663757,0.008543015,0,
00:06.5,-2.29E-05,-0.000675201,0.008543015,0,
00:06.5,-2.29E-05,-0.000675201,0.008543015,0,
00:06.5,-2.86E-05,-0.000692368,0.008543015,0,
00:06.5,-3.43E-05,-0.000692368,0.008543015,0,
00:06.5,-2.29E-05,-0.000663757,0.008543015,0,
00:06.5,-2.29E-05,-0.000669479,0.008543015,0,
00:06.5,-2.86E-05,-0.00069809,0.008543015,0,
00:06.5,-2.86E-05,-0.00069809,0.008543015,0,
00:06.5,-2.86E-05,-0.000669479,0.008543015,0,
00:06.5,-2.29E-05,-0.000663757,0.008543015,0,
00:06.5,-2.86E-05,-0.000692368,0.008543015,0,
00:06.5,-3.43E-05,-0.000692368,0.008548737,0,
00:06.5,-3.43E-05,-0.000709534,0.008543015,0,
00:06.5,-3.43E-05,-0.0007267,0.008548737,0,
00:06.5,-2.86E-05,-0.000686646,0.008548737,0,
00:06.5,-2.29E-05,-0.000675201,0.008543015,0,
00:06.5,-2.29E-05,-0.000669479,0.008543015,0,
00:06.5,-2.29E-05,-0.000669479,0.008548737,0,
00:06.5,-2.86E-05,-0.000669479,0.008548737,0,
00:06.6,-2.86E-05,-0.000680923,0.008548737,0,
00:06.6,-3.43E-05,-0.00069809,0.008548737,0,
00:06.6,-4.01E-05,-0.000709534,0.008548737,0,
00:06.6,-4.01E-05,-0.000715256,0.008548737,0,
00:06.6,-2.86E-05,-0.000692368,0.008548737,0,
00:06.6,-2.86E-05,-0.000669479,0.008548737,0,
00:06.6,-2.29E-05,-0.000669479,0.008548737,0,
00:06.6,-2.29E-05,-0.000658035,0.008548737,0,
00:06.6,-2.29E-05,-0.000663757,0.008548737,0,
00:06.6,-2.86E-05,-0.000669479,0.008548737,0,
00:06.6,-2.86E-05,-0.000686646,0.008554459,0,
00:06.6,-3.43E-05,-0.000738144,0.008554459,0,
00:06.6,-4.01E-05,-0.000743866,0.008554459,0,
00:06.6,-3.43E-05,-0.000703812,0.008554459,0,
00:06.6,-2.29E-05,-0.000675201,0.008554459,0,
00:06.6,-1.14E-05,-0.000646591,0.008554459,0,
00:06.6,-1.14E-05,-0.000646591,0.008554459,0,
00:06.6,-1.72E-05,-0.000658035,0.008554459,0,
00:06.6,-1.72E-05,-0.000669479,0.008554459,0,
00:06.6,-2.29E-05,-0.000680923,0.008560181,0,
00:06.6,-3.43E-05,-0.000709534,0.008554459,0,
00:06.6,-4.01E-05,-0.000715256,0.008554459,0,
00:06.6,-3.43E-05,-0.00069809,0.008554459,0,
00:06.6,-2.29E-05,-0.000680923,0.008554459,0,
00:06.6,-2.29E-05,-0.000686646,0.008554459,0,
00:06.7,-2.29E-05,-0.000675201,0.008554459,0,
00:06.7,-2.29E-05,-0.000669479,0.008554459,0,
00:06.7,-2.29E-05,-0.000663757,0.008554459,0,
00:06.7,-2.29E-05,-0.000675201,0.008554459,0,
00:06.7,-2.29E-05,-0.000686646,0.008554459,0,
00:06.7,-2.86E-05,-0.000715256,0.008554459,0,
00:06.7,-4.01E-05,-0.00075531,0.008560181,0,
00:06.7,-4.58E-05,-0.000709534,0.008560181,0,
00:06.7,-3.43E-05,-0.000669479,0.008560181,0,
00:06.7,-1.72E-05,-0.000652313,0.008554459,0,
00:06.7,-2.29E-05,-0.000652313,0.008554459,0,
00:06.7,-2.29E-05,-0.000658035,0.008554459,0,
00:06.7,-2.29E-05,-0.000663757,0.008554459,0,
00:06.7,-2.29E-05,-0.000675201,0.008554459,0,
00:06.7,-2.86E-05,-0.000686646,0.008554459,0,
00:06.7,-2.86E-05,-0.000686646,0.008554459,0,
00:06.7,-3.43E-05,-0.000709534,0.008554459,0,
00:06.7,-3.43E-05,-0.000703812,0.008554459,0,
00:06.7,-2.29E-05,-0.000680923,0.008554459,0,
00:06.7,-2.86E-05,-0.000686646,0.008554459,0,
00:06.7,-2.29E-05,-0.000663757,0.008554459,0,
00:06.7,-2.29E-05,-0.000658035,0.008554459,0,
00:06.7,-2.86E-05,-0.000658035,0.008554459,0,
00:06.7,-2.86E-05,-0.000669479,0.008560181,0,
00:06.7,-2.86E-05,-0.000686646,0.008554459,0,
00:06.8,-3.43E-05,-0.000715256,0.008560181,0,
00:06.8,-4.01E-05,-0.000732422,0.008560181,0,
00:06.8,-3.43E-05,-0.00069809,0.008560181,0,
00:06.8,-2.86E-05,-0.000652313,0.008560181,0,
00:06.8,-2.29E-05,-0.000658035,0.008554459,0,
00:06.8,-2.86E-05,-0.000680923,0.008554459,0,
00:06.8,-2.86E-05,-0.000675201,0.008554459,0,
00:06.8,-2.86E-05,-0.000669479,0.008554459,0,
00:06.8,-2.86E-05,-0.000675201,0.008560181,0,
00:06.8,-2.86E-05,-0.000686646,0.008560181,0,
00:06.8,-2.86E-05,-0.000686646,0.008560181,0,
00:06.8,-2.29E-05,-0.000692368,0.008554459,0,
00:06.8,-2.86E-05,-0.000686646,0.008554459,0,
00:06.8,-2.29E-05,-0.000658035,0.008554459,0,
00:06.8,-1.72E-05,-0.000658035,0.008554459,0,
00:06.8,-1.72E-05,-0.000663757,0.008554459,0,
00:06.8,-2.86E-05,-0.00069809,0.008560181,0,
00:06.8,-3.43E-05,-0.000715256,0.008554459,0,
00:06.8,-2.86E-05,-0.000692368,0.008554459,0,
00:06.8,-2.29E-05,-0.000680923,0.008554459,0,
00:06.8,-2.29E-05,-0.000680923,0.008554459,0,
00:06.8,-2.86E-05,-0.000686646,0.008554459,0,
00:06.8,-3.43E-05,-0.000675201,0.008560181,0,
00:06.8,-3.43E-05,-0.000663757,0.008560181,0,
00:06.8,-3.43E-05,-0.000663757,0.008560181,0,
00:06.9,-3.43E-05,-0.000675201,0.008560181,0,
00:06.9,-2.86E-05,-0.000675201,0.008560181,0,
00:06.9,-2.86E-05,-0.000692368,0.008554459,0,
00:06.9,-3.43E-05,-0.000715256,0.008560181,0,
00:06.9,-3.43E-05,-0.00069809,0.008560181,0,
00:06.9,-2.86E-05,-0.000669479,0.008554459,0,
00:06.9,-2.29E-05,-0.000675201,0.008554459,0,
00:06.9,-2.86E-05,-0.000680923,0.008554459,0,
00:06.9,-2.86E-05,-0.000669479,0.008554459,0,
00:06.9,-2.29E-05,-0.000669479,0.008554459,0,
00:06.9,-1.72E-05,-0.000663757,0.008554459,0,
00:06.9,-2.29E-05,-0.000680923,0.008554459,0,
00:06.9,-2.86E-05,-0.000692368,0.008554459,0,
00:06.9,-2.86E-05,-0.000692368,0.008554459,0,
00:06.9,-2.86E-05,-0.000675201,0.008554459,0,
00:06.9,-3.43E-05,-0.000675201,0.008554459,0,
00:06.9,-3.43E-05,-0.000686646,0.008554459,0,
00:06.9,-3.43E-05,-0.000692368,0.008560181,0,
00:06.9,-2.86E-05,-0.000675201,0.008560181,0,
00:06.9,-2.29E-05,-0.000663757,0.008560181,0,
00:06.9,-2.29E-05,-0.000663757,0.008560181,0,
00:06.9,-2.86E-05,-0.000686646,0.008560181,0,
00:06.9,-2.86E-05,-0.000680923,0.008560181,0,
00:06.9,-3.43E-05,-0.000680923,0.008560181,0,
00:06.9,-2.86E-05,-0.000703812,0.008560181,0,
00:07.0,-2.86E-05,-0.000692368,0.008560181,0,
00:07.0,-2.29E-05,-0.000675201,0.008560181,0,
00:07.0,-2.29E-05,-0.000680923,0.008560181,0,
00:07.0,-1.72E-05,-0.000663757,0.008560181,0,
00:07.0,-2.29E-05,-0.000675201,0.008560181,0,
00:07.0,-2.86E-05,-0.000692368,0.008560181,0,
00:07.0,-2.86E-05,-0.00069809,0.008560181,0,
00:07.0,-2.29E-05,-0.000692368,0.008560181,0,
00:07.0,-2.29E-05,-0.000680923,0.008560181,0,
00:07.0,-2.29E-05,-0.000675201,0.008560181,0,
00:07.0,-2.29E-05,-0.000680923,0.008560181,0,
00:07.0,-2.86E-05,-0.000669479,0.008560181,0,
00:00:07,-2.29E-05,-0.000663757,0.008560181,0,
00:07.0,-2.29E-05,-0.000663757,0.008560181,0,
00:07.0,-2.86E-05,-0.000680923,0.008560181,0,
00:07.0,-3.43E-05,-0.000686646,0.008560181,0,
00:07.0,-2.86E-05,-0.00069809,0.008560181,0,
00:07.0,-2.29E-05,-0.000680923,0.008565903,0,
00:07.0,-2.29E-05,-0.000663757,0.008560181,0,
00:07.0,-1.72E-05,-0.000675201,0.008560181,0,
00:07.0,-2.29E-05,-0.000680923,0.008560181,0,
00:07.0,-2.86E-05,-0.000686646,0.008560181,0,
00:07.0,-2.86E-05,-0.000686646,0.008560181,0,
00:07.0,-2.29E-05,-0.000686646,0.008560181,0,
00:07.0,-2.86E-05,-0.000675201,0.008560181,0,
00:07.1,-2.29E-05,-0.000686646,0.008560181,0,
00:07.1,-2.86E-05,-0.000709534,0.008560181,0,
00:07.1,-2.29E-05,-0.000709534,0.008560181,0,
00:07.1,-2.29E-05,-0.000692368,0.008560181,0,
00:07.1,-1.72E-05,-0.000675201,0.008560181,0,
00:07.1,-1.72E-05,-0.000658035,0.008554459,0,
00:07.1,-2.29E-05,-0.000663757,0.008554459,0,
00:07.1,-2.29E-05,-0.000669479,0.008554459,0,
00:07.1,-2.29E-05,-0.000675201,0.008554459,0,
00:07.1,-2.29E-05,-0.000675201,0.008554459,0,
00:07.1,-1.72E-05,-0.000686646,0.008554459,0,
00:07.1,-2.29E-05,-0.000680923,0.008554459,0,
00:07.1,-2.29E-05,-0.000669479,0.008554459,0,
00:07.1,-2.29E-05,-0.00069809,0.008554459,0,
00:07.1,-2.86E-05,-0.000680923,0.008554459,0,
00:07.1,-2.86E-05,-0.000675201,0.008554459,0,
00:07.1,-2.29E-05,-0.000686646,0.008548737,0,
00:07.1,-1.72E-05,-0.000686646,0.008548737,0,
00:07.1,-2.29E-05,-0.000686646,0.008548737,0,
00:07.1,-2.29E-05,-0.000686646,0.008548737,0,
00:07.1,-2.86E-05,-0.000703812,0.008554459,0,
00:07.1,-2.86E-05,-0.000692368,0.008554459,0,
00:07.1,-2.29E-05,-0.000675201,0.008554459,0,
00:07.1,-2.29E-05,-0.000680923,0.008548737,0,
00:07.1,-2.86E-05,-0.000703812,0.008554459,0,
00:07.2,-2.86E-05,-0.000715256,0.008554459,0,
00:07.2,-2.86E-05,-0.000720978,0.008554459,0,
00:07.2,-2.86E-05,-0.00069809,0.008554459,0,
00:07.2,-2.86E-05,-0.000675201,0.008548737,0,
00:07.2,-2.29E-05,-0.000658035,0.008548737,0,
00:07.2,-1.72E-05,-0.000658035,0.008548737,0,
00:07.2,-1.72E-05,-0.000652313,0.008548737,0,
00:07.2,-2.29E-05,-0.000663757,0.008548737,0,
00:07.2,-2.29E-05,-0.000680923,0.008548737,0,
00:07.2,-2.29E-05,-0.000680923,0.008548737,0,
00:07.2,-2.86E-05,-0.00069809,0.008548737,0,
00:07.2,-2.86E-05,-0.000680923,0.008548737,0,
00:07.2,-2.29E-05,-0.000669479,0.008548737,0,
00:07.2,-1.72E-05,-0.000669479,0.008548737,0,
00:07.2,-1.72E-05,-0.000669479,0.008548737,0,
00:07.2,-1.72E-05,-0.000680923,0.008548737,0,
00:07.2,-2.29E-05,-0.000686646,0.008548737,0,
00:07.2,-2.29E-05,-0.000675201,0.008548737,0,
00:07.2,-2.29E-05,-0.000675201,0.008548737,0,
00:07.2,-2.29E-05,-0.00069809,0.008548737,0,
00:07.2,-2.86E-05,-0.000686646,0.008548737,0,
00:07.2,-2.86E-05,-0.000703812,0.008548737,0,
00:07.2,-2.86E-05,-0.000692368,0.008548737,0,
00:07.2,-2.86E-05,-0.000663757,0.008548737,0,
00:07.2,-2.86E-05,-0.000663757,0.008548737,0,
00:07.3,-2.86E-05,-0.000675201,0.008548737,0,
00:07.3,-2.29E-05,-0.000680923,0.008543015,0,
00:07.3,-2.29E-05,-0.000680923,0.008548737,0,
00:07.3,-2.29E-05,-0.000675201,0.008548737,0,
00:07.3,-2.29E-05,-0.000669479,0.008548737,0,
00:07.3,-2.29E-05,-0.000669479,0.008543015,0,
00:07.3,-2.29E-05,-0.000675201,0.008543015,0,
00:07.3,-2.29E-05,-0.000669479,0.008548737,0,
00:07.3,-2.29E-05,-0.000669479,0.008548737,0,
00:07.3,-2.29E-05,-0.000703812,0.008548737,0,
00:07.3,-3.43E-05,-0.0007267,0.008543015,0,
00:07.3,-3.43E-05,-0.000709534,0.008543015,0,
00:07.3,-3.43E-05,-0.000680923,0.008543015,0,
00:07.3,-3.43E-05,-0.000680923,0.008543015,0,
00:07.3,-2.29E-05,-0.000663757,0.008543015,0,
00:07.3,-1.72E-05,-0.000669479,0.008543015,0,
00:07.3,-1.72E-05,-0.000680923,0.008537292,0,
00:07.3,-2.86E-05,-0.000675201,0.008543015,0,
00:07.3,-3.43E-05,-0.000669479,0.008543015,0,
00:07.3,-2.86E-05,-0.000669479,0.008543015,0,
00:07.3,-2.86E-05,-0.000686646,0.008543015,0,
00:07.3,-3.43E-05,-0.000692368,0.008543015,0,
00:07.3,-3.43E-05,-0.000680923,0.008543015,0,
00:07.3,-3.43E-05,-0.000658035,0.008537292,0,
00:07.3,-2.86E-05,-0.000669479,0.008537292,0,
00:07.4,-2.86E-05,-0.000686646,0.008537292,0,
00:07.4,-2.86E-05,-0.000675201,0.008537292,0,
00:07.4,-2.29E-05,-0.000669479,0.008537292,0,
00:07.4,-3.43E-05,-0.000686646,0.008537292,0,
00:07.4,-4.01E-05,-0.000703812,0.008537292,0,
00:07.4,-4.01E-05,-0.00069809,0.008543015,0,
00:07.4,-4.01E-05,-0.00069809,0.008543015,0,
00:07.4,-3.43E-05,-0.000675201,0.008537292,0,
00:07.4,-3.43E-05,-0.000680923,0.008537292,0,
00:07.4,-3.43E-05,-0.000680923,0.008537292,0,
00:07.4,-3.43E-05,-0.000686646,0.008537292,0,
00:07.4,-2.86E-05,-0.00069809,0.008537292,0,
00:07.4,-3.43E-05,-0.000686646,0.008537292,0,
00:07.4,-3.43E-05,-0.000663757,0.008537292,0,
00:07.4,-2.86E-05,-0.000652313,0.008537292,0,
00:07.4,-2.86E-05,-0.000669479,0.008537292,0,
00:07.4,-2.86E-05,-0.000680923,0.00853157,0,
00:07.4,-3.43E-05,-0.000692368,0.008537292,0,
00:07.4,-3.43E-05,-0.000692368,0.008537292,0,
00:07.4,-3.43E-05,-0.000686646,0.008537292,0,
00:07.4,-3.43E-05,-0.000680923,0.008537292,0,
00:07.4,-2.86E-05,-0.000680923,0.008537292,0,
00:07.4,-2.86E-05,-0.000692368,0.008537292,0,
00:07.4,-2.86E-05,-0.000680923,0.008537292,0,
00:07.4,-2.86E-05,-0.000669479,0.008537292,0,
00:07.5,-2.29E-05,-0.000669479,0.008537292,0,
00:07.5,-2.86E-05,-0.000680923,0.008537292,0,
00:07.5,-3.43E-05,-0.000709534,0.008543015,0,
00:07.5,-4.01E-05,-0.000709534,0.008537292,0,
00:07.5,-4.01E-05,-0.000703812,0.008537292,0,
00:07.5,-3.43E-05,-0.000720978,0.008537292,0,
00:07.5,-2.86E-05,-0.00069809,0.00853157,0,
00:07.5,-2.29E-05,-0.000658035,0.00853157,0,
00:07.5,-2.29E-05,-0.000640869,0.00853157,0,
00:07.5,-2.29E-05,-0.000663757,0.00853157,0,
00:07.5,-2.29E-05,-0.000663757,0.00853157,0,
00:07.5,-2.29E-05,-0.000669479,0.008537292,0,
00:07.5,-2.86E-05,-0.000669479,0.008537292,0,
00:07.5,-2.86E-05,-0.000669479,0.00853157,0,
00:07.5,-2.86E-05,-0.000680923,0.00853157,0,
00:07.5,-3.43E-05,-0.000686646,0.00853157,0,
00:07.5,-2.86E-05,-0.000692368,0.008537292,0,
00:07.5,-2.86E-05,-0.000680923,0.008537292,0,
00:07.5,-3.43E-05,-0.000692368,0.00853157,0,
00:07.5,-4.01E-05,-0.000692368,0.008537292,0,
00:07.5,-3.43E-05,-0.000669479,0.008537292,0,
00:07.5,-2.86E-05,-0.000663757,0.008537292,0,
00:07.5,-2.86E-05,-0.000675201,0.00853157,0,
00:07.5,-2.86E-05,-0.000703812,0.008537292,0,
00:07.5,-4.01E-05,-0.000709534,0.008537292,0,
00:07.6,-3.43E-05,-0.000692368,0.00853157,0,
00:07.6,-2.86E-05,-0.000686646,0.00853157,0,
00:07.6,-2.86E-05,-0.000680923,0.00853157,0,
00:07.6,-2.29E-05,-0.000669479,0.00853157,0,
00:07.6,-2.29E-05,-0.000669479,0.00853157,0,
00:07.6,-2.86E-05,-0.000675201,0.00853157,0,
00:07.6,-2.86E-05,-0.000675201,0.00853157,0,
00:07.6,-3.43E-05,-0.000675201,0.00853157,0,
00:07.6,-3.43E-05,-0.000680923,0.00853157,0,
00:07.6,-2.86E-05,-0.000686646,0.00853157,0,
00:07.6,-2.86E-05,-0.000692368,0.008525848,0,
00:07.6,-2.86E-05,-0.000680923,0.008525848,0,
00:07.6,-2.86E-05,-0.000680923,0.008525848,0,
00:07.6,-3.43E-05,-0.000680923,0.008525848,0,
00:07.6,-3.43E-05,-0.000692368,0.008525848,0,
00:07.6,-3.43E-05,-0.00069809,0.008525848,0,
00:07.6,-4.01E-05,-0.000692368,0.008525848,0,
00:07.6,-4.01E-05,-0.00069809,0.008525848,0,
00:07.6,-4.58E-05,-0.000715256,0.008525848,0,
00:07.6,-4.01E-05,-0.0007267,0.008525848,0,
00:07.6,-4.01E-05,-0.000692368,0.008525848,0,
00:07.6,-4.01E-05,-0.000663757,0.008525848,0,
00:07.6,-3.43E-05,-0.000663757,0.008520126,0,
00:07.6,-2.86E-05,-0.000663757,0.008520126,0,
00:07.6,-2.86E-05,-0.000675201,0.008520126,0,
00:07.7,-3.43E-05,-0.000680923,0.008520126,0,
00:07.7,-3.43E-05,-0.000680923,0.008525848,0,
00:07.7,-3.43E-05,-0.000675201,0.008525848,0,
00:07.7,-3.43E-05,-0.000686646,0.008525848,0,
00:07.7,-3.43E-05,-0.000686646,0.008525848,0,
00:07.7,-3.43E-05,-0.000686646,0.008520126,0,
00:07.7,-4.01E-05,-0.000669479,0.008520126,0,
00:07.7,-4.01E-05,-0.000675201,0.008520126,0,
00:07.7,-4.01E-05,-0.000703812,0.008520126,0,
00:07.7,-4.01E-05,-0.000703812,0.008520126,0,
00:07.7,-3.43E-05,-0.00069809,0.008520126,0,
00:07.7,-2.86E-05,-0.00069809,0.008525848,0,
00:07.7,-3.43E-05,-0.000703812,0.008525848,0,
00:07.7,-2.86E-05,-0.000692368,0.008520126,0,
00:07.7,-2.86E-05,-0.000680923,0.008520126,0,
00:07.7,-3.43E-05,-0.000675201,0.008520126,0,
00:07.7,-3.43E-05,-0.000675201,0.008520126,0,
00:07.7,-3.43E-05,-0.000675201,0.008520126,0,
00:07.7,-2.86E-05,-0.000669479,0.008520126,0,
00:07.7,-2.86E-05,-0.000669479,0.008520126,0,
00:07.7,-2.86E-05,-0.000680923,0.008520126,0,
00:07.7,-3.43E-05,-0.000680923,0.008520126,0,
00:07.7,-3.43E-05,-0.000686646,0.008514404,0,
00:07.7,-3.43E-05,-0.000686646,0.008514404,0,
00:07.7,-2.86E-05,-0.000680923,0.008514404,0,
00:07.8,-2.86E-05,-0.000675201,0.008514404,0,
00:07.8,-2.86E-05,-0.000675201,0.008514404,0,
00:07.8,-3.43E-05,-0.000686646,0.008514404,0,
00:07.8,-3.43E-05,-0.000703812,0.008514404,0,
00:07.8,-4.58E-05,-0.00069809,0.008514404,0,
00:07.8,-4.58E-05,-0.000703812,0.008514404,0,
00:07.8,-4.01E-05,-0.000720978,0.008514404,0,
00:07.8,-3.43E-05,-0.000686646,0.008514404,0,
00:07.8,-2.86E-05,-0.000646591,0.008514404,0,
00:07.8,-2.86E-05,-0.000652313,0.008514404,0,
00:07.8,-2.86E-05,-0.000669479,0.008514404,0,
00:07.8,-3.43E-05,-0.000692368,0.008514404,0,
00:07.8,-4.01E-05,-0.000692368,0.008514404,0,
00:07.8,-4.01E-05,-0.000686646,0.008514404,0,
00:07.8,-4.01E-05,-0.000675201,0.008514404,0,
00:07.8,-4.01E-05,-0.000686646,0.008514404,0,
00:07.8,-3.43E-05,-0.000692368,0.008514404,0,
00:07.8,-2.86E-05,-0.000680923,0.008508682,0,
00:07.8,-2.86E-05,-0.000680923,0.008508682,0,
00:07.8,-2.86E-05,-0.000669479,0.008508682,0,
00:07.8,-2.86E-05,-0.000663757,0.008508682,0,
00:07.8,-3.43E-05,-0.000669479,0.008508682,0,
00:07.8,-3.43E-05,-0.000675201,0.008508682,0,
00:07.8,-3.43E-05,-0.000686646,0.008508682,0,
00:07.8,-3.43E-05,-0.000715256,0.008508682,0,
00:07.9,-4.01E-05,-0.0007267,0.008508682,0,
00:07.9,-4.58E-05,-0.000709534,0.008508682,0,
00:07.9,-4.58E-05,-0.000692368,0.008508682,0,
00:07.9,-4.01E-05,-0.000686646,0.00850296,0,
00:07.9,-4.01E-05,-0.000680923,0.00850296,0,
00:07.9,-3.43E-05,-0.000669479,0.00850296,0,
00:07.9,-3.43E-05,-0.000669479,0.008508682,0,
00:07.9,-4.01E-05,-0.000686646,0.008508682,0,
00:07.9,-4.58E-05,-0.000703812,0.008508682,0,
00:07.9,-4.01E-05,-0.000680923,0.008508682,0,
00:07.9,-4.01E-05,-0.000675201,0.008508682,0,
00:07.9,-3.43E-05,-0.000686646,0.008508682,0,
00:07.9,-4.01E-05,-0.000675201,0.008508682,0,
00:07.9,-4.01E-05,-0.000669479,0.008508682,0,
00:07.9,-3.43E-05,-0.000669479,0.008508682,0,
00:07.9,-4.01E-05,-0.000675201,0.008508682,0,
00:07.9,-4.58E-05,-0.000692368,0.00850296,0,
00:07.9,-4.58E-05,-0.000686646,0.00850296,0,
00:07.9,-4.01E-05,-0.00069809,0.00850296,0,
00:07.9,-4.01E-05,-0.000709534,0.00850296,0,
00:07.9,-4.58E-05,-0.000692368,0.00850296,0,
00:07.9,-4.58E-05,-0.000675201,0.00850296,0,
00:07.9,-4.58E-05,-0.000658035,0.00850296,0,
00:07.9,-4.01E-05,-0.000669479,0.00850296,0,
00:07.9,-4.58E-05,-0.000703812,0.00850296,0,
00:08.0,-5.15E-05,-0.00069809,0.00850296,0,
00:08.0,-4.58E-05,-0.000692368,0.00850296,0,
00:08.0,-3.43E-05,-0.000675201,0.00850296,0,
00:08.0,-3.43E-05,-0.000658035,0.00850296,0,
00:08.0,-4.01E-05,-0.000675201,0.00850296,0,
00:08.0,-5.15E-05,-0.00069809,0.00850296,0,
00:08.0,-5.15E-05,-0.000692368,0.00850296,0,
00:08.0,-4.01E-05,-0.000675201,0.008497238,0,
00:08.0,-3.43E-05,-0.000658035,0.008497238,0,
00:08.0,-3.43E-05,-0.000652313,0.008497238,0,
00:08.0,-3.43E-05,-0.000663757,0.008497238,0,
00:08.0,-4.01E-05,-0.000669479,0.008497238,0,
00:00:08,-4.01E-05,-0.000686646,0.008497238,0,
00:08.0,-4.58E-05,-0.000703812,0.008497238,0,
00:08.0,-4.58E-05,-0.000715256,0.008497238,0,
00:08.0,-4.58E-05,-0.00069809,0.00850296,0,
00:08.0,-4.01E-05,-0.000663757,0.008497238,0,
00:08.0,-4.01E-05,-0.000663757,0.008497238,0,
00:08.0,-5.15E-05,-0.000692368,0.008497238,0,
00:08.0,-5.15E-05,-0.000686646,0.008497238,0,
00:08.0,-4.58E-05,-0.000663757,0.008497238,0,
00:08.0,-4.58E-05,-0.000680923,0.008497238,0,
00:08.0,-5.15E-05,-0.000692368,0.00850296,0,
00:08.0,-5.15E-05,-0.000715256,0.008497238,0,
00:08.0,-4.58E-05,-0.000692368,0.008497238,0,
00:08.1,-4.01E-05,-0.000680923,0.008497238,0,
00:08.1,-4.01E-05,-0.000703812,0.008491516,0,
00:08.1,-4.01E-05,-0.00069809,0.008497238,0,
00:08.1,-4.58E-05,-0.000692368,0.008497238,0,
00:08.1,-4.58E-05,-0.000680923,0.008497238,0,
00:08.1,-4.01E-05,-0.000658035,0.008491516,0,
00:08.1,-4.01E-05,-0.000658035,0.008491516,0,
00:08.1,-4.01E-05,-0.000669479,0.008491516,0,
00:08.1,-4.01E-05,-0.000675201,0.008491516,0,
00:08.1,-4.01E-05,-0.000675201,0.008491516,0,
00:08.1,-4.58E-05,-0.000675201,0.008491516,0,
00:08.1,-4.58E-05,-0.000692368,0.008491516,0,
00:08.1,-5.15E-05,-0.000703812,0.008497238,0,
00:08.1,-4.58E-05,-0.000658035,0.008491516,0,
00:08.1,-4.01E-05,-0.000658035,0.008491516,0,
00:08.1,-4.01E-05,-0.000675201,0.008491516,0,
00:08.1,-4.58E-05,-0.000675201,0.008491516,0,
00:08.1,-5.15E-05,-0.000675201,0.008491516,0,
00:08.1,-4.58E-05,-0.000680923,0.008485794,0,
00:08.1,-5.15E-05,-0.00069809,0.008485794,0,
00:08.1,-5.15E-05,-0.000709534,0.008485794,0,
00:08.1,-5.15E-05,-0.00069809,0.008491516,0,
00:08.1,-4.58E-05,-0.000669479,0.008485794,0,
00:08.1,-4.01E-05,-0.000658035,0.008485794,0,
00:08.1,-4.58E-05,-0.000680923,0.008485794,0,
00:08.2,-4.58E-05,-0.00069809,0.008485794,0,
00:08.2,-5.15E-05,-0.000686646,0.008485794,0,
00:08.2,-4.58E-05,-0.000663757,0.008485794,0,
00:08.2,-4.01E-05,-0.000669479,0.008485794,0,
00:08.2,-4.58E-05,-0.000686646,0.008485794,0,
00:08.2,-5.15E-05,-0.000675201,0.008485794,0,
00:08.2,-4.58E-05,-0.000663757,0.008485794,0,
00:08.2,-4.01E-05,-0.000658035,0.008485794,0,
00:08.2,-4.58E-05,-0.000680923,0.008485794,0,
00:08.2,-5.72E-05,-0.000686646,0.008485794,0,
00:08.2,-5.15E-05,-0.000680923,0.008485794,0,
00:08.2,-4.58E-05,-0.000680923,0.008480072,0,
00:08.2,-4.58E-05,-0.000686646,0.008480072,0,
00:08.2,-4.58E-05,-0.000675201,0.008485794,0,
00:08.2,-4.58E-05,-0.000663757,0.008480072,0,
00:08.2,-5.15E-05,-0.000686646,0.008485794,0,
00:08.2,-4.58E-05,-0.000692368,0.008485794,0,
00:08.2,-5.15E-05,-0.000692368,0.008485794,0,
00:08.2,-5.15E-05,-0.000675201,0.008485794,0,
00:08.2,-4.01E-05,-0.000663757,0.008480072,0,
00:08.2,-4.01E-05,-0.000675201,0.008480072,0,
00:08.2,-5.15E-05,-0.000692368,0.008485794,0,
00:08.2,-5.72E-05,-0.00069809,0.008485794,0,
00:08.2,-5.72E-05,-0.000675201,0.008485794,0,
00:08.2,-5.15E-05,-0.000663757,0.008485794,0,
00:08.3,-4.58E-05,-0.000646591,0.008480072,0,
00:08.3,-4.01E-05,-0.000646591,0.008480072,0,
00:08.3,-4.58E-05,-0.000669479,0.008480072,0,
00:08.3,-5.15E-05,-0.000680923,0.008480072,0,
00:08.3,-5.15E-05,-0.000669479,0.008480072,0,
00:08.3,-5.15E-05,-0.000686646,0.008480072,0,
00:08.3,-5.15E-05,-0.000675201,0.008480072,0,
00:08.3,-4.58E-05,-0.000669479,0.008480072,0,
00:08.3,-4.01E-05,-0.000680923,0.00847435,0,
00:08.3,-4.01E-05,-0.000663757,0.00847435,0,
00:08.3,-4.01E-05,-0.000652313,0.00847435,0,
00:08.3,-4.01E-05,-0.000658035,0.00847435,0,
00:08.3,-4.58E-05,-0.000675201,0.00847435,0,
00:08.3,-4.58E-05,-0.00069809,0.008480072,0,
00:08.3,-4.58E-05,-0.000715256,0.00847435,0,
00:08.3,-4.58E-05,-0.00069809,0.00847435,0,
00:08.3,-4.01E-05,-0.000669479,0.00847435,0,
00:08.3,-4.01E-05,-0.000652313,0.00847435,0,
00:08.3,-4.01E-05,-0.000652313,0.00847435,0,
00:08.3,-4.01E-05,-0.000658035,0.00847435,0,
00:08.3,-4.58E-05,-0.000680923,0.00847435,0,
00:08.3,-5.15E-05,-0.000686646,0.00847435,0,
00:08.3,-4.58E-05,-0.000663757,0.00847435,0,
00:08.3,-4.58E-05,-0.000658035,0.00847435,0,
00:08.3,-5.15E-05,-0.000686646,0.008468628,0,
00:08.4,-5.15E-05,-0.000709534,0.00847435,0,
00:08.4,-5.15E-05,-0.000680923,0.00847435,0,
00:08.4,-4.01E-05,-0.000669479,0.00847435,0,
00:08.4,-4.01E-05,-0.000675201,0.008468628,0,
00:08.4,-4.58E-05,-0.000680923,0.008468628,0,
00:08.4,-5.72E-05,-0.000703812,0.008468628,0,
00:08.4,-5.72E-05,-0.000703812,0.008468628,0,
00:08.4,-5.15E-05,-0.000675201,0.008468628,0,
00:08.4,-4.58E-05,-0.000669479,0.008468628,0,
00:08.4,-4.58E-05,-0.000669479,0.008468628,0,
00:08.4,-5.72E-05,-0.000675201,0.008468628,0,
00:08.4,-5.15E-05,-0.000680923,0.008468628,0,
00:08.4,-5.72E-05,-0.000703812,0.008468628,0,
00:08.4,-5.72E-05,-0.000703812,0.008468628,0,
00:08.4,-5.72E-05,-0.000663757,0.008468628,0,
00:08.4,-5.15E-05,-0.000635147,0.008468628,0,
00:08.4,-5.15E-05,-0.000663757,0.008468628,0,
00:08.4,-5.72E-05,-0.000692368,0.008468628,0,
00:08.4,-5.72E-05,-0.000692368,0.008468628,0,
00:08.4,-5.15E-05,-0.000669479,0.008462906,0,
00:08.4,-5.15E-05,-0.000669479,0.008462906,0,
00:08.4,-4.01E-05,-0.000675201,0.008462906,0,
00:08.4,-4.01E-05,-0.000675201,0.008462906,0,
00:08.4,-4.01E-05,-0.000663757,0.008462906,0,
00:08.4,-4.01E-05,-0.000669479,0.008462906,0,
00:08.5,-4.58E-05,-0.00069809,0.008462906,0,
00:08.5,-4.58E-05,-0.000686646,0.008462906,0,
00:08.5,-4.58E-05,-0.000663757,0.008462906,0,
00:08.5,-4.58E-05,-0.000658035,0.008457184,0,
00:08.5,-4.58E-05,-0.000675201,0.008457184,0,
00:08.5,-4.58E-05,-0.000669479,0.008457184,0,
00:08.5,-4.58E-05,-0.000675201,0.008457184,0,
00:08.5,-4.58E-05,-0.000692368,0.008457184,0,
00:08.5,-5.72E-05,-0.000703812,0.008457184,0,
00:08.5,-4.58E-05,-0.000675201,0.008457184,0,
00:08.5,-4.01E-05,-0.000663757,0.008457184,0,
00:08.5,-3.43E-05,-0.000658035,0.008457184,0,
00:08.5,-4.01E-05,-0.000675201,0.008457184,0,
00:08.5,-4.58E-05,-0.000686646,0.008457184,0,
00:08.5,-4.58E-05,-0.000686646,0.008457184,0,
00:08.5,-5.15E-05,-0.000680923,0.008457184,0,
00:08.5,-4.58E-05,-0.000658035,0.008457184,0,
00:08.5,-4.58E-05,-0.000652313,0.008457184,0,
00:08.5,-4.58E-05,-0.000646591,0.008457184,0,
00:08.5,-4.58E-05,-0.000658035,0.008457184,0,
00:08.5,-4.58E-05,-0.000675201,0.008451462,0,
00:08.5,-5.15E-05,-0.00069809,0.008457184,0,
00:08.5,-5.15E-05,-0.000692368,0.008451462,0,
00:08.5,-5.15E-05,-0.000675201,0.008451462,0,
00:08.5,-5.15E-05,-0.000686646,0.008451462,0,
00:08.6,-5.15E-05,-0.000658035,0.008451462,0,
00:08.6,-4.01E-05,-0.000652313,0.008451462,0,
00:08.6,-4.01E-05,-0.000669479,0.008451462,0,
00:08.6,-4.58E-05,-0.000663757,0.008451462,0,
00:08.6,-4.58E-05,-0.000675201,0.008451462,0,
00:08.6,-4.01E-05,-0.000680923,0.008451462,0,
00:08.6,-4.58E-05,-0.000686646,0.008451462,0,
00:08.6,-4.58E-05,-0.000686646,0.008451462,0,
00:08.6,-5.15E-05,-0.000675201,0.008451462,0,
00:08.6,-4.58E-05,-0.000663757,0.00844574,0,
00:08.6,-4.58E-05,-0.000663757,0.008451462,0,
00:08.6,-4.58E-05,-0.000663757,0.008451462,0,
00:08.6,-5.15E-05,-0.000675201,0.00844574,0,
00:08.6,-5.15E-05,-0.00069809,0.00844574,0,
00:08.6,-5.15E-05,-0.00069809,0.00844574,0,
00:08.6,-5.15E-05,-0.00069809,0.00844574,0,
00:08.6,-4.58E-05,-0.000692368,0.00844574,0,
00:08.6,-4.58E-05,-0.000686646,0.00844574,0,
00:08.6,-4.58E-05,-0.000675201,0.00844574,0,
00:08.6,-4.58E-05,-0.000663757,0.00844574,0,
00:08.6,-4.58E-05,-0.000663757,0.00844574,0,
00:08.6,-4.01E-05,-0.000675201,0.008440018,0,
00:08.6,-4.01E-05,-0.000680923,0.008440018,0,
00:08.6,-3.43E-05,-0.000658035,0.008440018,0,
00:08.6,-2.86E-05,-0.000640869,0.008440018,0,
00:08.7,-2.86E-05,-0.000663757,0.008440018,0,
00:08.7,-3.43E-05,-0.000675201,0.008440018,0,
00:08.7,-4.58E-05,-0.000680923,0.008440018,0,
00:08.7,-4.01E-05,-0.000680923,0.008440018,0,
00:08.7,-3.43E-05,-0.000675201,0.008440018,0,
00:08.7,-3.43E-05,-0.000669479,0.008440018,0,
00:08.7,-3.43E-05,-0.000669479,0.008440018,0,
00:08.7,-4.01E-05,-0.000669479,0.008440018,0,
00:08.7,-4.58E-05,-0.000675201,0.008440018,0,
00:08.7,-4.58E-05,-0.00069809,0.008440018,0,
00:08.7,-4.01E-05,-0.000686646,0.008440018,0,
00:08.7,-4.01E-05,-0.000663757,0.008440018,0,
00:08.7,-4.01E-05,-0.000680923,0.008434296,0,
00:08.7,-3.43E-05,-0.00069809,0.008440018,0,
00:08.7,-3.43E-05,-0.000675201,0.008440018,0,
00:08.7,-2.86E-05,-0.000658035,0.008440018,0,
00:08.7,-3.43E-05,-0.000680923,0.008434296,0,
00:08.7,-3.43E-05,-0.00069809,0.008434296,0,
00:08.7,-3.43E-05,-0.000680923,0.008434296,0,
00:08.7,-3.43E-05,-0.000663757,0.008434296,0,
00:08.7,-3.43E-05,-0.000680923,0.008428574,0,
00:08.7,-3.43E-05,-0.000692368,0.008434296,0,
00:08.7,-3.43E-05,-0.000675201,0.008434296,0,
00:08.7,-3.43E-05,-0.000669479,0.008434296,0,
00:08.7,-3.43E-05,-0.000686646,0.008434296,0,
00:08.8,-3.43E-05,-0.000675201,0.008428574,0,
00:08.8,-3.43E-05,-0.000658035,0.008434296,0,
00:08.8,-2.86E-05,-0.000658035,0.008434296,0,
00:08.8,-2.86E-05,-0.000663757,0.008434296,0,
00:08.8,-2.86E-05,-0.000669479,0.008428574,0,
00:08.8,-2.86E-05,-0.000680923,0.008428574,0,
00:08.8,-3.43E-05,-0.000692368,0.008428574,0,
00:08.8,-2.86E-05,-0.000692368,0.008428574,0,
00:08.8,-2.86E-05,-0.000680923,0.008428574,0,
00:08.8,-3.43E-05,-0.000669479,0.008428574,0,
00:08.8,-3.43E-05,-0.000675201,0.008422852,0,
00:08.8,-4.01E-05,-0.000675201,0.008422852,0,
00:08.8,-3.43E-05,-0.000658035,0.008422852,0,
00:08.8,-2.86E-05,-0.000675201,0.008422852,0,
00:08.8,-2.86E-05,-0.000680923,0.008422852,0,
00:08.8,-3.43E-05,-0.000686646,0.008422852,0,
00:08.8,-4.01E-05,-0.000686646,0.008422852,0,
00:08.8,-4.01E-05,-0.000686646,0.008422852,0,
00:08.8,-3.43E-05,-0.000686646,0.008422852,0,
00:08.8,-4.01E-05,-0.000669479,0.008422852,0,
00:08.8,-3.43E-05,-0.000652313,0.008422852,0,
00:08.8,-3.43E-05,-0.000669479,0.00841713,0,
00:08.8,-4.01E-05,-0.000675201,0.00841713,0,
00:08.8,-4.01E-05,-0.000680923,0.00841713,0,
00:08.8,-4.58E-05,-0.000703812,0.00841713,0,
00:08.9,-5.15E-05,-0.000720978,0.00841713,0,
00:08.9,-4.01E-05,-0.00069809,0.00841713,0,
00:08.9,-3.43E-05,-0.000663757,0.00841713,0,
00:08.9,-3.43E-05,-0.000640869,0.00841713,0,
00:08.9,-3.43E-05,-0.000646591,0.00841713,0,
00:08.9,-3.43E-05,-0.000658035,0.00841713,0,
00:08.9,-3.43E-05,-0.000669479,0.00841713,0,
00:08.9,-4.01E-05,-0.000686646,0.00841713,0,
00:08.9,-4.58E-05,-0.000709534,0.00841713,0,
00:08.9,-4.58E-05,-0.00069809,0.00841713,0,
00:08.9,-4.01E-05,-0.000692368,0.00841713,0,
00:08.9,-3.43E-05,-0.000652313,0.008411407,0,
00:08.9,-2.86E-05,-0.000646591,0.008411407,0,
00:08.9,-3.43E-05,-0.000663757,0.008411407,0,
00:08.9,-4.01E-05,-0.000680923,0.008411407,0,
00:08.9,-4.58E-05,-0.00069809,0.008411407,0,
00:08.9,-4.01E-05,-0.000686646,0.008405685,0,
00:08.9,-3.43E-05,-0.000669479,0.008405685,0,
00:08.9,-2.86E-05,-0.000663757,0.008405685,0,
00:08.9,-3.43E-05,-0.000669479,0.008405685,0,
00:08.9,-3.43E-05,-0.000686646,0.008405685,0,
00:08.9,-4.01E-05,-0.00069809,0.008405685,0,
00:08.9,-3.43E-05,-0.000709534,0.008405685,0,
00:08.9,-3.43E-05,-0.000692368,0.008405685,0,
00:08.9,-4.01E-05,-0.000669479,0.008405685,0,
00:09.0,-4.01E-05,-0.000663757,0.008405685,0,
00:09.0,-3.43E-05,-0.000658035,0.008405685,0,
00:09.0,-3.43E-05,-0.000663757,0.008405685,0,
00:09.0,-4.01E-05,-0.000686646,0.008405685,0,
00:09.0,-4.58E-05,-0.000709534,0.008405685,0,
00:09.0,-5.15E-05,-0.000692368,0.008405685,0,
00:09.0,-4.58E-05,-0.00069809,0.008405685,0,
00:09.0,-4.01E-05,-0.000675201,0.008405685,0,
00:09.0,-3.43E-05,-0.000658035,0.008405685,0,
00:09.0,-3.43E-05,-0.000669479,0.008399963,0,
00:09.0,-3.43E-05,-0.000686646,0.008399963,0,
00:09.0,-4.01E-05,-0.000686646,0.008399963,0,
00:00:09,-4.01E-05,-0.000680923,0.008399963,0,
00:09.0,-4.01E-05,-0.000680923,0.008394241,0,
00:09.0,-4.01E-05,-0.00069809,0.008399963,0,
00:09.0,-4.01E-05,-0.00069809,0.008399963,0,
00:09.0,-4.01E-05,-0.000709534,0.008399963,0,
00:09.0,-4.01E-05,-0.000686646,0.008399963,0,
00:09.0,-4.01E-05,-0.000680923,0.008399963,0,
00:09.0,-4.01E-05,-0.000669479,0.008394241,0,
00:09.0,-3.43E-05,-0.000658035,0.008394241,0,
00:09.0,-4.01E-05,-0.000669479,0.008394241,0,
00:09.0,-4.01E-05,-0.000680923,0.008394241,0,
00:09.0,-4.01E-05,-0.000675201,0.008394241,0,
00:09.0,-4.01E-05,-0.000669479,0.008394241,0,
00:09.1,-4.01E-05,-0.000686646,0.008388519,0,
00:09.1,-4.58E-05,-0.00069809,0.008388519,0,
00:09.1,-4.58E-05,-0.000669479,0.008388519,0,
00:09.1,-4.01E-05,-0.000669479,0.008388519,0,
00:09.1,-3.43E-05,-0.000675201,0.008388519,0,
00:09.1,-4.01E-05,-0.000680923,0.008388519,0,
00:09.1,-4.58E-05,-0.000703812,0.008388519,0,
00:09.1,-4.58E-05,-0.000680923,0.008388519,0,
00:09.1,-4.01E-05,-0.000686646,0.008388519,0,
00:09.1,-4.58E-05,-0.00069809,0.008382797,0,
00:09.1,-4.01E-05,-0.000669479,0.008382797,0,
00:09.1,-3.43E-05,-0.000658035,0.008388519,0,
00:09.1,-4.01E-05,-0.000669479,0.008388519,0,
00:09.1,-4.01E-05,-0.00069809,0.008388519,0,
00:09.1,-4.01E-05,-0.000680923,0.008388519,0,
00:09.1,-4.01E-05,-0.000669479,0.008388519,0,
00:09.1,-4.58E-05,-0.000680923,0.008388519,0,
00:09.1,-4.58E-05,-0.000675201,0.008388519,0,
00:09.1,-4.01E-05,-0.000663757,0.008388519,0,
00:09.1,-3.43E-05,-0.000652313,0.008388519,0,
00:09.1,-4.01E-05,-0.000669479,0.008388519,0,
00:09.1,-4.58E-05,-0.000692368,0.008388519,0,
00:09.1,-4.58E-05,-0.000715256,0.008388519,0,
00:09.1,-4.58E-05,-0.000692368,0.008388519,0,
00:09.1,-3.43E-05,-0.000652313,0.008388519,0,
00:09.2,-3.43E-05,-0.000669479,0.008388519,0,
00:09.2,-3.43E-05,-0.000680923,0.008388519,0,
00:09.2,-3.43E-05,-0.000675201,0.008388519,0,
00:09.2,-3.43E-05,-0.000675201,0.008388519,0,
00:09.2,-3.43E-05,-0.000669479,0.008388519,0,
00:09.2,-4.01E-05,-0.000680923,0.008388519,0,
00:09.2,-4.01E-05,-0.000686646,0.008382797,0,
00:09.2,-4.01E-05,-0.000692368,0.008382797,0,
00:09.2,-3.43E-05,-0.000675201,0.008382797,0,
00:09.2,-4.01E-05,-0.000669479,0.008382797,0,
00:09.2,-4.01E-05,-0.000663757,0.008382797,0,
00:09.2,-4.01E-05,-0.000680923,0.008382797,0,
00:09.2,-3.43E-05,-0.000680923,0.008382797,0,
00:09.2,-2.86E-05,-0.000669479,0.008382797,0,
00:09.2,-3.43E-05,-0.000675201,0.008377075,0,
00:09.2,-3.43E-05,-0.000680923,0.008377075,0,
00:09.2,-4.58E-05,-0.000686646,0.008377075,0,
00:09.2,-4.58E-05,-0.000686646,0.008377075,0,
00:09.2,-3.43E-05,-0.000658035,0.008377075,0,
00:09.2,-3.43E-05,-0.000663757,0.008377075,0,
00:09.2,-3.43E-05,-0.000663757,0.008377075,0,
00:09.2,-4.01E-05,-0.000669479,0.008377075,0,
00:09.2,-4.01E-05,-0.000686646,0.008377075,0,
00:09.2,-4.01E-05,-0.000692368,0.008377075,0,
00:09.2,-3.43E-05,-0.00069809,0.008371353,0,
00:09.3,-3.43E-05,-0.000686646,0.008371353,0,
00:09.3,-4.01E-05,-0.000692368,0.008377075,0,
00:09.3,-4.01E-05,-0.000686646,0.008377075,0,
00:09.3,-3.43E-05,-0.000652313,0.008371353,0,
00:09.3,-3.43E-05,-0.000640869,0.008371353,0,
00:09.3,-3.43E-05,-0.000658035,0.008371353,0,
00:09.3,-4.01E-05,-0.000675201,0.008371353,0,
00:09.3,-4.58E-05,-0.000663757,0.008377075,0,
00:09.3,-4.01E-05,-0.000680923,0.008371353,0,
00:09.3,-4.01E-05,-0.000692368,0.008371353,0,
00:09.3,-4.01E-05,-0.000686646,0.008371353,0,
00:09.3,-4.01E-05,-0.000675201,0.008371353,0,
00:09.3,-4.01E-05,-0.000669479,0.008371353,0,
00:09.3,-4.01E-05,-0.000692368,0.008371353,0,
00:09.3,-4.01E-05,-0.00069809,0.008365631,0,
00:09.3,-4.01E-05,-0.000675201,0.008365631,0,
00:09.3,-4.01E-05,-0.000663757,0.008365631,0,
00:09.3,-4.01E-05,-0.000663757,0.008365631,0,
00:09.3,-4.58E-05,-0.000669479,0.008359909,0,
00:09.3,-4.01E-05,-0.000675201,0.008359909,0,
00:09.3,-4.58E-05,-0.00069809,0.008359909,0,
00:09.3,-5.72E-05,-0.000732422,0.008359909,0,
00:09.3,-5.15E-05,-0.0007267,0.008359909,0,
00:09.3,-4.01E-05,-0.000686646,0.008359909,0,
00:09.3,-3.43E-05,-0.000658035,0.008359909,0,
00:09.4,-4.01E-05,-0.000658035,0.008359909,0,
00:09.4,-4.01E-05,-0.000680923,0.008359909,0,
00:09.4,-4.58E-05,-0.00069809,0.008359909,0,
00:09.4,-4.01E-05,-0.000686646,0.008359909,0,
00:09.4,-4.01E-05,-0.000663757,0.008359909,0,
00:09.4,-4.01E-05,-0.000652313,0.008359909,0,
00:09.4,-4.01E-05,-0.000669479,0.008359909,0,
00:09.4,-4.01E-05,-0.000686646,0.008359909,0,
00:09.4,-4.01E-05,-0.000686646,0.008354187,0,
00:09.4,-4.58E-05,-0.000686646,0.008354187,0,
00:09.4,-4.58E-05,-0.000686646,0.008354187,0,
00:09.4,-4.58E-05,-0.000675201,0.008354187,0,
00:09.4,-4.58E-05,-0.000680923,0.008354187,0,
00:09.4,-4.58E-05,-0.000709534,0.008354187,0,
00:09.4,-4.58E-05,-0.0007267,0.008354187,0,
00:09.4,-4.58E-05,-0.000715256,0.008354187,0,
00:09.4,-4.01E-05,-0.000640869,0.008354187,0,
00:09.4,-2.86E-05,-0.000629425,0.008354187,0,
00:09.4,-2.86E-05,-0.000658035,0.008348465,0,
00:09.4,-3.43E-05,-0.000675201,0.008348465,0,
00:09.4,-4.01E-05,-0.000680923,0.008348465,0,
00:09.4,-4.01E-05,-0.000686646,0.008348465,0,
00:09.4,-4.01E-05,-0.000692368,0.008348465,0,
00:09.4,-4.58E-05,-0.000692368,0.008348465,0,
00:09.4,-4.58E-05,-0.000675201,0.008348465,0,
00:09.5,-4.58E-05,-0.000658035,0.008348465,0,
00:09.5,-4.01E-05,-0.000675201,0.008348465,0,
00:09.5,-4.58E-05,-0.000686646,0.008348465,0,
00:09.5,-4.58E-05,-0.000692368,0.008348465,0,
00:09.5,-4.58E-05,-0.000686646,0.008348465,0,
00:09.5,-4.58E-05,-0.000686646,0.008348465,0,
00:09.5,-5.15E-05,-0.00069809,0.008348465,0,
00:09.5,-5.15E-05,-0.000692368,0.008348465,0,
00:09.5,-4.58E-05,-0.000669479,0.008348465,0,
00:09.5,-3.43E-05,-0.000663757,0.008348465,0,
00:09.5,-4.01E-05,-0.000686646,0.008348465,0,
00:09.5,-4.01E-05,-0.000692368,0.008342743,0,
00:09.5,-4.58E-05,-0.000675201,0.008342743,0,
00:09.5,-4.58E-05,-0.000675201,0.008342743,0,
00:09.5,-4.58E-05,-0.000686646,0.008342743,0,
00:09.5,-4.58E-05,-0.000675201,0.008342743,0,
00:09.5,-4.58E-05,-0.000680923,0.008342743,0,
00:09.5,-4.58E-05,-0.000680923,0.008342743,0,
00:09.5,-4.58E-05,-0.000675201,0.008337021,0,
00:09.5,-4.58E-05,-0.000680923,0.008337021,0,
00:09.5,-4.58E-05,-0.000692368,0.008337021,0,
00:09.5,-4.58E-05,-0.000686646,0.008337021,0,
00:09.5,-4.58E-05,-0.000669479,0.008337021,0,
00:09.5,-4.01E-05,-0.000663757,0.008337021,0,
00:09.5,-4.58E-05,-0.000686646,0.008337021,0,
00:09.6,-4.58E-05,-0.00069809,0.008342743,0,
00:09.6,-4.58E-05,-0.000675201,0.008337021,0,
00:09.6,-4.01E-05,-0.000669479,0.008337021,0,
00:09.6,-4.01E-05,-0.000675201,0.008337021,0,
00:09.6,-4.01E-05,-0.000669479,0.008337021,0,
00:09.6,-4.01E-05,-0.000663757,0.008337021,0,
00:09.6,-4.01E-05,-0.000663757,0.008337021,0,
00:09.6,-4.01E-05,-0.000675201,0.008337021,0,
00:09.6,-4.58E-05,-0.000692368,0.008337021,0,
00:09.6,-4.58E-05,-0.000686646,0.008337021,0,
00:09.6,-4.58E-05,-0.000663757,0.008337021,0,
00:09.6,-4.01E-05,-0.000669479,0.008337021,0,
00:09.6,-3.43E-05,-0.000669479,0.008331299,0,
00:09.6,-4.01E-05,-0.000658035,0.008331299,0,
00:09.6,-4.01E-05,-0.000663757,0.008331299,0,
00:09.6,-4.58E-05,-0.000692368,0.008331299,0,
00:09.6,-4.58E-05,-0.000686646,0.008331299,0,
00:09.6,-4.01E-05,-0.000669479,0.008331299,0,
00:09.6,-4.01E-05,-0.000669479,0.008331299,0,
00:09.6,-4.58E-05,-0.000692368,0.008331299,0,
00:09.6,-4.58E-05,-0.000692368,0.008331299,0,
00:09.6,-4.58E-05,-0.000669479,0.008331299,0,
00:09.6,-4.58E-05,-0.000658035,0.008325577,0,
00:09.6,-4.58E-05,-0.000658035,0.008325577,0,
00:09.6,-4.58E-05,-0.000669479,0.008325577,0,
00:09.7,-4.58E-05,-0.000675201,0.008325577,0,
00:09.7,-4.58E-05,-0.000686646,0.008325577,0,
00:09.7,-4.58E-05,-0.000680923,0.008325577,0,
00:09.7,-4.58E-05,-0.000686646,0.008325577,0,
00:09.7,-4.58E-05,-0.000720978,0.008325577,0,
00:09.7,-4.58E-05,-0.000703812,0.008325577,0,
00:09.7,-4.58E-05,-0.000658035,0.008319855,0,
00:09.7,-4.58E-05,-0.000652313,0.008319855,0,
00:09.7,-4.01E-05,-0.000663757,0.008319855,0,
00:09.7,-4.58E-05,-0.000686646,0.008319855,0,
00:09.7,-4.58E-05,-0.000686646,0.008319855,0,
00:09.7,-4.58E-05,-0.000658035,0.008319855,0,
00:09.7,-4.01E-05,-0.000675201,0.008319855,0,
00:09.7,-4.01E-05,-0.000680923,0.008314133,0,
00:09.7,-4.58E-05,-0.000675201,0.008319855,0,
00:09.7,-4.58E-05,-0.000675201,0.008319855,0,
00:09.7,-5.15E-05,-0.000686646,0.008319855,0,
00:09.7,-5.15E-05,-0.000692368,0.008319855,0,
00:09.7,-4.58E-05,-0.000692368,0.008314133,0,
00:09.7,-4.58E-05,-0.000692368,0.008314133,0,
00:09.7,-5.15E-05,-0.000680923,0.008314133,0,
00:09.7,-4.58E-05,-0.000680923,0.008314133,0,
00:09.7,-4.58E-05,-0.000692368,0.008308411,0,
00:09.7,-5.15E-05,-0.000703812,0.008308411,0,
00:09.7,-5.15E-05,-0.000703812,0.008308411,0,
00:09.8,-4.58E-05,-0.000680923,0.008314133,0,
00:09.8,-4.58E-05,-0.000663757,0.008314133,0,
00:09.8,-5.15E-05,-0.000680923,0.008308411,0,
00:09.8,-5.15E-05,-0.000686646,0.008308411,0,
00:09.8,-4.58E-05,-0.000663757,0.008308411,0,
00:09.8,-4.01E-05,-0.000652313,0.008308411,0,
00:09.8,-4.58E-05,-0.000675201,0.008308411,0,
00:09.8,-4.58E-05,-0.000686646,0.008308411,0,
00:09.8,-5.15E-05,-0.000686646,0.008308411,0,
00:09.8,-4.58E-05,-0.000675201,0.008308411,0,
00:09.8,-4.01E-05,-0.000663757,0.008308411,0,
00:09.8,-4.58E-05,-0.000675201,0.008308411,0,
00:09.8,-4.58E-05,-0.000686646,0.008308411,0,
00:09.8,-4.58E-05,-0.000703812,0.008308411,0,
00:09.8,-5.15E-05,-0.000709534,0.008308411,0,
00:09.8,-5.72E-05,-0.000680923,0.008308411,0,
00:09.8,-5.15E-05,-0.000675201,0.008302689,0,
00:09.8,-4.58E-05,-0.000686646,0.008302689,0,
00:09.8,-4.58E-05,-0.000709534,0.008302689,0,
00:09.8,-4.58E-05,-0.0007267,0.008302689,0,
00:09.8,-5.15E-05,-0.00069809,0.008302689,0,
00:09.8,-4.58E-05,-0.000675201,0.008302689,0,
00:09.8,-4.58E-05,-0.000669479,0.008302689,0,
00:09.8,-5.15E-05,-0.000680923,0.008302689,0,
00:09.8,-5.15E-05,-0.000669479,0.008302689,0,
00:09.9,-4.01E-05,-0.000680923,0.008302689,0,
00:09.9,-4.01E-05,-0.000686646,0.008302689,0,
00:09.9,-4.01E-05,-0.000686646,0.008302689,0,
00:09.9,-4.01E-05,-0.000675201,0.008302689,0,
00:09.9,-4.01E-05,-0.000669479,0.008302689,0,
00:09.9,-4.58E-05,-0.000658035,0.008302689,0,
00:09.9,-4.58E-05,-0.000675201,0.008302689,0,
00:09.9,-4.01E-05,-0.000669479,0.008296967,0,
00:09.9,-4.58E-05,-0.000675201,0.008296967,0,
00:09.9,-4.58E-05,-0.000675201,0.008296967,0,
00:09.9,-4.01E-05,-0.000680923,0.008296967,0,
00:09.9,-4.01E-05,-0.000686646,0.008291245,0,
00:09.9,-4.58E-05,-0.000680923,0.008291245,0,
00:09.9,-4.58E-05,-0.000692368,0.008291245,0,
00:09.9,-5.15E-05,-0.000709534,0.008291245,0,
00:09.9,-5.15E-05,-0.000703812,0.008291245,0,
00:09.9,-4.58E-05,-0.000692368,0.008291245,0,
00:09.9,-4.58E-05,-0.000692368,0.008285522,0,
00:09.9,-4.01E-05,-0.000669479,0.008285522,0,
00:09.9,-4.01E-05,-0.000669479,0.008285522,0,
00:09.9,-3.43E-05,-0.000703812,0.008285522,0,
00:09.9,-4.58E-05,-0.000732422,0.008285522,0,
00:09.9,-4.58E-05,-0.00069809,0.008285522,0,
00:09.9,-4.01E-05,-0.000640869,0.008285522,0,
00:09.9,-4.01E-05,-0.000629425,0.008285522,0,
00:10.0,-4.58E-05,-0.000652313,0.008285522,0,
00:10.0,-4.01E-05,-0.000658035,0.008285522,0,
00:10.0,-4.01E-05,-0.000663757,0.008285522,0,
00:10.0,-4.01E-05,-0.000663757,0.008285522,0,
00:10.0,-4.58E-05,-0.000669479,0.008285522,0,
00:10.0,-4.58E-05,-0.000675201,0.008285522,0,
00:10.0,-4.58E-05,-0.000675201,0.008285522,0,
00:10.0,-4.58E-05,-0.000686646,0.008285522,0,
00:10.0,-5.15E-05,-0.000692368,0.008285522,0,
00:10.0,-5.15E-05,-0.000686646,0.008285522,0,
00:10.0,-4.58E-05,-0.000663757,0.0082798,0,
00:10.0,-4.01E-05,-0.000658035,0.0082798,0,
00:00:10,-4.58E-05,-0.000669479,0.008285522,0,
00:10.0,-4.58E-05,-0.000692368,0.008285522,0,
00:10.0,-5.15E-05,-0.000703812,0.008285522,0,
00:10.0,-4.58E-05,-0.000669479,0.008285522,0,
00:10.0,-3.43E-05,-0.000635147,0.0082798,0,
00:10.0,-3.43E-05,-0.000652313,0.0082798,0,
00:10.0,-4.58E-05,-0.000669479,0.0082798,0,
00:10.0,-4.58E-05,-0.000675201,0.0082798,0,
00:10.0,-5.15E-05,-0.000669479,0.008285522,0,
00:10.0,-5.15E-05,-0.000675201,0.0082798,0,
00:10.0,-5.15E-05,-0.000675201,0.0082798,0,
00:10.0,-5.72E-05,-0.000675201,0.0082798,0,
00:10.0,-6.29E-05,-0.000675201,0.0082798,0,
00:10.1,-5.15E-05,-0.000663757,0.0082798,0,
00:10.1,-5.15E-05,-0.000680923,0.0082798,0,
00:10.1,-5.72E-05,-0.00069809,0.0082798,0,
00:10.1,-5.72E-05,-0.000686646,0.0082798,0,
00:10.1,-5.15E-05,-0.000663757,0.0082798,0,
00:10.1,-5.15E-05,-0.000686646,0.0082798,0,
00:10.1,-5.72E-05,-0.000703812,0.0082798,0,
00:10.1,-5.72E-05,-0.000686646,0.008274078,0,
00:10.1,-5.72E-05,-0.000658035,0.008274078,0,
00:10.1,-5.72E-05,-0.000675201,0.008274078,0,
00:10.1,-6.29E-05,-0.000669479,0.008274078,0,
00:10.1,-6.29E-05,-0.000675201,0.008274078,0,
00:10.1,-5.72E-05,-0.000658035,0.008274078,0,
00:10.1,-5.15E-05,-0.000646591,0.008274078,0,
00:10.1,-5.15E-05,-0.000658035,0.008274078,0,
00:10.1,-5.72E-05,-0.000663757,0.008274078,0,
00:10.1,-5.72E-05,-0.000652313,0.008274078,0,
00:10.1,-6.29E-05,-0.000663757,0.008274078,0,
00:10.1,-6.29E-05,-0.000669479,0.008274078,0,
00:10.1,-6.29E-05,-0.000669479,0.008274078,0,
00:10.1,-5.72E-05,-0.000680923,0.008274078,0,
00:10.1,-6.29E-05,-0.000686646,0.008268356,0,
00:10.1,-6.29E-05,-0.000680923,0.008268356,0,
00:10.1,-5.72E-05,-0.000658035,0.008268356,0,
00:10.1,-5.72E-05,-0.000658035,0.008268356,0,
00:10.2,-6.29E-05,-0.000663757,0.008268356,0,
00:10.2,-5.72E-05,-0.000663757,0.008268356,0,
00:10.2,-5.72E-05,-0.000663757,0.008268356,0,
00:10.2,-5.72E-05,-0.000658035,0.008268356,0,
00:10.2,-5.72E-05,-0.000663757,0.008268356,0,
00:10.2,-5.72E-05,-0.000686646,0.008268356,0,
00:10.2,-6.29E-05,-0.000692368,0.008268356,0,
00:10.2,-5.72E-05,-0.000675201,0.008268356,0,
00:10.2,-5.72E-05,-0.000658035,0.008262634,0,
00:10.2,-5.72E-05,-0.000658035,0.008262634,0,
00:10.2,-5.72E-05,-0.000669479,0.008262634,0,
00:10.2,-6.29E-05,-0.000658035,0.008262634,0,
00:10.2,-5.72E-05,-0.000640869,0.008262634,0,
00:10.2,-5.72E-05,-0.000663757,0.008262634,0,
00:10.2,-6.29E-05,-0.000675201,0.008262634,0,
00:10.2,-6.29E-05,-0.000663757,0.008262634,0,
00:10.2,-6.29E-05,-0.000675201,0.008256912,0,
00:10.2,-6.29E-05,-0.000686646,0.008256912,0,
00:10.2,-6.29E-05,-0.000686646,0.008256912,0,
00:10.2,-6.29E-05,-0.000680923,0.008256912,0,
00:10.2,-6.29E-05,-0.000686646,0.008256912,0,
00:10.2,-6.29E-05,-0.000675201,0.008256912,0,
00:10.2,-5.72E-05,-0.000663757,0.00825119,0,
00:10.2,-5.72E-05,-0.000680923,0.00825119,0,
00:10.2,-6.87E-05,-0.00069809,0.00825119,0,
00:10.3,-7.44E-05,-0.000709534,0.00825119,0,
00:10.3,-6.87E-05,-0.000686646,0.00825119,0,
00:10.3,-5.72E-05,-0.000669479,0.00825119,0,
00:10.3,-5.72E-05,-0.000658035,0.00825119,0,
00:10.3,-5.72E-05,-0.000663757,0.00825119,0,
00:10.3,-5.72E-05,-0.000652313,0.00825119,0,
00:10.3,-5.72E-05,-0.000652313,0.00825119,0,
00:10.3,-6.29E-05,-0.000658035,0.00825119,0,
00:10.3,-6.29E-05,-0.000669479,0.00825119,0,
00:10.3,-6.29E-05,-0.000675201,0.008245468,0,
00:10.3,-6.29E-05,-0.000675201,0.008245468,0,
00:10.3,-6.29E-05,-0.000669479,0.008245468,0,
00:10.3,-6.87E-05,-0.000680923,0.008245468,0,
00:10.3,-6.87E-05,-0.000686646,0.008245468,0,
00:10.3,-6.29E-05,-0.000686646,0.008245468,0,
00:10.3,-6.87E-05,-0.000686646,0.008245468,0,
00:10.3,-6.29E-05,-0.000652313,0.008245468,0,
00:10.3,-5.72E-05,-0.000680923,0.008245468,0,
00:10.3,-5.72E-05,-0.000709534,0.008239746,0,
00:10.3,-6.87E-05,-0.000709534,0.008245468,0,
00:10.3,-7.44E-05,-0.000703812,0.008239746,0,
00:10.3,-6.29E-05,-0.00069809,0.008239746,0,
00:10.3,-6.87E-05,-0.000703812,0.008239746,0,
00:10.3,-6.87E-05,-0.000669479,0.008239746,0,
00:10.3,-5.72E-05,-0.000646591,0.008239746,0,
00:10.4,-5.72E-05,-0.000652313,0.008239746,0,
00:10.4,-5.72E-05,-0.000669479,0.008239746,0,
00:10.4,-6.29E-05,-0.000692368,0.008239746,0,
00:10.4,-6.29E-05,-0.000692368,0.008239746,0,
00:10.4,-5.72E-05,-0.000680923,0.008234024,0,
00:10.4,-5.72E-05,-0.000669479,0.008234024,0,
00:10.4,-5.72E-05,-0.000675201,0.008239746,0,
00:10.4,-5.72E-05,-0.000709534,0.008239746,0,
00:10.4,-6.29E-05,-0.000738144,0.008239746,0,
00:10.4,-6.29E-05,-0.00069809,0.008239746,0,
00:10.4,-6.29E-05,-0.000680923,0.008239746,0,
00:10.4,-5.72E-05,-0.000663757,0.008234024,0,
00:10.4,-5.15E-05,-0.000663757,0.008234024,0,
00:10.4,-5.15E-05,-0.000669479,0.008228302,0,
00:10.4,-6.29E-05,-0.00069809,0.008234024,0,
00:10.4,-6.87E-05,-0.0007267,0.008234024,0,
00:10.4,-6.87E-05,-0.000709534,0.008234024,0,
00:10.4,-6.29E-05,-0.000675201,0.008234024,0,
00:10.4,-6.29E-05,-0.000680923,0.008234024,0,
00:10.4,-6.29E-05,-0.000692368,0.008228302,0,
00:10.4,-5.72E-05,-0.000680923,0.008228302,0,
00:10.4,-5.15E-05,-0.000658035,0.008228302,0,
00:10.4,-5.15E-05,-0.000652313,0.008228302,0,
00:10.4,-5.72E-05,-0.000663757,0.008228302,0,
00:10.4,-6.29E-05,-0.000675201,0.008228302,0,
00:10.5,-6.29E-05,-0.000680923,0.008228302,0,
00:10.5,-5.72E-05,-0.000680923,0.008228302,0,
00:10.5,-5.72E-05,-0.000675201,0.008228302,0,
00:10.5,-5.72E-05,-0.000675201,0.008228302,0,
00:10.5,-6.29E-05,-0.00069809,0.008228302,0,
00:10.5,-6.29E-05,-0.000703812,0.008228302,0,
00:10.5,-6.87E-05,-0.000692368,0.008228302,0,
00:10.5,-6.29E-05,-0.000669479,0.00822258,0,
00:10.5,-6.29E-05,-0.000663757,0.00822258,0,
00:10.5,-6.29E-05,-0.000692368,0.00822258,0,
00:10.5,-6.29E-05,-0.000703812,0.00822258,0,
00:10.5,-6.29E-05,-0.000686646,0.00822258,0,
00:10.5,-5.72E-05,-0.00069809,0.00822258,0,
00:10.5,-5.72E-05,-0.00069809,0.00822258,0,
00:10.5,-6.29E-05,-0.000703812,0.00822258,0,
00:10.5,-5.72E-05,-0.000715256,0.008216858,0,
00:10.5,-5.72E-05,-0.000692368,0.008216858,0,
00:10.5,-5.15E-05,-0.000675201,0.008216858,0,
00:10.5,-5.15E-05,-0.000669479,0.008216858,0,
00:10.5,-5.15E-05,-0.000663757,0.008216858,0,
00:10.5,-4.58E-05,-0.000675201,0.008216858,0,
00:10.5,-5.72E-05,-0.000675201,0.008216858,0,
00:10.5,-5.15E-05,-0.000669479,0.008216858,0,
00:10.5,-5.15E-05,-0.000658035,0.008216858,0,
00:10.5,-5.72E-05,-0.000663757,0.008216858,0,
00:10.6,-5.15E-05,-0.000669479,0.008216858,0,
00:10.6,-5.15E-05,-0.000669479,0.008216858,0,
00:10.6,-5.15E-05,-0.000675201,0.008211136,0,
00:10.6,-5.72E-05,-0.000686646,0.008211136,0,
00:10.6,-5.15E-05,-0.000680923,0.008211136,0,
00:10.6,-5.72E-05,-0.000669479,0.008211136,0,
00:10.6,-5.72E-05,-0.000675201,0.008205414,0,
00:10.6,-5.72E-05,-0.000692368,0.008205414,0,
00:10.6,-6.29E-05,-0.0007267,0.008205414,0,
00:10.6,-6.87E-05,-0.000715256,0.008205414,0,
00:10.6,-6.29E-05,-0.000658035,0.008205414,0,
