Elapsed_Time,EMG1,EMG2,EMG3,BioRadio Event,Unnamed: 5
00:00:00,0.001544952,0.019563675,9.16E-05,0,
00:00.0,0.001516342,0.019557953,0.000108719,0,
00:00.0,0.001550674,0.019563675,0.000120163,0,
00:00.0,0.001556396,0.019563675,9.16E-05,0,
00:00.0,0.001544952,0.019563675,9.73E-05,0,
00:00.0,0.00153923,0.019563675,0.000108719,0,
00:00.0,0.001522064,0.019563675,0.000108719,0,
00:00.0,0.001504898,0.019557953,0.000120163,0,
00:00.0,0.001544952,0.019569397,8.01E-05,0,
00:00.0,0.001527786,0.019580841,7.44E-05,0,
00:00.0,0.00153923,0.019569397,9.73E-05,0,
00:00.0,0.001556396,0.019563675,0.000148773,0,
00:00.0,0.001544952,0.019563675,0.000114441,0,
00:00.1,0.001533508,0.019563675,0.000114441,0,
00:00.1,0.001550674,0.019563675,9.73E-05,0,
00:00.1,0.001550674,0.019575119,9.73E-05,0,
00:00.1,0.001522064,0.019569397,9.16E-05,0,
00:00.1,0.001527786,0.019563675,9.16E-05,0,
00:00.1,0.001527786,0.019569397,0.000120163,0,
00:00.1,0.001516342,0.019557953,0.000114441,0,
00:00.1,0.001544952,0.019569397,0.000108719,0,
00:00.1,0.001544952,0.019569397,9.73E-05,0,
00:00.1,0.001556396,0.019563675,8.58E-05,0,
00:00.1,0.001544952,0.019569397,0.000108719,0,
00:00.1,0.00153923,0.019575119,0.000108719,0,
00:00.1,0.001516342,0.019563675,0.000108719,0,
00:00.1,0.001527786,0.019563675,9.16E-05,0,
00:00.1,0.001544952,0.019563675,0.000114441,0,
00:00.1,0.001544952,0.019569397,0.000102997,0,
00:00.1,0.001556396,0.019569397,9.16E-05,0,
00:00.1,0.001544952,0.019563675,0.000102997,0,
00:00.1,0.001527786,0.019563675,0.000114441,0,
00:00.1,0.001533508,0.019569397,0.000108719,0,
00:00.1,0.001550674,0.019575119,8.58E-05,0,
00:00.1,0.001556396,0.019580841,9.73E-05,0,
00:00.1,0.001522064,0.019569397,0.000120163,0,
00:00.1,0.001527786,0.019569397,0.000102997,0,
00:00.1,0.00153923,0.019569397,0.000102997,0,
00:00.2,0.001544952,0.019563675,0.000102997,0,
00:00.2,0.001544952,0.019563675,0.000102997,0,
00:00.2,0.001522064,0.019563675,0.000114441,0,
00:00.2,0.001516342,0.019557953,9.73E-05,0,
00:00.2,0.001550674,0.019575119,0.000102997,0,
00:00.2,0.001556396,0.019569397,0.000108719,0,
00:00.2,0.001533508,0.019563675,0.000108719,0,
00:00.2,0.00151062,0.019563675,0.000131607,0,
00:00.2,0.001527786,0.019569397,0.000120163,0,
00:00.2,0.001544952,0.019575119,0.000137329,0,
00:00.2,0.001533508,0.019569397,0.000114441,0,
00:00.2,0.001493454,0.019563675,8.58E-05,0,
00:00.2,0.001544952,0.019575119,0.000108719,0,
00:00.2,0.001562119,0.019580841,0.000125885,0,
00:00.2,0.001556396,0.019575119,0.000120163,0,
00:00.2,0.001556396,0.019580841,0.000108719,0,
00:00.2,0.001556396,0.019575119,0.000108719,0,
00:00.2,0.001550674,0.019569397,0.000120163,0,
00:00.2,0.00153923,0.019575119,0.000114441,0,
00:00.2,0.001533508,0.019575119,0.000125885,0,
00:00.2,0.001544952,0.019586563,0.000120163,0,
00:00.2,0.001544952,0.019575119,9.73E-05,0,
00:00.2,0.001527786,0.019552231,0.000137329,0,
00:00.2,0.001516342,0.019569397,0.000165939,0,
00:00.2,0.001533508,0.019575119,0.000114441,0,
00:00.3,0.00153923,0.019575119,9.16E-05,0,
00:00.3,0.001522064,0.019575119,0.000131607,0,
00:00.3,0.001562119,0.019586563,0.000143051,0,
00:00.3,0.001550674,0.019575119,0.000120163,0,
00:00.3,0.001550674,0.019575119,0.000143051,0,
00:00.3,0.001550674,0.019580841,0.000131607,0,
00:00.3,0.001533508,0.019580841,0.000125885,0,
00:00.3,0.001533508,0.019575119,0.000143051,0,
00:00.3,0.001550674,0.019580841,0.000125885,0,
00:00.3,0.001533508,0.019569397,0.000131607,0,
00:00.3,0.001527786,0.019563675,0.000120163,0,
00:00.3,0.001533508,0.019563675,0.000108719,0,
00:00.3,0.001544952,0.019580841,0.000120163,0,
00:00.3,0.001533508,0.019580841,0.000114441,0,
00:00.3,0.00151062,0.019575119,0.000131607,0,
00:00.3,0.001527786,0.019580841,0.000125885,0,
00:00.3,0.001527786,0.019575119,0.000108719,0,
00:00.3,0.001556396,0.019569397,0.000137329,0,
00:00.3,0.001562119,0.019580841,0.000137329,0,
00:00.3,0.00153923,0.019575119,0.000131607,0,
00:00.3,0.001533508,0.019569397,0.000131607,0,
00:00.3,0.001544952,0.019575119,0.000131607,0,
00:00.3,0.001556396,0.019586563,0.000131607,0,
00:00.3,0.001544952,0.019580841,0.000120163,0,
00:00.3,0.001544952,0.019580841,0.000114441,0,
00:00.4,0.001544952,0.019575119,0.000120163,0,
00:00.4,0.001544952,0.019575119,0.000120163,0,
00:00.4,0.001533508,0.019580841,0.000114441,0,
00:00.4,0.001550674,0.019580841,0.000137329,0,
00:00.4,0.001550674,0.019580841,0.000143051,0,
00:00.4,0.001544952,0.019575119,0.000137329,0,
00:00.4,0.001544952,0.019575119,0.000137329,0,
00:00.4,0.001550674,0.019580841,0.000131607,0,
00:00.4,0.00153923,0.019575119,0.000125885,0,
00:00.4,0.00153923,0.019575119,0.000125885,0,
00:00.4,0.001544952,0.019575119,0.000102997,0,
00:00.4,0.00153923,0.019580841,0.000131607,0,
00:00.4,0.001550674,0.019580841,0.000108719,0,
00:00.4,0.001516342,0.019580841,0.000125885,0,
00:00.4,0.001522064,0.019580841,0.000148773,0,
00:00.4,0.001562119,0.019575119,0.000137329,0,
00:00.4,0.001556396,0.019575119,0.000143051,0,
00:00.4,0.001550674,0.019580841,0.000143051,0,
00:00.4,0.001544952,0.019586563,0.000137329,0,
00:00.4,0.00153923,0.019575119,0.000125885,0,
00:00.4,0.00153923,0.019580841,0.000120163,0,
00:00.4,0.001544952,0.019580841,0.000131607,0,
00:00.4,0.001516342,0.019580841,0.000120163,0,
00:00.4,0.001487732,0.019580841,0.000137329,0,
00:00.4,0.00153923,0.019580841,0.000148773,0,
00:00.5,0.001590729,0.019586563,0.000137329,0,
00:00.5,0.001562119,0.019580841,0.000154495,0,
00:00.5,0.00153923,0.019575119,0.000154495,0,
00:00.5,0.001527786,0.019592285,0.000143051,0,
00:00.5,0.001516342,0.019580841,0.000148773,0,
00:00.5,0.001556396,0.019580841,0.000137329,0,
00:00.5,0.001556396,0.019575119,0.000114441,0,
00:00.5,0.00153923,0.019580841,0.000131607,0,
00:00.5,0.001556396,0.019586563,0.000137329,0,
00:00.5,0.001544952,0.019580841,0.000120163,0,
00:00.5,0.001550674,0.019580841,0.000143051,0,
00:00.5,0.00153923,0.019580841,0.000143051,0,
00:00.5,0.001499176,0.019575119,0.000137329,0,
00:00.5,0.001487732,0.019575119,0.000120163,0,
00:00.5,0.001522064,0.019575119,0.000137329,0,
00:00.5,0.001573563,0.019592285,0.000125885,0,
00:00.5,0.001533508,0.019580841,0.000143051,0,
00:00.5,0.001562119,0.019592285,0.000137329,0,
00:00.5,0.001567841,0.019598007,0.000148773,0,
00:00.5,0.001556396,0.019586563,0.000137329,0,
00:00.5,0.001556396,0.019586563,0.000137329,0,
00:00.5,0.001556396,0.019586563,0.000125885,0,
00:00.5,0.001533508,0.019580841,0.000137329,0,
00:00.5,0.001533508,0.019586563,0.000137329,0,
00:00.5,0.001544952,0.019592285,0.000143051,0,
00:00.6,0.001544952,0.019586563,0.000125885,0,
00:00.6,0.001544952,0.019580841,0.000131607,0,
00:00.6,0.001550674,0.019592285,0.000143051,0,
00:00.6,0.00153923,0.019580841,0.000131607,0,
00:00.6,0.001544952,0.019580841,0.000143051,0,
00:00.6,0.001544952,0.019592285,0.000148773,0,
00:00.6,0.001522064,0.019575119,0.000137329,0,
00:00.6,0.001504898,0.019575119,0.000143051,0,
00:00.6,0.001522064,0.019592285,0.000137329,0,
00:00.6,0.001562119,0.019592285,0.000114441,0,
00:00.6,0.001544952,0.019575119,0.000125885,0,
00:00.6,0.001562119,0.019586563,0.000148773,0,
00:00.6,0.001567841,0.019586563,0.000143051,0,
00:00.6,0.001556396,0.019586563,0.000131607,0,
00:00.6,0.001544952,0.019586563,0.000131607,0,
00:00.6,0.001550674,0.019586563,0.000125885,0,
00:00.6,0.001556396,0.019592285,0.000131607,0,
00:00.6,0.001544952,0.019592285,0.000148773,0,
00:00.6,0.001556396,0.019586563,0.000137329,0,
00:00.6,0.001562119,0.019592285,0.000137329,0,
00:00.6,0.001550674,0.019592285,0.000137329,0,
00:00.6,0.001550674,0.019586563,0.000125885,0,
00:00.6,0.001556396,0.019592285,0.000120163,0,
00:00.6,0.00153923,0.019592285,0.000143051,0,
00:00.6,0.001527786,0.019580841,0.000131607,0,
00:00.7,0.001556396,0.019598007,0.000131607,0,
00:00.7,0.001556396,0.019598007,0.000137329,0,
00:00.7,0.001556396,0.019586563,0.000131607,0,
00:00.7,0.00153923,0.019592285,0.000137329,0,
00:00.7,0.001527786,0.019580841,0.000137329,0,
00:00.7,0.001527786,0.019586563,0.000125885,0,
00:00.7,0.001522064,0.019586563,0.000148773,0,
00:00.7,0.001556396,0.019598007,0.000120163,0,
00:00.7,0.001573563,0.019603729,0.000131607,0,
00:00.7,0.001544952,0.019592285,0.000137329,0,
00:00.7,0.001562119,0.019586563,0.000125885,0,
00:00.7,0.001550674,0.019592285,0.000114441,0,
00:00.7,0.00153923,0.019598007,0.000114441,0,
00:00.7,0.001522064,0.019592285,0.000120163,0,
00:00.7,0.001522064,0.019592285,0.000114441,0,
00:00.7,0.001567841,0.019598007,0.000143051,0,
00:00.7,0.001544952,0.019598007,0.000120163,0,
00:00.7,0.001550674,0.019598007,0.000131607,0,
00:00.7,0.001550674,0.019592285,0.000154495,0,
00:00.7,0.001556396,0.019592285,0.000137329,0,
00:00.7,0.001550674,0.019598007,0.000137329,0,
00:00.7,0.001550674,0.019592285,0.000148773,0,
00:00.7,0.001544952,0.019598007,0.000137329,0,
00:00.7,0.001544952,0.019598007,0.000137329,0,
00:00.7,0.001550674,0.019598007,0.000131607,0,
00:00.8,0.001522064,0.019586563,0.000114441,0,
00:00.8,0.001527786,0.019603729,0.000143051,0,
00:00.8,0.001556396,0.019598007,0.000143051,0,
00:00.8,0.001556396,0.019592285,0.000143051,0,
00:00.8,0.001544952,0.019598007,0.000137329,0,
00:00.8,0.001499176,0.019592285,0.000137329,0,
00:00.8,0.001516342,0.019586563,0.000148773,0,
00:00.8,0.001567841,0.019598007,0.000137329,0,
00:00.8,0.001573563,0.019603729,0.000131607,0,
00:00.8,0.001556396,0.019598007,0.000143051,0,
00:00.8,0.001550674,0.019598007,0.000143051,0,
00:00.8,0.001533508,0.019592285,0.000120163,0,
00:00.8,0.001544952,0.019598007,0.000120163,0,
00:00.8,0.001550674,0.019598007,0.000143051,0,
00:00.8,0.001544952,0.019598007,0.000154495,0,
00:00.8,0.001533508,0.019592285,0.000148773,0,
00:00.8,0.00153923,0.019603729,0.000137329,0,
00:00.8,0.001550674,0.019609451,0.000137329,0,
00:00.8,0.001556396,0.019603729,0.000125885,0,
00:00.8,0.001550674,0.019598007,0.000125885,0,
00:00.8,0.00153923,0.019598007,0.000131607,0,
00:00.8,0.001533508,0.019592285,0.000154495,0,
00:00.8,0.001550674,0.019609451,0.000143051,0,
00:00.8,0.001544952,0.019598007,0.000143051,0,
00:00.8,0.001544952,0.019598007,0.000143051,0,
00:00.9,0.001516342,0.019592285,0.000148773,0,
00:00.9,0.001550674,0.019603729,0.000125885,0,
00:00.9,0.001567841,0.019603729,0.000120163,0,
00:00.9,0.001556396,0.019603729,0.000137329,0,
00:00.9,0.00153923,0.019598007,0.000131607,0,
00:00.9,0.001527786,0.019598007,0.000131607,0,
00:00.9,0.001544952,0.019603729,0.000137329,0,
00:00.9,0.00153923,0.019598007,0.000143051,0,
00:00.9,0.001522064,0.019598007,0.000148773,0,
00:00.9,0.001533508,0.019586563,0.000137329,0,
00:00.9,0.001567841,0.019603729,0.000131607,0,
00:00.9,0.001550674,0.019609451,0.000137329,0,
00:00.9,0.001544952,0.019609451,0.000131607,0,
00:00.9,0.001544952,0.019603729,0.000148773,0,
00:00.9,0.001550674,0.019598007,0.000137329,0,
00:00.9,0.00153923,0.019598007,0.000137329,0,
00:00.9,0.00151062,0.019592285,0.000154495,0,
00:00.9,0.001544952,0.019603729,0.000131607,0,
00:00.9,0.001550674,0.019603729,0.000131607,0,
00:00.9,0.001567841,0.019609451,0.000137329,0,
00:00.9,0.001556396,0.019603729,0.000131607,0,
00:00.9,0.001550674,0.019603729,0.000131607,0,
00:00.9,0.00153923,0.019609451,0.000131607,0,
00:00.9,0.001516342,0.019603729,0.000120163,0,
00:00.9,0.001522064,0.019598007,0.000148773,0,
00:01.0,0.001562119,0.019609451,0.000125885,0,
00:01.0,0.001556396,0.019609451,0.000120163,0,
00:01.0,0.001556396,0.019615173,0.000137329,0,
00:01.0,0.001550674,0.019603729,0.000131607,0,
00:01.0,0.001527786,0.019598007,0.000125885,0,
00:01.0,0.00153923,0.019603729,0.000137329,0,
00:01.0,0.001533508,0.019603729,0.000131607,0,
00:01.0,0.001516342,0.019598007,0.000131607,0,
00:01.0,0.001544952,0.019615173,0.000137329,0,
00:01.0,0.001544952,0.019609451,0.000108719,0,
00:01.0,0.001550674,0.019603729,0.000143051,0,
00:01.0,0.00153923,0.019603729,0.000154495,0,
00:00:01,0.00153923,0.019603729,0.000131607,0,
00:01.0,0.00153923,0.019609451,0.000120163,0,
00:01.0,0.001556396,0.019603729,0.000125885,0,
00:01.0,0.001550674,0.019598007,0.000137329,0,
00:01.0,0.001550674,0.019609451,0.000137329,0,
00:01.0,0.001544952,0.019603729,0.000131607,0,
00:01.0,0.001550674,0.019609451,0.000131607,0,
00:01.0,0.001544952,0.019603729,0.000114441,0,
00:01.0,0.001544952,0.019609451,0.000114441,0,
00:01.0,0.001550674,0.019603729,0.000125885,0,
00:01.0,0.001544952,0.019609451,0.000114441,0,
00:01.0,0.00153923,0.019603729,0.000125885,0,
00:01.0,0.001533508,0.019592285,0.000125885,0,
00:01.1,0.001550674,0.019609451,0.000137329,0,
00:01.1,0.001522064,0.019609451,0.000114441,0,
00:01.1,0.001550674,0.019609451,0.000114441,0,
00:01.1,0.001550674,0.019615173,0.000114441,0,
00:01.1,0.001544952,0.019598007,0.000108719,0,
00:01.1,0.001504898,0.019592285,0.000114441,0,
00:01.1,0.00153923,0.019609451,0.000143051,0,
00:01.1,0.00151062,0.019615173,0.000137329,0,
00:01.1,0.001550674,0.019609451,0.000131607,0,
00:01.1,0.001579285,0.019603729,0.000114441,0,
00:01.1,0.001550674,0.019615173,0.000131607,0,
00:01.1,0.001533508,0.019609451,0.000137329,0,
00:01.1,0.001544952,0.019609451,0.000137329,0,
00:01.1,0.001567841,0.019609451,0.000114441,0,
00:01.1,0.001556396,0.019609451,0.000120163,0,
00:01.1,0.001556396,0.019609451,0.000125885,0,
00:01.1,0.00153923,0.019598007,0.000114441,0,
00:01.1,0.00153923,0.019603729,0.000131607,0,
00:01.1,0.001527786,0.019609451,0.000131607,0,
00:01.1,0.001556396,0.019609451,0.000131607,0,
00:01.1,0.00153923,0.019609451,0.000114441,0,
00:01.1,0.001544952,0.019609451,0.000125885,0,
00:01.1,0.001544952,0.019615173,0.000125885,0,
00:01.1,0.001544952,0.019609451,0.000108719,0,
00:01.1,0.001550674,0.019603729,0.000137329,0,
00:01.2,0.001544952,0.019609451,0.000148773,0,
00:01.2,0.001527786,0.019598007,0.000114441,0,
00:01.2,0.001527786,0.019620895,9.73E-05,0,
00:01.2,0.00153923,0.019620895,0.000120163,0,
00:01.2,0.00153923,0.019609451,0.000120163,0,
00:01.2,0.001533508,0.019603729,0.000125885,0,
00:01.2,0.00153923,0.019609451,0.000125885,0,
00:01.2,0.001544952,0.019615173,0.000125885,0,
00:01.2,0.00153923,0.019609451,0.000114441,0,
00:01.2,0.001516342,0.019598007,0.000108719,0,
00:01.2,0.00151062,0.019603729,0.000120163,0,
00:01.2,0.001556396,0.019615173,0.000131607,0,
00:01.2,0.001550674,0.019609451,0.000108719,0,
00:01.2,0.001550674,0.019609451,0.000125885,0,
00:01.2,0.001562119,0.019609451,0.000120163,0,
00:01.2,0.001556396,0.019609451,0.000125885,0,
00:01.2,0.00153923,0.019609451,0.000108719,0,
00:01.2,0.00153923,0.019615173,0.000114441,0,
00:01.2,0.001544952,0.019603729,0.000120163,0,
00:01.2,0.001556396,0.019609451,9.73E-05,0,
00:01.2,0.00153923,0.019609451,0.000108719,0,
00:01.2,0.001533508,0.019609451,0.000120163,0,
00:01.2,0.001522064,0.019603729,0.000114441,0,
00:01.2,0.001556396,0.019615173,0.000120163,0,
00:01.2,0.001550674,0.019609451,0.000120163,0,
00:01.3,0.001544952,0.019603729,0.000120163,0,
00:01.3,0.001516342,0.019609451,0.000131607,0,
00:01.3,0.001527786,0.019615173,9.73E-05,0,
00:01.3,0.001544952,0.019609451,0.000120163,0,
00:01.3,0.00153923,0.019609451,0.000102997,0,
00:01.3,0.001567841,0.019609451,9.73E-05,0,
00:01.3,0.001550674,0.019609451,0.000102997,0,
00:01.3,0.001550674,0.019620895,9.73E-05,0,
00:01.3,0.001533508,0.019609451,0.000102997,0,
00:01.3,0.00153923,0.019620895,0.000102997,0,
00:01.3,0.001567841,0.019615173,0.000114441,0,
00:01.3,0.001556396,0.019615173,0.000108719,0,
00:01.3,0.00153923,0.019615173,0.000108719,0,
00:01.3,0.00153923,0.019609451,0.000102997,0,
00:01.3,0.00153923,0.019609451,0.000114441,0,
00:01.3,0.001573563,0.019615173,0.000114441,0,
00:01.3,0.001556396,0.019615173,0.000108719,0,
00:01.3,0.00153923,0.019615173,9.73E-05,0,
00:01.3,0.001544952,0.019615173,9.16E-05,0,
00:01.3,0.001556396,0.019615173,9.16E-05,0,
00:01.3,0.00153923,0.019609451,0.000102997,0,
00:01.3,0.001550674,0.019615173,0.000114441,0,
00:01.3,0.001562119,0.019615173,0.000102997,0,
00:01.3,0.00153923,0.019609451,0.000102997,0,
00:01.3,0.001533508,0.019615173,9.73E-05,0,
00:01.4,0.001550674,0.019615173,0.000102997,0,
00:01.4,0.001550674,0.019615173,9.73E-05,0,
00:01.4,0.001550674,0.019620895,9.16E-05,0,
00:01.4,0.00153923,0.019609451,9.16E-05,0,
00:01.4,0.001544952,0.019615173,0.000114441,0,
00:01.4,0.001544952,0.019615173,0.000108719,0,
00:01.4,0.00153923,0.019615173,0.000102997,0,
00:01.4,0.001544952,0.019620895,9.73E-05,0,
00:01.4,0.001550674,0.019620895,0.000102997,0,
00:01.4,0.001562119,0.019620895,8.58E-05,0,
00:01.4,0.00153923,0.019615173,9.73E-05,0,
00:01.4,0.001533508,0.019615173,9.16E-05,0,
00:01.4,0.001533508,0.019620895,9.73E-05,0,
00:01.4,0.001550674,0.019626617,9.73E-05,0,
00:01.4,0.001556396,0.019626617,9.73E-05,0,
00:01.4,0.001544952,0.019615173,0.000102997,0,
00:01.4,0.001533508,0.019609451,9.73E-05,0,
00:01.4,0.001527786,0.019620895,9.16E-05,0,
00:01.4,0.00153923,0.019620895,9.16E-05,0,
00:01.4,0.001556396,0.019620895,0.000108719,0,
00:01.4,0.001533508,0.019615173,0.000102997,0,
00:01.4,0.001522064,0.019615173,9.73E-05,0,
00:01.4,0.001522064,0.019620895,9.16E-05,0,
00:01.4,0.001567841,0.019620895,8.58E-05,0,
00:01.4,0.001556396,0.019620895,9.73E-05,0,
00:01.5,0.001522064,0.019615173,9.73E-05,0,
00:01.5,0.00153923,0.019620895,9.16E-05,0,
00:01.5,0.001544952,0.019620895,0.000114441,0,
00:01.5,0.00153923,0.019620895,0.000102997,0,
00:01.5,0.001562119,0.019620895,8.01E-05,0,
00:01.5,0.001533508,0.019615173,9.73E-05,0,
00:01.5,0.001522064,0.019615173,0.000114441,0,
00:01.5,0.001550674,0.019626617,9.73E-05,0,
00:01.5,0.001556396,0.019620895,9.73E-05,0,
00:01.5,0.001562119,0.019615173,9.16E-05,0,
00:01.5,0.001562119,0.019615173,7.44E-05,0,
00:01.5,0.001544952,0.019620895,8.01E-05,0,
00:01.5,0.00153923,0.019620895,8.58E-05,0,
00:01.5,0.001544952,0.019615173,9.16E-05,0,
00:01.5,0.001556396,0.019615173,8.58E-05,0,
00:01.5,0.001544952,0.019620895,9.16E-05,0,
00:01.5,0.001544952,0.019626617,8.58E-05,0,
00:01.5,0.00153923,0.019620895,8.58E-05,0,
00:01.5,0.001556396,0.019620895,9.16E-05,0,
00:01.5,0.001533508,0.019615173,8.58E-05,0,
00:01.5,0.00153923,0.019615173,6.87E-05,0,
00:01.5,0.001550674,0.019620895,8.58E-05,0,
00:01.5,0.00153923,0.019620895,8.58E-05,0,
00:01.5,0.001533508,0.019620895,9.73E-05,0,
00:01.5,0.001522064,0.019615173,9.73E-05,0,
00:01.6,0.001544952,0.019615173,8.01E-05,0,
00:01.6,0.001556396,0.019620895,8.01E-05,0,
00:01.6,0.001556396,0.019615173,8.01E-05,0,
00:01.6,0.001567841,0.019620895,7.44E-05,0,
00:01.6,0.001550674,0.019609451,8.58E-05,0,
00:01.6,0.001550674,0.019620895,7.44E-05,0,
00:01.6,0.001544952,0.019620895,8.01E-05,0,
00:01.6,0.001544952,0.019620895,8.01E-05,0,
00:01.6,0.001556396,0.019620895,6.29E-05,0,
00:01.6,0.001562119,0.019620895,5.15E-05,0,
00:01.6,0.001556396,0.019615173,8.01E-05,0,
00:01.6,0.001550674,0.019615173,7.44E-05,0,
00:01.6,0.001544952,0.019626617,8.01E-05,0,
00:01.6,0.001550674,0.019615173,8.01E-05,0,
00:01.6,0.001550674,0.019620895,8.58E-05,0,
00:01.6,0.001527786,0.019626617,8.58E-05,0,
00:01.6,0.00151062,0.019620895,6.87E-05,0,
00:01.6,0.001556396,0.019615173,8.01E-05,0,
00:01.6,0.00153923,0.019615173,8.01E-05,0,
00:01.6,0.001527786,0.019615173,6.29E-05,0,
00:01.6,0.001556396,0.019620895,7.44E-05,0,
00:01.6,0.00153923,0.019620895,7.44E-05,0,
00:01.6,0.001544952,0.019620895,6.29E-05,0,
00:01.6,0.001556396,0.019626617,8.58E-05,0,
00:01.6,0.001556396,0.019615173,4.58E-05,0,
00:01.7,0.001556396,0.019620895,6.29E-05,0,
00:01.7,0.001550674,0.019626617,6.29E-05,0,
00:01.7,0.001550674,0.019632339,6.29E-05,0,
00:01.7,0.001556396,0.019632339,6.29E-05,0,
00:01.7,0.001544952,0.019626617,4.58E-05,0,
00:01.7,0.001550674,0.019615173,6.29E-05,0,
00:01.7,0.001556396,0.019626617,6.87E-05,0,
00:01.7,0.001556396,0.019626617,7.44E-05,0,
00:01.7,0.001562119,0.019632339,6.29E-05,0,
00:01.7,0.001550674,0.019626617,5.15E-05,0,
00:01.7,0.001522064,0.019615173,5.72E-05,0,
00:01.7,0.00153923,0.019620895,5.72E-05,0,
00:01.7,0.001533508,0.019620895,7.44E-05,0,
00:01.7,0.001567841,0.019632339,5.72E-05,0,
00:01.7,0.001562119,0.019626617,6.29E-05,0,
00:01.7,0.001544952,0.019620895,6.87E-05,0,
00:01.7,0.001533508,0.019626617,7.44E-05,0,
00:01.7,0.001544952,0.019626617,5.15E-05,0,
00:01.7,0.00153923,0.019615173,5.72E-05,0,
00:01.7,0.00153923,0.019620895,6.87E-05,0,
00:01.7,0.001550674,0.019626617,4.58E-05,0,
00:01.7,0.00153923,0.019626617,5.72E-05,0,
00:01.7,0.001522064,0.019632339,7.44E-05,0,
00:01.7,0.001556396,0.019632339,6.29E-05,0,
00:01.7,0.001567841,0.019620895,5.72E-05,0,
00:01.8,0.001562119,0.019632339,4.58E-05,0,
00:01.8,0.001544952,0.019626617,4.58E-05,0,
00:01.8,0.00153923,0.019626617,7.44E-05,0,
00:01.8,0.001556396,0.019626617,8.01E-05,0,
00:01.8,0.001550674,0.019620895,6.29E-05,0,
00:01.8,0.001544952,0.019626617,4.58E-05,0,
00:01.8,0.001544952,0.019626617,5.72E-05,0,
00:01.8,0.001544952,0.019626617,6.87E-05,0,
00:01.8,0.001550674,0.019626617,6.87E-05,0,
00:01.8,0.001544952,0.019620895,6.29E-05,0,
00:01.8,0.00153923,0.019626617,6.29E-05,0,
00:01.8,0.001550674,0.019632339,6.87E-05,0,
00:01.8,0.001533508,0.019626617,6.29E-05,0,
00:01.8,0.00153923,0.019626617,5.15E-05,0,
00:01.8,0.00151062,0.019615173,6.29E-05,0,
00:01.8,0.00153923,0.019632339,4.58E-05,0,
00:01.8,0.001550674,0.019632339,5.72E-05,0,
00:01.8,0.001527786,0.019620895,7.44E-05,0,
00:01.8,0.001544952,0.019626617,5.72E-05,0,
00:01.8,0.001544952,0.019620895,5.72E-05,0,
00:01.8,0.001527786,0.019615173,6.87E-05,0,
00:01.8,0.001550674,0.019632339,5.15E-05,0,
00:01.8,0.00153923,0.019626617,6.29E-05,0,
00:01.8,0.001544952,0.019626617,6.87E-05,0,
00:01.8,0.001567841,0.019626617,5.15E-05,0,
00:01.9,0.001550674,0.019632339,5.72E-05,0,
00:01.9,0.001522064,0.019626617,6.29E-05,0,
00:01.9,0.001522064,0.019620895,5.15E-05,0,
00:01.9,0.001556396,0.019626617,4.01E-05,0,
00:01.9,0.001550674,0.019626617,6.29E-05,0,
00:01.9,0.001544952,0.019638062,5.72E-05,0,
00:01.9,0.001533508,0.019632339,5.72E-05,0,
00:01.9,0.00153923,0.019626617,5.15E-05,0,
00:01.9,0.00153923,0.019626617,4.01E-05,0,
00:01.9,0.001544952,0.019632339,4.58E-05,0,
00:01.9,0.001527786,0.019620895,6.29E-05,0,
00:01.9,0.001522064,0.019620895,5.15E-05,0,
00:01.9,0.00153923,0.019632339,3.43E-05,0,
00:01.9,0.001556396,0.019643784,4.58E-05,0,
00:01.9,0.001556396,0.019632339,3.43E-05,0,
00:01.9,0.001544952,0.019632339,4.01E-05,0,
00:01.9,0.001522064,0.019626617,5.15E-05,0,
00:01.9,0.001544952,0.019626617,5.72E-05,0,
00:01.9,0.001556396,0.019620895,4.58E-05,0,
00:01.9,0.001544952,0.019626617,3.43E-05,0,
00:01.9,0.001550674,0.019632339,3.43E-05,0,
00:01.9,0.001550674,0.019626617,5.15E-05,0,
00:01.9,0.001544952,0.019626617,4.58E-05,0,
00:01.9,0.00153923,0.019626617,2.86E-05,0,
00:01.9,0.001522064,0.019626617,5.15E-05,0,
00:02.0,0.001533508,0.019632339,5.72E-05,0,
00:02.0,0.001556396,0.019638062,5.15E-05,0,
00:02.0,0.001544952,0.019632339,2.86E-05,0,
00:02.0,0.001556396,0.019620895,4.01E-05,0,
00:02.0,0.001550674,0.019632339,2.29E-05,0,
00:02.0,0.00153923,0.019632339,5.72E-05,0,
00:02.0,0.00153923,0.019638062,3.43E-05,0,
00:02.0,0.001533508,0.019626617,2.86E-05,0,
00:02.0,0.00153923,0.019626617,5.72E-05,0,
00:02.0,0.001533508,0.019626617,5.15E-05,0,
00:02.0,0.001550674,0.019632339,3.43E-05,0,
00:02.0,0.00153923,0.019632339,3.43E-05,0,
00:00:02,0.00153923,0.019632339,2.86E-05,0,
00:02.0,0.001533508,0.019632339,3.43E-05,0,
00:02.0,0.001550674,0.019632339,4.58E-05,0,
00:02.0,0.001567841,0.019638062,3.43E-05,0,
00:02.0,0.001556396,0.019638062,4.01E-05,0,
00:02.0,0.00153923,0.019620895,3.43E-05,0,
00:02.0,0.001544952,0.019626617,1.72E-05,0,
00:02.0,0.001544952,0.019643784,2.86E-05,0,
00:02.0,0.001544952,0.019632339,3.43E-05,0,
00:02.0,0.001544952,0.019643784,4.01E-05,0,
00:02.0,0.001550674,0.019643784,2.29E-05,0,
00:02.0,0.001550674,0.019638062,2.86E-05,0,
00:02.0,0.001544952,0.019632339,3.43E-05,0,
00:02.1,0.001533508,0.019638062,3.43E-05,0,
00:02.1,0.001533508,0.019638062,2.29E-05,0,
00:02.1,0.001556396,0.019643784,1.72E-05,0,
00:02.1,0.001544952,0.019643784,3.43E-05,0,
00:02.1,0.00153923,0.019638062,4.01E-05,0,
00:02.1,0.001550674,0.019638062,1.14E-05,0,
00:02.1,0.001544952,0.019638062,3.43E-05,0,
00:02.1,0.001522064,0.019638062,3.43E-05,0,
00:02.1,0.001544952,0.019638062,3.43E-05,0,
00:02.1,0.001533508,0.019632339,3.43E-05,0,
00:02.1,0.001544952,0.019638062,2.86E-05,0,
00:02.1,0.001516342,0.019638062,4.01E-05,0,
00:02.1,0.001516342,0.019638062,3.43E-05,0,
00:02.1,0.001579285,0.019638062,2.29E-05,0,
00:02.1,0.001562119,0.019643784,2.29E-05,0,
00:02.1,0.00153923,0.019643784,1.72E-05,0,
00:02.1,0.001550674,0.019649506,1.72E-05,0,
00:02.1,0.001550674,0.019638062,2.29E-05,0,
00:02.1,0.001550674,0.019649506,2.29E-05,0,
00:02.1,0.001550674,0.019643784,4.58E-05,0,
00:02.1,0.001544952,0.019643784,4.01E-05,0,
00:02.1,0.001533508,0.019643784,3.43E-05,0,
00:02.1,0.001544952,0.019643784,2.86E-05,0,
00:02.1,0.001544952,0.019638062,2.86E-05,0,
00:02.1,0.001550674,0.019649506,2.29E-05,0,
00:02.2,0.00153923,0.019649506,2.29E-05,0,
00:02.2,0.001527786,0.019649506,4.01E-05,0,
00:02.2,0.001533508,0.019643784,4.58E-05,0,
00:02.2,0.001522064,0.019638062,2.86E-05,0,
00:02.2,0.001562119,0.019649506,2.86E-05,0,
00:02.2,0.001550674,0.019643784,2.86E-05,0,
00:02.2,0.001533508,0.019643784,2.29E-05,0,
00:02.2,0.00153923,0.019638062,2.29E-05,0,
00:02.2,0.001556396,0.019649506,3.43E-05,0,
00:02.2,0.001527786,0.019643784,2.29E-05,0,
00:02.2,0.001522064,0.019649506,1.72E-05,0,
00:02.2,0.001504898,0.019643784,2.86E-05,0,
00:02.2,0.001556396,0.019649506,2.86E-05,0,
00:02.2,0.001567841,0.019649506,4.58E-05,0,
00:02.2,0.00153923,0.019643784,5.15E-05,0,
00:02.2,0.00153923,0.019643784,4.01E-05,0,
00:02.2,0.001550674,0.019649506,2.29E-05,0,
00:02.2,0.001556396,0.019649506,1.72E-05,0,
00:02.2,0.001544952,0.019643784,2.86E-05,0,
00:02.2,0.001544952,0.019649506,2.86E-05,0,
00:02.2,0.001516342,0.019643784,2.29E-05,0,
00:02.2,0.001544952,0.019649506,2.86E-05,0,
00:02.2,0.00153923,0.019655228,1.72E-05,0,
00:02.2,0.001544952,0.019649506,3.43E-05,0,
00:02.2,0.001556396,0.019649506,2.86E-05,0,
00:02.3,0.001550674,0.019655228,2.29E-05,0,
00:02.3,0.00153923,0.019649506,2.86E-05,0,
00:02.3,0.001516342,0.019638062,2.29E-05,0,
00:02.3,0.001550674,0.019643784,4.58E-05,0,
00:02.3,0.00153923,0.019649506,4.01E-05,0,
00:02.3,0.001544952,0.01966095,1.72E-05,0,
00:02.3,0.001550674,0.019666672,1.14E-05,0,
00:02.3,0.001544952,0.019649506,1.72E-05,0,
00:02.3,0.001527786,0.019643784,3.43E-05,0,
00:02.3,0.001527786,0.019643784,4.01E-05,0,
00:02.3,0.001562119,0.019655228,0,0,
00:02.3,0.001533508,0.019649506,3.43E-05,0,
00:02.3,0.001533508,0.019649506,4.01E-05,0,
00:02.3,0.001544952,0.019655228,4.01E-05,0,
00:02.3,0.001544952,0.019643784,4.01E-05,0,
00:02.3,0.00153923,0.019649506,2.29E-05,0,
00:02.3,0.00153923,0.019649506,-1.14E-05,0,
00:02.3,0.001544952,0.019655228,2.29E-05,0,
00:02.3,0.001544952,0.019649506,2.29E-05,0,
00:02.3,0.001527786,0.019643784,3.43E-05,0,
00:02.3,0.001522064,0.019655228,2.86E-05,0,
00:02.3,0.00153923,0.019655228,1.72E-05,0,
00:02.3,0.001562119,0.019649506,1.14E-05,0,
00:02.3,0.001544952,0.019649506,5.72E-06,0,
00:02.3,0.001533508,0.019649506,1.72E-05,0,
00:02.4,0.001522064,0.019655228,2.29E-05,0,
00:02.4,0.001527786,0.019649506,1.14E-05,0,
00:02.4,0.001550674,0.019655228,-5.72E-06,0,
00:02.4,0.001544952,0.019655228,5.72E-06,0,
00:02.4,0.001556396,0.01966095,1.72E-05,0,
00:02.4,0.001533508,0.019655228,1.14E-05,0,
00:02.4,0.001544952,0.01966095,1.14E-05,0,
00:02.4,0.00153923,0.019655228,1.14E-05,0,
00:02.4,0.001527786,0.019643784,1.72E-05,0,
00:02.4,0.001516342,0.019649506,5.72E-06,0,
00:02.4,0.001533508,0.019649506,5.72E-06,0,
00:02.4,0.001550674,0.01966095,1.72E-05,0,
00:02.4,0.001527786,0.019655228,1.14E-05,0,
00:02.4,0.001522064,0.019649506,1.72E-05,0,
00:02.4,0.001567841,0.01966095,5.72E-06,0,
00:02.4,0.001544952,0.01966095,1.14E-05,0,
00:02.4,0.00153923,0.019655228,5.72E-06,0,
00:02.4,0.001550674,0.019655228,-5.72E-06,0,
00:02.4,0.001544952,0.019655228,-1.14E-05,0,
00:02.4,0.00153923,0.019655228,-5.72E-06,0,
00:02.4,0.00153923,0.019655228,1.14E-05,0,
00:02.4,0.001533508,0.019655228,0,0,
00:02.4,0.001533508,0.01966095,1.14E-05,0,
00:02.4,0.001544952,0.019649506,5.72E-06,0,
00:02.4,0.001527786,0.019655228,0,0,
00:02.5,0.001527786,0.019655228,5.72E-06,0,
00:02.5,0.001527786,0.01966095,-5.72E-06,0,
00:02.5,0.001562119,0.019666672,-1.72E-05,0,
00:02.5,0.001550674,0.019655228,-5.72E-06,0,
00:02.5,0.00153923,0.019655228,-5.72E-06,0,
00:02.5,0.001527786,0.019666672,1.14E-05,0,
00:02.5,0.001527786,0.019649506,1.72E-05,0,
00:02.5,0.001544952,0.019666672,-5.72E-06,0,
00:02.5,0.001533508,0.019655228,-5.72E-06,0,
00:02.5,0.001504898,0.019649506,0,0,
00:02.5,0.001522064,0.01966095,2.29E-05,0,
00:02.5,0.001556396,0.019672394,0,0,
00:02.5,0.001556396,0.01966095,-1.14E-05,0,
00:02.5,0.001544952,0.01966095,5.72E-06,0,
00:02.5,0.001544952,0.019666672,-5.72E-06,0,
00:02.5,0.001527786,0.019666672,0,0,
00:02.5,0.001516342,0.01966095,1.14E-05,0,
00:02.5,0.001556396,0.01966095,5.72E-06,0,
00:02.5,0.001556396,0.01966095,5.72E-06,0,
00:02.5,0.00153923,0.019666672,1.14E-05,0,
00:02.5,0.001533508,0.01966095,5.72E-06,0,
00:02.5,0.001533508,0.01966095,1.14E-05,0,
00:02.5,0.001544952,0.019666672,-1.14E-05,0,
00:02.5,0.001556396,0.01966095,0,0,
00:02.5,0.001550674,0.01966095,5.72E-06,0,
00:02.6,0.00153923,0.01966095,0,0,
00:02.6,0.001527786,0.019666672,0,0,
00:02.6,0.001550674,0.01966095,0,0,
00:02.6,0.001527786,0.019655228,5.72E-06,0,
00:02.6,0.001533508,0.01966095,1.14E-05,0,
00:02.6,0.001556396,0.019672394,0,0,
00:02.6,0.00153923,0.019666672,-5.72E-06,0,
00:02.6,0.001522064,0.01966095,1.14E-05,0,
00:02.6,0.001470566,0.019643784,1.14E-05,0,
00:02.6,0.001527786,0.019655228,-5.72E-06,0,
00:02.6,0.001544952,0.019666672,1.72E-05,0,
00:02.6,0.001562119,0.019672394,0,0,
00:02.6,0.001550674,0.019666672,1.14E-05,0,
00:02.6,0.001544952,0.019666672,1.14E-05,0,
00:02.6,0.001533508,0.01966095,0,0,
00:02.6,0.001527786,0.01966095,5.72E-06,0,
00:02.6,0.00153923,0.019666672,-5.72E-06,0,
00:02.6,0.001544952,0.019672394,-1.14E-05,0,
00:02.6,0.00153923,0.019666672,-5.72E-06,0,
00:02.6,0.001527786,0.01966095,0,0,
00:02.6,0.001516342,0.019666672,0,0,
00:02.6,0.001522064,0.019666672,1.14E-05,0,
00:02.6,0.001533508,0.01966095,1.14E-05,0,
00:02.6,0.001533508,0.01966095,-1.72E-05,0,
00:02.6,0.001544952,0.019666672,-5.72E-06,0,
00:02.7,0.00153923,0.019666672,0,0,
00:02.7,0.001527786,0.019672394,-5.72E-06,0,
00:02.7,0.001516342,0.01966095,-5.72E-06,0,
00:02.7,0.001533508,0.01966095,1.72E-05,0,
00:02.7,0.001533508,0.01966095,5.72E-06,0,
00:02.7,0.001493454,0.019655228,0,0,
00:02.7,0.001527786,0.019666672,5.72E-06,0,
00:02.7,0.001544952,0.019672394,-1.14E-05,0,
00:02.7,0.001527786,0.019666672,-5.72E-06,0,
00:02.7,0.001504898,0.019666672,5.72E-06,0,
00:02.7,0.001516342,0.01966095,0,0,
00:02.7,0.00153923,0.019678116,-5.72E-06,0,
00:02.7,0.001533508,0.019666672,-5.72E-06,0,
00:02.7,0.001533508,0.01966095,0,0,
00:02.7,0.001522064,0.019672394,0,0,
00:02.7,0.001522064,0.019666672,-2.29E-05,0,
00:02.7,0.001516342,0.019672394,-5.72E-06,0,
00:02.7,0.001527786,0.019672394,1.14E-05,0,
00:02.7,0.001522064,0.019666672,5.72E-06,0,
00:02.7,0.001516342,0.019672394,1.14E-05,0,
00:02.7,0.00151062,0.019666672,5.72E-06,0,
00:02.7,0.00151062,0.01966095,5.72E-06,0,
00:02.7,0.001504898,0.01966095,-5.72E-06,0,
00:02.7,0.001544952,0.019672394,-5.72E-06,0,
00:02.7,0.001522064,0.019672394,5.72E-06,0,
00:02.8,0.001499176,0.01966095,5.72E-06,0,
00:02.8,0.00151062,0.01966095,0,0,
00:02.8,0.00151062,0.019666672,0,0,
00:02.8,0.001544952,0.019678116,-5.72E-06,0,
00:02.8,0.001522064,0.019672394,5.72E-06,0,
00:02.8,0.001504898,0.019672394,-5.72E-06,0,
00:02.8,0.001516342,0.019672394,5.72E-06,0,
00:02.8,0.001533508,0.019672394,0,0,
00:02.8,0.001533508,0.019672394,-1.14E-05,0,
00:02.8,0.001499176,0.019672394,0,0,
00:02.8,0.001516342,0.019672394,1.14E-05,0,
00:02.8,0.00151062,0.019672394,1.72E-05,0,
00:02.8,0.001499176,0.019666672,-5.72E-06,0,
00:02.8,0.00151062,0.019666672,-5.72E-06,0,
00:02.8,0.00151062,0.019666672,2.29E-05,0,
00:02.8,0.001516342,0.019672394,5.72E-06,0,
00:02.8,0.001516342,0.019672394,0,0,
00:02.8,0.001522064,0.019678116,0,0,
00:02.8,0.001504898,0.019666672,-5.72E-06,0,
00:02.8,0.001522064,0.019672394,-5.72E-06,0,
00:02.8,0.001516342,0.019672394,0,0,
00:02.8,0.001516342,0.019672394,-1.14E-05,0,
00:02.8,0.001522064,0.019672394,-5.72E-06,0,
00:02.8,0.00151062,0.019666672,0,0,
00:02.8,0.001516342,0.019672394,5.72E-06,0,
00:02.9,0.001522064,0.019678116,0,0,
00:02.9,0.00151062,0.019678116,-5.72E-06,0,
00:02.9,0.00151062,0.019672394,-1.14E-05,0,
00:02.9,0.001516342,0.019672394,-5.72E-06,0,
00:02.9,0.001493454,0.019678116,2.29E-05,0,
00:02.9,0.001499176,0.019672394,-1.72E-05,0,
00:02.9,0.001527786,0.019683838,-5.72E-06,0,
00:02.9,0.001527786,0.019683838,-1.14E-05,0,
00:02.9,0.001516342,0.019683838,-1.14E-05,0,
00:02.9,0.001487732,0.019666672,0,0,
00:02.9,0.001504898,0.019672394,0,0,
00:02.9,0.001516342,0.019672394,-5.72E-06,0,
00:02.9,0.001504898,0.019672394,-1.14E-05,0,
00:02.9,0.001487732,0.019666672,-1.14E-05,0,
00:02.9,0.001493454,0.019672394,-1.14E-05,0,
00:02.9,0.001499176,0.019683838,-1.14E-05,0,
00:02.9,0.001522064,0.019683838,-5.72E-06,0,
00:02.9,0.001522064,0.019678116,0,0,
00:02.9,0.00151062,0.019672394,0,0,
00:02.9,0.001504898,0.019678116,-5.72E-06,0,
00:02.9,0.001499176,0.019678116,-1.14E-05,0,
00:02.9,0.00151062,0.019678116,-1.14E-05,0,
00:02.9,0.00151062,0.019678116,-1.72E-05,0,
00:02.9,0.00151062,0.019683838,-1.14E-05,0,
00:02.9,0.001493454,0.019683838,-1.72E-05,0,
00:03.0,0.001499176,0.01968956,-1.14E-05,0,
00:03.0,0.001476288,0.019678116,0,0,
00:03.0,0.001493454,0.019678116,-5.72E-06,0,
00:03.0,0.00151062,0.019678116,1.14E-05,0,
00:03.0,0.00153923,0.019683838,0,0,
00:03.0,0.00151062,0.01968956,-1.72E-05,0,
00:03.0,0.001499176,0.019683838,-1.14E-05,0,
00:03.0,0.001516342,0.019683838,-5.72E-06,0,
00:03.0,0.001504898,0.019678116,-1.14E-05,0,
00:03.0,0.001487732,0.019678116,-1.72E-05,0,
00:03.0,0.00148201,0.019678116,-1.72E-05,0,
00:03.0,0.001516342,0.019701004,-1.72E-05,0,
00:00:03,0.00151062,0.01968956,-1.72E-05,0,
00:03.0,0.001522064,0.019683838,-5.72E-06,0,
00:03.0,0.00151062,0.01968956,-1.14E-05,0,
00:03.0,0.001493454,0.019683838,-2.29E-05,0,
00:03.0,0.001499176,0.01968956,-2.29E-05,0,
00:03.0,0.001504898,0.019683838,-1.72E-05,0,
00:03.0,0.001493454,0.019683838,-1.14E-05,0,
00:03.0,0.001499176,0.019683838,-1.72E-05,0,
00:03.0,0.001516342,0.01968956,-1.72E-05,0,
00:03.0,0.001493454,0.019683838,-5.72E-06,0,
00:03.0,0.001499176,0.01968956,1.14E-05,0,
00:03.0,0.001504898,0.019683838,-5.72E-06,0,
00:03.0,0.001499176,0.019678116,-1.72E-05,0,
00:03.1,0.001493454,0.019683838,-5.72E-06,0,
00:03.1,0.001499176,0.01968956,-1.14E-05,0,
00:03.1,0.001504898,0.01968956,-1.14E-05,0,
00:03.1,0.001493454,0.019683838,-5.72E-06,0,
00:03.1,0.00148201,0.01968956,-5.72E-06,0,
00:03.1,0.001499176,0.01968956,-1.14E-05,0,
00:03.1,0.001487732,0.019683838,-3.43E-05,0,
00:03.1,0.00148201,0.019683838,-1.14E-05,0,
00:03.1,0.001499176,0.019695282,-5.72E-06,0,
00:03.1,0.001516342,0.019695282,-4.01E-05,0,
00:03.1,0.001527786,0.019695282,-2.29E-05,0,
00:03.1,0.001493454,0.019678116,-5.72E-06,0,
00:03.1,0.001504898,0.019695282,0,0,
00:03.1,0.001493454,0.01968956,-2.29E-05,0,
00:03.1,0.00151062,0.019695282,-1.72E-05,0,
00:03.1,0.001504898,0.019695282,-2.29E-05,0,
00:03.1,0.001499176,0.01968956,-1.72E-05,0,
00:03.1,0.001504898,0.01968956,-1.72E-05,0,
00:03.1,0.001504898,0.01968956,-1.14E-05,0,
00:03.1,0.001493454,0.01968956,-1.14E-05,0,
00:03.1,0.001493454,0.01968956,-2.86E-05,0,
00:03.1,0.00151062,0.019695282,-1.72E-05,0,
00:03.1,0.001487732,0.019678116,-1.14E-05,0,
00:03.1,0.00151062,0.019695282,-1.72E-05,0,
00:03.1,0.001504898,0.019695282,-1.72E-05,0,
00:03.2,0.001504898,0.019695282,-2.29E-05,0,
00:03.2,0.00151062,0.019695282,0,0,
00:03.2,0.00151062,0.01968956,-1.72E-05,0,
00:03.2,0.001504898,0.019678116,-1.14E-05,0,
00:03.2,0.001447678,0.019666672,2.29E-05,0,
00:03.2,0.00151062,0.019701004,-1.14E-05,0,
00:03.2,0.001533508,0.019706726,-2.86E-05,0,
00:03.2,0.001527786,0.019695282,-2.29E-05,0,
00:03.2,0.00151062,0.01968956,-1.14E-05,0,
00:03.2,0.001487732,0.01968956,-1.72E-05,0,
00:03.2,0.001516342,0.019706726,-2.29E-05,0,
00:03.2,0.001522064,0.019701004,-5.72E-06,0,
00:03.2,0.001504898,0.019695282,-1.14E-05,0,
00:03.2,0.00148201,0.019678116,-1.72E-05,0,
00:03.2,0.00151062,0.019695282,0,0,
00:03.2,0.00151062,0.019695282,-5.72E-06,0,
00:03.2,0.001504898,0.019701004,-5.72E-06,0,
00:03.2,0.001516342,0.019706726,-1.14E-05,0,
00:03.2,0.001516342,0.019695282,-1.14E-05,0,
00:03.2,0.00151062,0.019701004,-1.14E-05,0,
00:03.2,0.00151062,0.019701004,-1.14E-05,0,
00:03.2,0.001504898,0.019695282,-5.72E-06,0,
00:03.2,0.00151062,0.01968956,-5.72E-06,0,
00:03.2,0.00151062,0.01968956,-2.29E-05,0,
00:03.2,0.001504898,0.019695282,-1.72E-05,0,
00:03.3,0.001493454,0.019701004,-1.14E-05,0,
00:03.3,0.001516342,0.019695282,-5.72E-06,0,
00:03.3,0.001493454,0.019695282,0,0,
00:03.3,0.00151062,0.019695282,0,0,
00:03.3,0.001516342,0.019695282,5.72E-06,0,
00:03.3,0.00148201,0.019695282,2.29E-05,0,
00:03.3,0.00151062,0.019706726,5.72E-06,0,
00:03.3,0.001527786,0.019701004,0,0,
00:03.3,0.001516342,0.019701004,5.72E-06,0,
00:03.3,0.001493454,0.019701004,1.14E-05,0,
00:03.3,0.00148201,0.01968956,0,0,
00:03.3,0.00151062,0.019701004,-1.72E-05,0,
00:03.3,0.001516342,0.019701004,-5.72E-06,0,
00:03.3,0.001522064,0.019706726,0,0,
00:03.3,0.001504898,0.019701004,5.72E-06,0,
00:03.3,0.001522064,0.019701004,-5.72E-06,0,
00:03.3,0.001516342,0.019701004,0,0,
00:03.3,0.001516342,0.019701004,0,0,
00:03.3,0.001522064,0.019712448,0,0,
00:03.3,0.00151062,0.019706726,0,0,
00:03.3,0.00151062,0.019706726,1.14E-05,0,
00:03.3,0.001516342,0.019701004,5.72E-06,0,
00:03.3,0.001504898,0.019695282,0,0,
00:03.3,0.00151062,0.019701004,5.72E-06,0,
00:03.3,0.001516342,0.01971817,1.14E-05,0,
00:03.4,0.00148201,0.019701004,1.72E-05,0,
00:03.4,0.00148201,0.019695282,1.72E-05,0,
00:03.4,0.001516342,0.019701004,1.72E-05,0,
00:03.4,0.001522064,0.019701004,5.72E-06,0,
00:03.4,0.001516342,0.019712448,2.29E-05,0,
00:03.4,0.001487732,0.019706726,1.72E-05,0,
00:03.4,0.001504898,0.019701004,1.72E-05,0,
00:03.4,0.001487732,0.01968956,2.29E-05,0,
00:03.4,0.001487732,0.019701004,2.86E-05,0,
00:03.4,0.001499176,0.019706726,1.72E-05,0,
00:03.4,0.001527786,0.019706726,5.72E-06,0,
00:03.4,0.001527786,0.019712448,0,0,
00:03.4,0.001522064,0.019706726,5.72E-06,0,
00:03.4,0.00151062,0.019706726,2.86E-05,0,
00:03.4,0.001504898,0.019701004,1.72E-05,0,
00:03.4,0.001504898,0.019701004,2.29E-05,0,
00:03.4,0.001504898,0.019701004,1.72E-05,0,
00:03.4,0.001516342,0.019712448,2.29E-05,0,
00:03.4,0.001516342,0.019706726,2.86E-05,0,
00:03.4,0.00151062,0.019712448,2.86E-05,0,
00:03.4,0.001504898,0.019712448,2.86E-05,0,
00:03.4,0.00151062,0.019712448,2.86E-05,0,
00:03.4,0.001522064,0.019706726,2.86E-05,0,
00:03.4,0.001493454,0.019706726,2.86E-05,0,
00:03.4,0.001504898,0.019712448,2.29E-05,0,
00:03.5,0.00151062,0.019712448,1.72E-05,0,
00:03.5,0.001504898,0.01971817,4.58E-05,0,
00:03.5,0.001522064,0.019706726,4.58E-05,0,
00:03.5,0.001504898,0.019701004,2.29E-05,0,
00:03.5,0.001516342,0.019706726,2.86E-05,0,
00:03.5,0.001527786,0.01971817,2.29E-05,0,
00:03.5,0.001516342,0.019712448,1.72E-05,0,
00:03.5,0.001504898,0.019695282,-5.72E-06,0,
00:03.5,0.001516342,0.019712448,3.43E-05,0,
00:03.5,0.001527786,0.019723892,3.43E-05,0,
00:03.5,0.001516342,0.019712448,3.43E-05,0,
00:03.5,0.00151062,0.019712448,2.86E-05,0,
00:03.5,0.001487732,0.019695282,4.01E-05,0,
00:03.5,0.001504898,0.019712448,4.58E-05,0,
00:03.5,0.001493454,0.019723892,3.43E-05,0,
00:03.5,0.00151062,0.019712448,3.43E-05,0,
00:03.5,0.001516342,0.019701004,4.01E-05,0,
00:03.5,0.00151062,0.019701004,2.29E-05,0,
00:03.5,0.00151062,0.019701004,3.43E-05,0,
00:03.5,0.001527786,0.019712448,3.43E-05,0,
00:03.5,0.001522064,0.019712448,3.43E-05,0,
00:03.5,0.00151062,0.019706726,4.01E-05,0,
00:03.5,0.00151062,0.019706726,2.86E-05,0,
00:03.5,0.001504898,0.019712448,3.43E-05,0,
00:03.5,0.001493454,0.019706726,5.15E-05,0,
00:03.6,0.001527786,0.019712448,2.86E-05,0,
00:03.6,0.001527786,0.019712448,4.01E-05,0,
00:03.6,0.001522064,0.019706726,4.01E-05,0,
00:03.6,0.00151062,0.019706726,3.43E-05,0,
00:03.6,0.00151062,0.019712448,4.01E-05,0,
00:03.6,0.001504898,0.019712448,3.43E-05,0,
00:03.6,0.001493454,0.019695282,4.58E-05,0,
00:03.6,0.00151062,0.019706726,3.43E-05,0,
00:03.6,0.001493454,0.019712448,5.15E-05,0,
00:03.6,0.00151062,0.019712448,4.58E-05,0,
00:03.6,0.001499176,0.019706726,4.58E-05,0,
00:03.6,0.001522064,0.019712448,4.58E-05,0,
00:03.6,0.001527786,0.019712448,4.58E-05,0,
00:03.6,0.00151062,0.019712448,4.58E-05,0,
00:03.6,0.001499176,0.019712448,3.43E-05,0,
00:03.6,0.001516342,0.019712448,4.58E-05,0,
00:03.6,0.001533508,0.019712448,4.58E-05,0,
00:03.6,0.00151062,0.019706726,5.15E-05,0,
00:03.6,0.001499176,0.019706726,4.01E-05,0,
00:03.6,0.00148201,0.019706726,2.29E-05,0,
00:03.6,0.001499176,0.019712448,4.01E-05,0,
00:03.6,0.001527786,0.019723892,6.29E-05,0,
00:03.6,0.001533508,0.019712448,6.87E-05,0,
00:03.6,0.001522064,0.019712448,6.29E-05,0,
00:03.6,0.00151062,0.01971817,5.15E-05,0,
00:03.7,0.00151062,0.01971817,5.15E-05,0,
00:03.7,0.00153923,0.019712448,5.72E-05,0,
00:03.7,0.00151062,0.019706726,5.15E-05,0,
00:03.7,0.00151062,0.01971817,4.58E-05,0,
00:03.7,0.00151062,0.019712448,4.58E-05,0,
00:03.7,0.001504898,0.019706726,5.72E-05,0,
00:03.7,0.00151062,0.01971817,6.87E-05,0,
00:03.7,0.001504898,0.01971817,6.87E-05,0,
00:03.7,0.00148201,0.019706726,5.72E-05,0,
00:03.7,0.001493454,0.01971817,5.72E-05,0,
00:03.7,0.001533508,0.019723892,4.58E-05,0,
00:03.7,0.001522064,0.019712448,5.15E-05,0,
00:03.7,0.001516342,0.01971817,5.72E-05,0,
00:03.7,0.00151062,0.019712448,6.29E-05,0,
00:03.7,0.001470566,0.01971817,6.29E-05,0,
00:03.7,0.001441956,0.019706726,6.29E-05,0,
00:03.7,0.00153923,0.01971817,4.58E-05,0,
00:03.7,0.001522064,0.019712448,4.58E-05,0,
00:03.7,0.001516342,0.01971817,5.72E-05,0,
00:03.7,0.001516342,0.019723892,6.29E-05,0,
00:03.7,0.001504898,0.01971817,5.15E-05,0,
00:03.7,0.001516342,0.019712448,5.15E-05,0,
00:03.7,0.001522064,0.019712448,6.29E-05,0,
00:03.7,0.001516342,0.01971817,5.72E-05,0,
00:03.7,0.00151062,0.019729614,5.15E-05,0,
00:03.8,0.001504898,0.019712448,5.72E-05,0,
00:03.8,0.00151062,0.01971817,6.87E-05,0,
00:03.8,0.001499176,0.019712448,6.87E-05,0,
00:03.8,0.001522064,0.019723892,6.29E-05,0,
00:03.8,0.00151062,0.01971817,6.87E-05,0,
00:03.8,0.001476288,0.019706726,6.87E-05,0,
00:03.8,0.001493454,0.01971817,6.87E-05,0,
00:03.8,0.00153923,0.019723892,6.29E-05,0,
00:03.8,0.001493454,0.01971817,7.44E-05,0,
00:03.8,0.001499176,0.01971817,7.44E-05,0,
00:03.8,0.00151062,0.019723892,6.29E-05,0,
00:03.8,0.001522064,0.019729614,6.29E-05,0,
00:03.8,0.001504898,0.01971817,6.29E-05,0,
00:03.8,0.001504898,0.01971817,6.29E-05,0,
00:03.8,0.001499176,0.01971817,6.87E-05,0,
00:03.8,0.001487732,0.019712448,7.44E-05,0,
00:03.8,0.001493454,0.019723892,6.87E-05,0,
00:03.8,0.001493454,0.01971817,6.87E-05,0,
00:03.8,0.001516342,0.01971817,5.15E-05,0,
00:03.8,0.001516342,0.01971817,6.29E-05,0,
00:03.8,0.001522064,0.019723892,5.15E-05,0,
00:03.8,0.001516342,0.019723892,5.72E-05,0,
00:03.8,0.001516342,0.019723892,5.72E-05,0,
00:03.8,0.001499176,0.019723892,6.29E-05,0,
00:03.8,0.001493454,0.019712448,6.29E-05,0,
00:03.9,0.001522064,0.019729614,7.44E-05,0,
00:03.9,0.001516342,0.019729614,6.87E-05,0,
00:03.9,0.00148201,0.01971817,6.87E-05,0,
00:03.9,0.001499176,0.019723892,4.58E-05,0,
00:03.9,0.00153923,0.019735336,5.72E-05,0,
00:03.9,0.00151062,0.019723892,6.87E-05,0,
00:03.9,0.001504898,0.019729614,5.72E-05,0,
00:03.9,0.001487732,0.019723892,6.29E-05,0,
00:03.9,0.001499176,0.019723892,6.87E-05,0,
00:03.9,0.001504898,0.019729614,5.72E-05,0,
00:03.9,0.001487732,0.01971817,6.87E-05,0,
00:03.9,0.001516342,0.019729614,4.58E-05,0,
00:03.9,0.00151062,0.019729614,5.72E-05,0,
00:03.9,0.00151062,0.019729614,6.29E-05,0,
00:03.9,0.001504898,0.019729614,5.72E-05,0,
00:03.9,0.001522064,0.019735336,5.15E-05,0,
00:03.9,0.001499176,0.019729614,6.29E-05,0,
00:03.9,0.001487732,0.01971817,5.72E-05,0,
00:03.9,0.001516342,0.019723892,5.15E-05,0,
00:03.9,0.001516342,0.019729614,5.15E-05,0,
00:03.9,0.00151062,0.019729614,4.01E-05,0,
00:03.9,0.00151062,0.019723892,7.44E-05,0,
00:03.9,0.001504898,0.019729614,5.72E-05,0,
00:03.9,0.001504898,0.019729614,5.72E-05,0,
00:03.9,0.001493454,0.019723892,6.29E-05,0,
00:04.0,0.001493454,0.019723892,6.29E-05,0,
00:04.0,0.001499176,0.019723892,8.01E-05,0,
00:04.0,0.001522064,0.019735336,5.15E-05,0,
00:04.0,0.00151062,0.019735336,5.72E-05,0,
00:04.0,0.001487732,0.019723892,6.29E-05,0,
00:04.0,0.001487732,0.019723892,5.15E-05,0,
00:04.0,0.001516342,0.019729614,5.15E-05,0,
00:04.0,0.001487732,0.01971817,8.01E-05,0,
00:04.0,0.001516342,0.019735336,5.15E-05,0,
00:04.0,0.001516342,0.019741058,5.72E-05,0,
00:04.0,0.001504898,0.019735336,5.72E-05,0,
00:04.0,0.001516342,0.019735336,5.72E-05,0,
00:00:04,0.001499176,0.019729614,5.72E-05,0,
00:04.0,0.00148201,0.019723892,4.58E-05,0,
00:04.0,0.001522064,0.019735336,5.72E-05,0,
00:04.0,0.001516342,0.019735336,4.58E-05,0,
00:04.0,0.00151062,0.019729614,5.72E-05,0,
00:04.0,0.001516342,0.019729614,5.72E-05,0,
00:04.0,0.00151062,0.019735336,5.15E-05,0,
00:04.0,0.001504898,0.019735336,2.86E-05,0,
00:04.0,0.001504898,0.019729614,4.01E-05,0,
00:04.0,0.001522064,0.019741058,5.72E-05,0,
00:04.0,0.001516342,0.019735336,4.58E-05,0,
00:04.0,0.001504898,0.019729614,6.29E-05,0,
00:04.0,0.001499176,0.019729614,6.87E-05,0,
00:04.1,0.001487732,0.019735336,6.29E-05,0,
00:04.1,0.001493454,0.019723892,5.72E-05,0,
00:04.1,0.001527786,0.019729614,5.15E-05,0,
00:04.1,0.001522064,0.019741058,5.72E-05,0,
00:04.1,0.001499176,0.019735336,5.72E-05,0,
00:04.1,0.001470566,0.019723892,8.01E-05,0,
00:04.1,0.001533508,0.019735336,5.72E-05,0,
00:04.1,0.001522064,0.019729614,4.58E-05,0,
00:04.1,0.00148201,0.019729614,5.72E-05,0,
00:04.1,0.00151062,0.019741058,5.72E-05,0,
00:04.1,0.001516342,0.019735336,5.72E-05,0,
00:04.1,0.001499176,0.019729614,4.58E-05,0,
00:04.1,0.001487732,0.019723892,5.15E-05,0,
00:04.1,0.001522064,0.019735336,7.44E-05,0,
00:04.1,0.001504898,0.019723892,5.72E-05,0,
00:04.1,0.001522064,0.019729614,5.15E-05,0,
00:04.1,0.001527786,0.019735336,5.15E-05,0,
00:04.1,0.001516342,0.019735336,5.72E-05,0,
00:04.1,0.001499176,0.019729614,5.15E-05,0,
00:04.1,0.001487732,0.019729614,4.58E-05,0,
00:04.1,0.001487732,0.019735336,6.29E-05,0,
00:04.1,0.00151062,0.019729614,6.87E-05,0,
00:04.1,0.001522064,0.019735336,7.44E-05,0,
00:04.1,0.00151062,0.019729614,6.87E-05,0,
00:04.1,0.001504898,0.019735336,6.29E-05,0,
00:04.2,0.00151062,0.019741058,5.72E-05,0,
00:04.2,0.001527786,0.019735336,4.58E-05,0,
00:04.2,0.001504898,0.019735336,6.87E-05,0,
00:04.2,0.00148201,0.019723892,6.29E-05,0,
00:04.2,0.00148201,0.019735336,7.44E-05,0,
00:04.2,0.001522064,0.01974678,6.87E-05,0,
00:04.2,0.001499176,0.019735336,7.44E-05,0,
00:04.2,0.001504898,0.019729614,7.44E-05,0,
00:04.2,0.00153923,0.019741058,6.29E-05,0,
00:04.2,0.001516342,0.019735336,6.29E-05,0,
00:04.2,0.001499176,0.019735336,6.29E-05,0,
00:04.2,0.001487732,0.019735336,6.87E-05,0,
00:04.2,0.001487732,0.019729614,7.44E-05,0,
00:04.2,0.001522064,0.019741058,6.29E-05,0,
00:04.2,0.001522064,0.019741058,6.29E-05,0,
00:04.2,0.00151062,0.019741058,6.87E-05,0,
00:04.2,0.001516342,0.019741058,6.87E-05,0,
00:04.2,0.00151062,0.019735336,6.87E-05,0,
00:04.2,0.001504898,0.019735336,5.72E-05,0,
00:04.2,0.001504898,0.019741058,6.29E-05,0,
00:04.2,0.001499176,0.019735336,5.72E-05,0,
00:04.2,0.001476288,0.019729614,7.44E-05,0,
00:04.2,0.001499176,0.019729614,6.87E-05,0,
00:04.2,0.00151062,0.01974678,6.29E-05,0,
00:04.2,0.001516342,0.019741058,5.72E-05,0,
00:04.3,0.001516342,0.019741058,5.72E-05,0,
00:04.3,0.001522064,0.019741058,5.72E-05,0,
00:04.3,0.001499176,0.019735336,6.87E-05,0,
00:04.3,0.001493454,0.019741058,5.72E-05,0,
00:04.3,0.001499176,0.019741058,6.29E-05,0,
00:04.3,0.001487732,0.019741058,7.44E-05,0,
00:04.3,0.001527786,0.019741058,7.44E-05,0,
00:04.3,0.001504898,0.019735336,6.29E-05,0,
00:04.3,0.001493454,0.01974678,5.72E-05,0,
00:04.3,0.001499176,0.01974678,6.29E-05,0,
00:04.3,0.001476288,0.019741058,9.16E-05,0,
00:04.3,0.001493454,0.019735336,8.01E-05,0,
00:04.3,0.001527786,0.019741058,4.58E-05,0,
00:04.3,0.00151062,0.01974678,6.29E-05,0,
00:04.3,0.001516342,0.01974678,6.29E-05,0,
00:04.3,0.001493454,0.019735336,6.29E-05,0,
00:04.3,0.001499176,0.01974678,6.87E-05,0,
00:04.3,0.001499176,0.01974678,6.87E-05,0,
00:04.3,0.001476288,0.019735336,6.87E-05,0,
00:04.3,0.001522064,0.019758224,6.29E-05,0,
00:04.3,0.00151062,0.01974678,5.72E-05,0,
00:04.3,0.001504898,0.01974678,6.29E-05,0,
00:04.3,0.00151062,0.019735336,6.87E-05,0,
00:04.3,0.00151062,0.019741058,6.29E-05,0,
00:04.3,0.001499176,0.019758224,4.58E-05,0,
00:04.4,0.001499176,0.01974678,4.01E-05,0,
00:04.4,0.00151062,0.019741058,8.58E-05,0,
00:04.4,0.001504898,0.019735336,6.87E-05,0,
00:04.4,0.001499176,0.01974678,5.72E-05,0,
00:04.4,0.001487732,0.019752502,9.16E-05,0,
00:04.4,0.001476288,0.019741058,8.01E-05,0,
00:04.4,0.001504898,0.019741058,7.44E-05,0,
00:04.4,0.001516342,0.019741058,5.72E-05,0,
00:04.4,0.001487732,0.019741058,6.87E-05,0,
00:04.4,0.00151062,0.019752502,8.01E-05,0,
00:04.4,0.00151062,0.019752502,7.44E-05,0,
00:04.4,0.001504898,0.01974678,6.87E-05,0,
00:04.4,0.001504898,0.01974678,7.44E-05,0,
00:04.4,0.001487732,0.01974678,8.58E-05,0,
00:04.4,0.001459122,0.01974678,7.44E-05,0,
00:04.4,0.001499176,0.019752502,5.72E-05,0,
00:04.4,0.001516342,0.019752502,6.29E-05,0,
00:04.4,0.001493454,0.01974678,7.44E-05,0,
00:04.4,0.001499176,0.019752502,7.44E-05,0,
00:04.4,0.00151062,0.019752502,7.44E-05,0,
00:04.4,0.00151062,0.019752502,6.87E-05,0,
00:04.4,0.001499176,0.01974678,7.44E-05,0,
00:04.4,0.001504898,0.01974678,7.44E-05,0,
00:04.4,0.001504898,0.019752502,5.72E-05,0,
00:04.4,0.001504898,0.019752502,7.44E-05,0,
00:04.5,0.001504898,0.019752502,8.01E-05,0,
00:04.5,0.001487732,0.01974678,8.01E-05,0,
00:04.5,0.00148201,0.019752502,8.58E-05,0,
00:04.5,0.001493454,0.019752502,6.87E-05,0,
00:04.5,0.001504898,0.019752502,8.01E-05,0,
00:04.5,0.00148201,0.01974678,9.73E-05,0,
00:04.5,0.001493454,0.01974678,9.16E-05,0,
00:04.5,0.001476288,0.01974678,8.58E-05,0,
00:04.5,0.00151062,0.019758224,8.58E-05,0,
00:04.5,0.001516342,0.019758224,7.44E-05,0,
00:04.5,0.001504898,0.019752502,7.44E-05,0,
00:04.5,0.001504898,0.01974678,9.16E-05,0,
00:04.5,0.001504898,0.019741058,9.16E-05,0,
00:04.5,0.00148201,0.01974678,9.73E-05,0,
00:04.5,0.001470566,0.019752502,0.000102997,0,
00:04.5,0.001504898,0.019752502,8.01E-05,0,
00:04.5,0.001516342,0.019758224,7.44E-05,0,
00:04.5,0.00151062,0.019752502,7.44E-05,0,
00:04.5,0.001504898,0.01974678,6.87E-05,0,
00:04.5,0.001516342,0.019763947,8.58E-05,0,
00:04.5,0.00151062,0.019752502,8.01E-05,0,
00:04.5,0.001493454,0.019752502,9.16E-05,0,
00:04.5,0.00148201,0.01974678,8.01E-05,0,
00:04.5,0.001487732,0.01974678,9.73E-05,0,
00:04.5,0.001499176,0.019741058,9.16E-05,0,
00:04.6,0.001504898,0.019752502,8.58E-05,0,
00:04.6,0.001504898,0.019752502,8.58E-05,0,
00:04.6,0.00148201,0.019752502,0.000108719,0,
00:04.6,0.001476288,0.01974678,9.16E-05,0,
00:04.6,0.001493454,0.019752502,7.44E-05,0,
00:04.6,0.001470566,0.019752502,8.58E-05,0,
00:04.6,0.001499176,0.01974678,9.16E-05,0,
00:04.6,0.001522064,0.019752502,8.58E-05,0,
00:04.6,0.001499176,0.019758224,8.58E-05,0,
00:04.6,0.001493454,0.019758224,9.73E-05,0,
00:04.6,0.001493454,0.019752502,8.58E-05,0,
00:04.6,0.001476288,0.019758224,9.73E-05,0,
00:04.6,0.001504898,0.019752502,8.01E-05,0,
00:04.6,0.001522064,0.019752502,9.16E-05,0,
00:04.6,0.001487732,0.019752502,8.58E-05,0,
00:04.6,0.001476288,0.01974678,0.000102997,0,
00:04.6,0.001504898,0.019752502,8.58E-05,0,
00:04.6,0.001499176,0.01974678,7.44E-05,0,
00:04.6,0.001476288,0.019752502,8.01E-05,0,
00:04.6,0.001493454,0.019752502,7.44E-05,0,
00:04.6,0.001516342,0.019758224,8.01E-05,0,
00:04.6,0.001504898,0.019741058,7.44E-05,0,
00:04.6,0.001493454,0.01974678,5.15E-05,0,
00:04.6,0.001493454,0.019752502,7.44E-05,0,
00:04.6,0.001487732,0.019752502,9.73E-05,0,
00:04.7,0.001487732,0.019752502,9.16E-05,0,
00:04.7,0.001476288,0.019741058,9.16E-05,0,
00:04.7,0.0014534,0.019741058,8.58E-05,0,
00:04.7,0.001499176,0.019758224,8.01E-05,0,
00:04.7,0.001516342,0.019763947,7.44E-05,0,
00:04.7,0.001499176,0.019758224,8.58E-05,0,
00:04.7,0.001504898,0.019758224,8.01E-05,0,
00:04.7,0.00151062,0.019752502,9.16E-05,0,
00:04.7,0.001493454,0.019758224,7.44E-05,0,
00:04.7,0.001470566,0.019752502,5.72E-05,0,
00:04.7,0.001504898,0.019763947,6.87E-05,0,
00:04.7,0.001516342,0.019752502,9.16E-05,0,
00:04.7,0.001499176,0.01974678,8.58E-05,0,
00:04.7,0.001459122,0.019752502,8.01E-05,0,
00:04.7,0.00148201,0.019758224,8.58E-05,0,
00:04.7,0.001493454,0.01974678,6.87E-05,0,
00:04.7,0.001487732,0.019752502,8.01E-05,0,
00:04.7,0.00148201,0.019752502,8.58E-05,0,
00:04.7,0.001470566,0.019752502,9.16E-05,0,
00:04.7,0.001499176,0.019758224,8.58E-05,0,
00:04.7,0.001499176,0.019758224,8.01E-05,0,
00:04.7,0.00148201,0.019752502,9.73E-05,0,
00:04.7,0.00148201,0.019752502,8.58E-05,0,
00:04.7,0.001499176,0.019763947,8.01E-05,0,
00:04.7,0.001504898,0.019763947,8.58E-05,0,
00:04.8,0.001499176,0.019752502,9.16E-05,0,
00:04.8,0.001499176,0.019758224,8.58E-05,0,
00:04.8,0.001504898,0.019763947,9.16E-05,0,
00:04.8,0.001487732,0.019758224,9.73E-05,0,
00:04.8,0.001499176,0.019763947,8.58E-05,0,
00:04.8,0.001493454,0.019752502,8.01E-05,0,
00:04.8,0.001493454,0.019752502,9.73E-05,0,
00:04.8,0.00148201,0.019758224,0.000102997,0,
00:04.8,0.001459122,0.019758224,9.16E-05,0,
00:04.8,0.001493454,0.019763947,9.16E-05,0,
00:04.8,0.001504898,0.019758224,0.000102997,0,
00:04.8,0.001493454,0.019758224,9.73E-05,0,
00:04.8,0.00148201,0.019758224,9.73E-05,0,
00:04.8,0.001470566,0.019769669,0.000102997,0,
00:04.8,0.001464844,0.019752502,0.000114441,0,
00:04.8,0.001487732,0.019752502,9.73E-05,0,
00:04.8,0.001499176,0.019758224,0.000102997,0,
00:04.8,0.001476288,0.019758224,0.000114441,0,
00:04.8,0.001459122,0.019758224,0.000114441,0,
00:04.8,0.001499176,0.019769669,9.73E-05,0,
00:04.8,0.001499176,0.019763947,0.000102997,0,
00:04.8,0.001447678,0.019752502,0.000108719,0,
00:04.8,0.00148201,0.019763947,0.000125885,0,
00:04.8,0.001487732,0.019763947,0.000114441,0,
00:04.8,0.001476288,0.019763947,0.000114441,0,
00:04.9,0.001487732,0.019763947,0.000114441,0,
00:04.9,0.001493454,0.019758224,0.000120163,0,
00:04.9,0.001487732,0.019758224,0.000114441,0,
00:04.9,0.00148201,0.019763947,0.000108719,0,
00:04.9,0.00148201,0.019769669,0.000108719,0,
00:04.9,0.001493454,0.019763947,0.000108719,0,
00:04.9,0.00148201,0.019758224,0.000125885,0,
00:04.9,0.001464844,0.019758224,0.000120163,0,
00:04.9,0.001476288,0.019763947,9.73E-05,0,
00:04.9,0.001476288,0.019775391,0.000137329,0,
00:04.9,0.001464844,0.019763947,0.000137329,0,
00:04.9,0.001487732,0.019758224,0.000125885,0,
00:04.9,0.001447678,0.019758224,0.000137329,0,
00:04.9,0.001470566,0.019763947,0.000125885,0,
00:04.9,0.00148201,0.019769669,0.000137329,0,
00:04.9,0.001493454,0.019769669,0.000148773,0,
00:04.9,0.00148201,0.019763947,0.000137329,0,
00:04.9,0.001476288,0.019763947,0.000143051,0,
00:04.9,0.001504898,0.019769669,0.000137329,0,
00:04.9,0.001493454,0.019763947,0.000131607,0,
00:04.9,0.001487732,0.019763947,0.000137329,0,
00:04.9,0.001464844,0.019758224,0.000137329,0,
00:04.9,0.001493454,0.019763947,0.000143051,0,
00:04.9,0.001493454,0.019769669,0.000125885,0,
00:04.9,0.001470566,0.019758224,0.000137329,0,
00:05.0,0.001459122,0.019763947,0.000143051,0,
00:05.0,0.001493454,0.019763947,0.000137329,0,
00:05.0,0.00148201,0.019769669,0.000160217,0,
00:05.0,0.00148201,0.019775391,0.000143051,0,
00:05.0,0.00148201,0.019769669,0.000137329,0,
00:05.0,0.00148201,0.019769669,0.000143051,0,
00:05.0,0.001476288,0.019752502,0.000148773,0,
00:05.0,0.001476288,0.019769669,0.000154495,0,
00:05.0,0.001476288,0.019769669,0.000148773,0,
00:05.0,0.00148201,0.019769669,0.000148773,0,
00:05.0,0.001493454,0.019769669,0.000148773,0,
00:05.0,0.001470566,0.019763947,0.000165939,0,
00:00:05,0.001476288,0.019763947,0.000148773,0,
00:05.0,0.001476288,0.019775391,0.000154495,0,
00:05.0,0.001476288,0.019775391,0.000154495,0,
00:05.0,0.001470566,0.019763947,0.000154495,0,
00:05.0,0.001447678,0.019758224,0.000160217,0,
00:05.0,0.00148201,0.019769669,0.000171661,0,
00:05.0,0.001493454,0.019775391,0.000154495,0,
00:05.0,0.001464844,0.019763947,0.000177383,0,
00:05.0,0.00148201,0.019758224,0.000165939,0,
00:05.0,0.001499176,0.019769669,0.000171661,0,
00:05.0,0.001487732,0.019775391,0.000171661,0,
00:05.0,0.001476288,0.019769669,0.000171661,0,
00:05.0,0.00148201,0.019769669,0.000171661,0,
00:05.1,0.001470566,0.019763947,0.000177383,0,
00:05.1,0.001470566,0.019769669,0.000183105,0,
00:05.1,0.00148201,0.019769669,0.000177383,0,
00:05.1,0.00148201,0.019775391,0.000177383,0,
00:05.1,0.001459122,0.019763947,0.00019455,0,
00:05.1,0.001470566,0.019769669,0.000188828,0,
00:05.1,0.001487732,0.019769669,0.000183105,0,
00:05.1,0.001476288,0.019769669,0.000188828,0,
00:05.1,0.001476288,0.019769669,0.000183105,0,
00:05.1,0.001470566,0.019769669,0.000177383,0,
00:05.1,0.001476288,0.019763947,0.00019455,0,
00:05.1,0.001470566,0.019763947,0.00019455,0,
00:05.1,0.00148201,0.019763947,0.00019455,0,
00:05.1,0.001459122,0.019763947,0.000188828,0,
00:05.1,0.001447678,0.019769669,0.00019455,0,
00:05.1,0.001493454,0.019769669,0.000211716,0,
00:05.1,0.001493454,0.019763947,0.00019455,0,
00:05.1,0.001447678,0.019758224,0.000205994,0,
00:05.1,0.001493454,0.019775391,0.000205994,0,
00:05.1,0.001459122,0.019752502,0.000200272,0,
00:05.1,0.0014534,0.019769669,0.000200272,0,
00:05.1,0.001487732,0.019775391,0.000211716,0,
00:05.1,0.001487732,0.019775391,0.000200272,0,
00:05.1,0.001493454,0.019775391,0.00022316,0,
00:05.1,0.001476288,0.019763947,0.000211716,0,
00:05.2,0.00148201,0.019763947,0.000211716,0,
00:05.2,0.001476288,0.019758224,0.000228882,0,
00:05.2,0.001470566,0.019769669,0.000211716,0,
00:05.2,0.001476288,0.019769669,0.000211716,0,
00:05.2,0.001470566,0.019769669,0.00022316,0,
00:05.2,0.001470566,0.019763947,0.00022316,0,
00:05.2,0.001476288,0.019769669,0.00022316,0,
00:05.2,0.001459122,0.019763947,0.000228882,0,
00:05.2,0.001441956,0.019763947,0.000228882,0,
00:05.2,0.001476288,0.019775391,0.000228882,0,
00:05.2,0.001476288,0.019763947,0.000234604,0,
00:05.2,0.001470566,0.019758224,0.000228882,0,
00:05.2,0.0014534,0.019763947,0.000234604,0,
00:05.2,0.001470566,0.019769669,0.000240326,0,
00:05.2,0.00148201,0.019769669,0.000246048,0,
00:05.2,0.001464844,0.019763947,0.000240326,0,
00:05.2,0.0014534,0.019763947,0.000234604,0,
00:05.2,0.001436234,0.019763947,0.000246048,0,
00:05.2,0.001470566,0.019763947,0.000234604,0,
00:05.2,0.00148201,0.019775391,0.000234604,0,
00:05.2,0.00148201,0.019769669,0.000240326,0,
00:05.2,0.001470566,0.019763947,0.000240326,0,
00:05.2,0.001459122,0.019763947,0.000240326,0,
00:05.2,0.00148201,0.019769669,0.000234604,0,
00:05.2,0.001476288,0.019769669,0.000234604,0,
00:05.3,0.001464844,0.019769669,0.000240326,0,
00:05.3,0.001487732,0.019769669,0.00025177,0,
00:05.3,0.00148201,0.019769669,0.000246048,0,
00:05.3,0.001476288,0.019763947,0.000263214,0,
00:05.3,0.001470566,0.019769669,0.000257492,0,
00:05.3,0.001476288,0.019769669,0.000263214,0,
00:05.3,0.001459122,0.019758224,0.000274658,0,
00:05.3,0.001470566,0.019763947,0.000268936,0,
00:05.3,0.00148201,0.019775391,0.000263214,0,
00:05.3,0.001476288,0.019769669,0.00025177,0,
00:05.3,0.001476288,0.019763947,0.000268936,0,
00:05.3,0.001476288,0.019763947,0.000274658,0,
00:05.3,0.001436234,0.019752502,0.000268936,0,
00:05.3,0.001430511,0.019763947,0.000274658,0,
00:05.3,0.001499176,0.019775391,0.000257492,0,
00:05.3,0.001487732,0.019763947,0.000257492,0,
00:05.3,0.001436234,0.019752502,0.000268936,0,
00:05.3,0.001464844,0.019769669,0.000268936,0,
00:05.3,0.001493454,0.019769669,0.000257492,0,
00:05.3,0.001504898,0.019775391,0.00025177,0,
00:05.3,0.001493454,0.019775391,0.000268936,0,
00:05.3,0.001476288,0.019763947,0.000268936,0,
00:05.3,0.001470566,0.019763947,0.000268936,0,
00:05.3,0.0014534,0.019763947,0.000268936,0,
00:05.3,0.001470566,0.019775391,0.00025177,0,
00:05.4,0.001476288,0.019769669,0.000263214,0,
00:05.4,0.001487732,0.019763947,0.00028038,0,
00:05.4,0.001470566,0.019763947,0.000297546,0,
00:05.4,0.001459122,0.019769669,0.00028038,0,
00:05.4,0.001470566,0.019769669,0.00028038,0,
00:05.4,0.001476288,0.019769669,0.000286102,0,
00:05.4,0.001470566,0.019763947,0.000291824,0,
00:05.4,0.001464844,0.019763947,0.000286102,0,
00:05.4,0.001464844,0.019775391,0.00028038,0,
00:05.4,0.001476288,0.019775391,0.00028038,0,
00:05.4,0.001476288,0.019763947,0.000274658,0,
00:05.4,0.001470566,0.019758224,0.000297546,0,
00:05.4,0.001459122,0.019763947,0.000286102,0,
00:05.4,0.001436234,0.019763947,0.00028038,0,
00:05.4,0.001407623,0.019752502,0.000263214,0,
00:05.4,0.001470566,0.019769669,0.00028038,0,
00:05.4,0.001499176,0.019769669,0.000286102,0,
00:05.4,0.001459122,0.019758224,0.000303268,0,
00:05.4,0.001493454,0.019775391,0.000297546,0,
00:05.4,0.001487732,0.019775391,0.00028038,0,
00:05.4,0.001476288,0.019769669,0.00028038,0,
00:05.4,0.001464844,0.019763947,0.000291824,0,
00:05.4,0.001459122,0.019758224,0.000286102,0,
00:05.4,0.001470566,0.019763947,0.000291824,0,
00:05.4,0.001464844,0.019769669,0.000291824,0,
00:05.5,0.001470566,0.019763947,0.000291824,0,
00:05.5,0.001470566,0.019763947,0.000297546,0,
00:05.5,0.001459122,0.019769669,0.000291824,0,
00:05.5,0.001476288,0.019769669,0.000291824,0,
00:05.5,0.001464844,0.019769669,0.000291824,0,
00:05.5,0.001470566,0.019763947,0.000291824,0,
00:05.5,0.001464844,0.019769669,0.000291824,0,
00:05.5,0.001441956,0.019775391,0.000291824,0,
00:05.5,0.001470566,0.019769669,0.000303268,0,
00:05.5,0.001476288,0.019769669,0.000314713,0,
00:05.5,0.001470566,0.019763947,0.000303268,0,
00:05.5,0.001459122,0.019763947,0.000303268,0,
00:05.5,0.001476288,0.019763947,0.000291824,0,
00:05.5,0.0014534,0.019763947,0.000303268,0,
00:05.5,0.001470566,0.019763947,0.000303268,0,
00:05.5,0.001436234,0.019758224,0.000326157,0,
00:05.5,0.001401901,0.019752502,0.000337601,0,
00:05.5,0.001487732,0.019775391,0.000286102,0,
00:05.5,0.001499176,0.019769669,0.000297546,0,
00:05.5,0.001487732,0.019769669,0.000303268,0,
00:05.5,0.001447678,0.019763947,0.000303268,0,
00:05.5,0.001464844,0.019763947,0.000297546,0,
00:05.5,0.00148201,0.019769669,0.000297546,0,
00:05.5,0.001436234,0.019758224,0.000314713,0,
00:05.5,0.001464844,0.019769669,0.00030899,0,
00:05.6,0.001476288,0.019769669,0.000303268,0,
00:05.6,0.001476288,0.019763947,0.000303268,0,
00:05.6,0.001487732,0.019775391,0.000303268,0,
00:05.6,0.001470566,0.019769669,0.000314713,0,
00:05.6,0.001436234,0.019758224,0.000314713,0,
00:05.6,0.001464844,0.019763947,0.000303268,0,
00:05.6,0.001476288,0.019769669,0.00030899,0,
00:05.6,0.001476288,0.019769669,0.00030899,0,
00:05.6,0.001464844,0.019769669,0.000291824,0,
00:05.6,0.001464844,0.019769669,0.000314713,0,
00:05.6,0.001436234,0.019758224,0.000331879,0,
00:05.6,0.001470566,0.019769669,0.000297546,0,
00:05.6,0.001487732,0.019775391,0.00030899,0,
00:05.6,0.001464844,0.019769669,0.000320435,0,
00:05.6,0.001464844,0.019769669,0.000331879,0,
00:05.6,0.001447678,0.019763947,0.000343323,0,
00:05.6,0.001476288,0.019769669,0.000314713,0,
00:05.6,0.001464844,0.019763947,0.000314713,0,
00:05.6,0.0014534,0.019769669,0.000314713,0,
00:05.6,0.001459122,0.019769669,0.000320435,0,
00:05.6,0.001476288,0.019763947,0.000331879,0,
00:05.6,0.001470566,0.019769669,0.00030899,0,
00:05.6,0.001464844,0.019775391,0.000286102,0,
00:05.6,0.001464844,0.019775391,0.000331879,0,
00:05.6,0.001447678,0.019763947,0.000331879,0,
00:05.7,0.001464844,0.019763947,0.000320435,0,
00:05.7,0.001459122,0.019763947,0.000320435,0,
00:05.7,0.001464844,0.019775391,0.000303268,0,
00:05.7,0.001470566,0.019775391,0.000303268,0,
00:05.7,0.001459122,0.019769669,0.000343323,0,
00:05.7,0.001447678,0.019763947,0.000331879,0,
00:05.7,0.001436234,0.019763947,0.000331879,0,
00:05.7,0.00148201,0.019775391,0.000326157,0,
00:05.7,0.001470566,0.019775391,0.000326157,0,
00:05.7,0.001459122,0.019775391,0.000320435,0,
00:05.7,0.001459122,0.019769669,0.000320435,0,
00:05.7,0.0014534,0.019769669,0.000331879,0,
00:05.7,0.0014534,0.019775391,0.000331879,0,
00:05.7,0.001476288,0.019781113,0.000326157,0,
00:05.7,0.001459122,0.019769669,0.000326157,0,
00:05.7,0.001447678,0.019758224,0.000326157,0,
00:05.7,0.001447678,0.019763947,0.000331879,0,
00:05.7,0.001459122,0.019775391,0.000337601,0,
00:05.7,0.001470566,0.019775391,0.000331879,0,
00:05.7,0.001459122,0.019769669,0.000331879,0,
00:05.7,0.0014534,0.019763947,0.000343323,0,
00:05.7,0.001459122,0.019775391,0.000326157,0,
00:05.7,0.001459122,0.019775391,0.000337601,0,
00:05.7,0.001459122,0.019769669,0.000337601,0,
00:05.7,0.001441956,0.019763947,0.000337601,0,
00:05.8,0.001430511,0.019763947,0.000326157,0,
00:05.8,0.001476288,0.019775391,0.000343323,0,
00:05.8,0.001464844,0.019775391,0.000343323,0,
00:05.8,0.001464844,0.019769669,0.000343323,0,
00:05.8,0.001459122,0.019775391,0.000343323,0,
00:05.8,0.001464844,0.019769669,0.000331879,0,
00:05.8,0.001464844,0.019769669,0.000331879,0,
00:05.8,0.001447678,0.019769669,0.000320435,0,
00:05.8,0.0014534,0.019775391,0.000326157,0,
00:05.8,0.0014534,0.019769669,0.000320435,0,
00:05.8,0.001447678,0.019769669,0.000326157,0,
00:05.8,0.001459122,0.019775391,0.000326157,0,
00:05.8,0.001464844,0.019775391,0.000343323,0,
00:05.8,0.001459122,0.019781113,0.000331879,0,
00:05.8,0.0014534,0.019775391,0.000337601,0,
00:05.8,0.001441956,0.019763947,0.000354767,0,
00:05.8,0.001447678,0.019775391,0.000337601,0,
00:05.8,0.0014534,0.019781113,0.000337601,0,
00:05.8,0.001430511,0.019769669,0.000349045,0,
00:05.8,0.001436234,0.019769669,0.000360489,0,
00:05.8,0.001487732,0.019769669,0.000337601,0,
00:05.8,0.00148201,0.019775391,0.000337601,0,
00:05.8,0.001447678,0.019775391,0.000337601,0,
00:05.8,0.001413345,0.019769669,0.000343323,0,
00:05.8,0.0014534,0.019769669,0.000349045,0,
00:05.9,0.001476288,0.019769669,0.000337601,0,
00:05.9,0.001470566,0.019769669,0.000337601,0,
00:05.9,0.001441956,0.019769669,0.000349045,0,
00:05.9,0.001441956,0.019775391,0.000337601,0,
00:05.9,0.001436234,0.019769669,0.000349045,0,
00:05.9,0.001436234,0.019775391,0.000343323,0,
00:05.9,0.001459122,0.019775391,0.000343323,0,
00:05.9,0.0014534,0.019769669,0.000343323,0,
00:05.9,0.001459122,0.019775391,0.000337601,0,
00:05.9,0.0014534,0.019763947,0.000349045,0,
00:05.9,0.001447678,0.019769669,0.000349045,0,
00:05.9,0.001430511,0.019769669,0.000354767,0,
00:05.9,0.001447678,0.019775391,0.000349045,0,
00:05.9,0.0014534,0.019775391,0.000349045,0,
00:05.9,0.001424789,0.019763947,0.000343323,0,
00:05.9,0.001447678,0.019769669,0.000349045,0,
00:05.9,0.0014534,0.019769669,0.000354767,0,
00:05.9,0.001436234,0.019775391,0.000354767,0,
00:05.9,0.0014534,0.019775391,0.000349045,0,
00:05.9,0.001441956,0.019769669,0.000354767,0,
00:05.9,0.001464844,0.019775391,0.000349045,0,
00:05.9,0.001441956,0.019769669,0.000349045,0,
00:05.9,0.001447678,0.019769669,0.000337601,0,
00:05.9,0.001447678,0.019775391,0.000337601,0,
00:05.9,0.0014534,0.019775391,0.000354767,0,
00:06.0,0.001447678,0.019763947,0.000354767,0,
00:06.0,0.001436234,0.019769669,0.000349045,0,
00:06.0,0.001447678,0.019775391,0.000366211,0,
00:06.0,0.001459122,0.019775391,0.000349045,0,
00:06.0,0.001447678,0.019781113,0.000349045,0,
00:06.0,0.001447678,0.019769669,0.000354767,0,
00:06.0,0.001459122,0.019769669,0.000354767,0,
00:06.0,0.0014534,0.019775391,0.000337601,0,
00:06.0,0.0014534,0.019781113,0.000337601,0,
00:06.0,0.001447678,0.019769669,0.000383377,0,
00:06.0,0.001441956,0.019763947,0.000360489,0,
00:06.0,0.0014534,0.019781113,0.000354767,0,
00:00:06,0.0014534,0.019781113,0.000349045,0,
00:06.0,0.001430511,0.019775391,0.000360489,0,
00:06.0,0.001401901,0.019763947,0.000377655,0,
00:06.0,0.001430511,0.019769669,0.000366211,0,
00:06.0,0.00148201,0.019775391,0.000349045,0,
00:06.0,0.001441956,0.019769669,0.000360489,0,
00:06.0,0.001430511,0.019775391,0.000349045,0,
00:06.0,0.001441956,0.019769669,0.000354767,0,
00:06.0,0.001447678,0.019769669,0.000366211,0,
00:06.0,0.001447678,0.019769669,0.000371933,0,
00:06.0,0.0014534,0.019775391,0.000360489,0,
00:06.0,0.001441956,0.019775391,0.000366211,0,
00:06.0,0.001447678,0.019775391,0.000354767,0,
00:06.1,0.001459122,0.019775391,0.000354767,0,
00:06.1,0.0014534,0.019781113,0.000360489,0,
00:06.1,0.001436234,0.019775391,0.000349045,0,
00:06.1,0.001441956,0.019775391,0.000354767,0,
00:06.1,0.001441956,0.019769669,0.000360489,0,
00:06.1,0.001441956,0.019769669,0.000371933,0,
00:06.1,0.001447678,0.019775391,0.000360489,0,
00:06.1,0.001447678,0.019781113,0.000354767,0,
00:06.1,0.0014534,0.019775391,0.000360489,0,
00:06.1,0.001447678,0.019775391,0.000360489,0,
00:06.1,0.001436234,0.019769669,0.000354767,0,
00:06.1,0.001436234,0.019769669,0.000366211,0,
00:06.1,0.001430511,0.019775391,0.000337601,0,
00:06.1,0.001441956,0.019775391,0.000354767,0,
00:06.1,0.001464844,0.019769669,0.000389099,0,
00:06.1,0.001436234,0.019769669,0.000371933,0,
00:06.1,0.001430511,0.019775391,0.000366211,0,
00:06.1,0.001424789,0.019775391,0.000360489,0,
00:06.1,0.0014534,0.019781113,0.000354767,0,
00:06.1,0.001430511,0.019769669,0.000377655,0,
00:06.1,0.001419067,0.019763947,0.000371933,0,
00:06.1,0.001436234,0.019769669,0.000366211,0,
00:06.1,0.0014534,0.019775391,0.000354767,0,
00:06.1,0.001441956,0.019775391,0.000343323,0,
00:06.1,0.001436234,0.019769669,0.000383377,0,
00:06.2,0.001447678,0.019769669,0.000360489,0,
00:06.2,0.001436234,0.019769669,0.000366211,0,
00:06.2,0.001430511,0.019769669,0.000377655,0,
00:06.2,0.001430511,0.019769669,0.000354767,0,
00:06.2,0.001424789,0.019769669,0.000366211,0,
00:06.2,0.001430511,0.019763947,0.000366211,0,
00:06.2,0.001413345,0.019769669,0.000366211,0,
00:06.2,0.001447678,0.019775391,0.000349045,0,
00:06.2,0.001447678,0.019775391,0.000371933,0,
00:06.2,0.001436234,0.019769669,0.000366211,0,
00:06.2,0.001441956,0.019763947,0.000366211,0,
00:06.2,0.001441956,0.019769669,0.000354767,0,
00:06.2,0.001436234,0.019769669,0.000366211,0,
00:06.2,0.001436234,0.019769669,0.000371933,0,
00:06.2,0.001436234,0.019775391,0.000360489,0,
00:06.2,0.001436234,0.019775391,0.000366211,0,
00:06.2,0.001419067,0.019769669,0.000377655,0,
00:06.2,0.001424789,0.019763947,0.000371933,0,
00:06.2,0.001436234,0.019769669,0.000371933,0,
00:06.2,0.0014534,0.019775391,0.000366211,0,
00:06.2,0.001441956,0.019775391,0.000354767,0,
00:06.2,0.001413345,0.019758224,0.000377655,0,
00:06.2,0.001430511,0.019769669,0.000366211,0,
00:06.2,0.001430511,0.019769669,0.000383377,0,
00:06.2,0.001413345,0.019769669,0.000394821,0,
00:06.3,0.001441956,0.019763947,0.000371933,0,
00:06.3,0.001441956,0.019769669,0.000371933,0,
00:06.3,0.001419067,0.019769669,0.000377655,0,
00:06.3,0.001436234,0.019769669,0.000389099,0,
00:06.3,0.001419067,0.019763947,0.000354767,0,
00:06.3,0.001436234,0.019769669,0.000360489,0,
00:06.3,0.001441956,0.019769669,0.000360489,0,
00:06.3,0.001430511,0.019763947,0.000354767,0,
00:06.3,0.001419067,0.019763947,0.000371933,0,
00:06.3,0.001430511,0.019769669,0.000377655,0,
00:06.3,0.001447678,0.019769669,0.000371933,0,
00:06.3,0.001436234,0.019769669,0.000377655,0,
00:06.3,0.001413345,0.019763947,0.000377655,0,
00:06.3,0.001419067,0.019769669,0.000366211,0,
00:06.3,0.001419067,0.019763947,0.000377655,0,
00:06.3,0.001396179,0.019763947,0.000371933,0,
00:06.3,0.001436234,0.019769669,0.000360489,0,
00:06.3,0.001413345,0.019769669,0.000366211,0,
00:06.3,0.001413345,0.019769669,0.000349045,0,
00:06.3,0.001430511,0.019769669,0.000371933,0,
00:06.3,0.001430511,0.019763947,0.000377655,0,
00:06.3,0.001407623,0.019763947,0.000371933,0,
00:06.3,0.001419067,0.019769669,0.000371933,0,
00:06.3,0.001384735,0.019763947,0.000377655,0,
00:06.3,0.001384735,0.019763947,0.000377655,0,
00:06.4,0.001436234,0.019758224,0.000366211,0,
00:06.4,0.001447678,0.019775391,0.000366211,0,
00:06.4,0.001430511,0.019775391,0.000360489,0,
00:06.4,0.001419067,0.019769669,0.000371933,0,
00:06.4,0.001419067,0.019769669,0.000383377,0,
00:06.4,0.001424789,0.019763947,0.000371933,0,
00:06.4,0.001424789,0.019769669,0.000371933,0,
00:06.4,0.001407623,0.019763947,0.000377655,0,
00:06.4,0.001396179,0.019763947,0.000371933,0,
00:06.4,0.001413345,0.019763947,0.000371933,0,
00:06.4,0.001407623,0.019763947,0.000366211,0,
00:06.4,0.001401901,0.019769669,0.000366211,0,
00:06.4,0.001407623,0.019769669,0.000366211,0,
00:06.4,0.001413345,0.019769669,0.000366211,0,
00:06.4,0.001419067,0.019769669,0.000366211,0,
00:06.4,0.001396179,0.019758224,0.000354767,0,
00:06.4,0.001390457,0.019763947,0.000377655,0,
00:06.4,0.001407623,0.019775391,0.000371933,0,
00:06.4,0.001401901,0.019769669,0.000371933,0,
00:06.4,0.001373291,0.019758224,0.000366211,0,
00:06.4,0.001413345,0.019763947,0.000377655,0,
00:06.4,0.001390457,0.019763947,0.000377655,0,
00:06.4,0.001407623,0.019775391,0.000360489,0,
00:06.4,0.001424789,0.019775391,0.000354767,0,
00:06.4,0.001407623,0.019769669,0.000349045,0,
00:06.5,0.001419067,0.019769669,0.000360489,0,
00:06.5,0.001407623,0.019769669,0.000377655,0,
00:06.5,0.001401901,0.019769669,0.000366211,0,
00:06.5,0.001413345,0.019763947,0.000366211,0,
00:06.5,0.001401901,0.019763947,0.000360489,0,
00:06.5,0.001401901,0.019763947,0.000360489,0,
00:06.5,0.001407623,0.019769669,0.000360489,0,
00:06.5,0.001407623,0.019775391,0.000349045,0,
00:06.5,0.001407623,0.019769669,0.000360489,0,
00:06.5,0.001407623,0.019769669,0.000360489,0,
00:06.5,0.001407623,0.019763947,0.000360489,0,
00:06.5,0.001407623,0.019769669,0.000360489,0,
00:06.5,0.001396179,0.019769669,0.000360489,0,
00:06.5,0.001401901,0.019763947,0.000360489,0,
00:06.5,0.001396179,0.019763947,0.000360489,0,
00:06.5,0.001413345,0.019769669,0.000366211,0,
00:06.5,0.001407623,0.019763947,0.000371933,0,
00:06.5,0.001379013,0.019752502,0.000366211,0,
00:06.5,0.001367569,0.019763947,0.000360489,0,
00:06.5,0.001373291,0.019763947,0.000366211,0,
00:06.5,0.001413345,0.019763947,0.000360489,0,
00:06.5,0.001419067,0.019769669,0.000360489,0,
00:06.5,0.001401901,0.019769669,0.000360489,0,
00:06.5,0.001379013,0.019763947,0.000371933,0,
00:06.5,0.001379013,0.019758224,0.000366211,0,
00:06.6,0.001390457,0.019763947,0.000360489,0,
00:06.6,0.001384735,0.019763947,0.000360489,0,
00:06.6,0.001401901,0.019763947,0.000371933,0,
00:06.6,0.001390457,0.019769669,0.000366211,0,
00:06.6,0.001396179,0.019763947,0.000377655,0,
00:06.6,0.001419067,0.019763947,0.000371933,0,
00:06.6,0.001401901,0.019769669,0.000360489,0,
00:06.6,0.001396179,0.019769669,0.000360489,0,
00:06.6,0.001373291,0.019752502,0.000354767,0,
00:06.6,0.001384735,0.019758224,0.000354767,0,
00:06.6,0.001401901,0.019758224,0.000371933,0,
00:06.6,0.001390457,0.019763947,0.000366211,0,
00:06.6,0.001396179,0.019763947,0.000360489,0,
00:06.6,0.001396179,0.019763947,0.000366211,0,
00:06.6,0.001407623,0.019758224,0.000371933,0,
00:06.6,0.001401901,0.019758224,0.000366211,0,
00:06.6,0.001384735,0.019758224,0.000354767,0,
00:06.6,0.001379013,0.019758224,0.000360489,0,
00:06.6,0.001384735,0.019758224,0.000366211,0,
00:06.6,0.001367569,0.01974678,0.000354767,0,
00:06.6,0.001367569,0.019752502,0.000366211,0,
00:06.6,0.001379013,0.019758224,0.000371933,0,
00:06.6,0.001390457,0.019758224,0.000371933,0,
00:06.6,0.001396179,0.019763947,0.000354767,0,
00:06.6,0.001390457,0.019758224,0.000360489,0,
00:06.7,0.001379013,0.019752502,0.000366211,0,
00:06.7,0.001384735,0.019763947,0.000377655,0,
00:06.7,0.001356125,0.019752502,0.000360489,0,
00:06.7,0.001361847,0.019752502,0.000360489,0,
00:06.7,0.001373291,0.019758224,0.000383377,0,
00:06.7,0.001379013,0.019752502,0.000360489,0,
00:06.7,0.001401901,0.019758224,0.000366211,0,
00:06.7,0.001401901,0.019763947,0.000354767,0,
00:06.7,0.001384735,0.019763947,0.000366211,0,
00:06.7,0.001367569,0.019752502,0.000371933,0,
00:06.7,0.001401901,0.01974678,0.000377655,0,
00:06.7,0.001384735,0.019752502,0.000360489,0,
00:06.7,0.001350403,0.019752502,0.000366211,0,
00:06.7,0.001384735,0.019758224,0.000389099,0,
00:06.7,0.001379013,0.01974678,0.000406265,0,
00:06.7,0.001373291,0.01974678,0.000389099,0,
00:06.7,0.001367569,0.019752502,0.000383377,0,
00:06.7,0.001361847,0.019752502,0.000389099,0,
00:06.7,0.001379013,0.01974678,0.000389099,0,
00:06.7,0.001373291,0.019741058,0.000377655,0,
00:06.7,0.001396179,0.019752502,0.000389099,0,
00:06.7,0.001367569,0.019752502,0.000389099,0,
00:06.7,0.001373291,0.019758224,0.000383377,0,
00:06.7,0.001390457,0.019758224,0.000394821,0,
00:06.7,0.001390457,0.019752502,0.000383377,0,
00:06.8,0.001384735,0.019752502,0.000400543,0,
00:06.8,0.001373291,0.019752502,0.000394821,0,
00:06.8,0.001356125,0.01974678,0.000389099,0,
00:06.8,0.001361847,0.019752502,0.000411987,0,
00:06.8,0.001384735,0.01974678,0.000394821,0,
00:06.8,0.001390457,0.019758224,0.000389099,0,
00:06.8,0.001361847,0.019758224,0.000389099,0,
00:06.8,0.001367569,0.019752502,0.000400543,0,
00:06.8,0.001350403,0.01974678,0.000400543,0,
00:06.8,0.001379013,0.019752502,0.000394821,0,
00:06.8,0.001390457,0.01974678,0.000394821,0,
00:06.8,0.001379013,0.019752502,0.000400543,0,
00:06.8,0.001379013,0.019758224,0.000406265,0,
00:06.8,0.001379013,0.019752502,0.000411987,0,
00:06.8,0.001373291,0.019752502,0.000400543,0,
00:06.8,0.001379013,0.019758224,0.000400543,0,
00:06.8,0.001367569,0.01974678,0.000406265,0,
00:06.8,0.001367569,0.019752502,0.000406265,0,
00:06.8,0.001356125,0.019752502,0.000406265,0,
00:06.8,0.001361847,0.019752502,0.000406265,0,
00:06.8,0.001384735,0.01974678,0.000411987,0,
00:06.8,0.001367569,0.019741058,0.000411987,0,
00:06.8,0.001367569,0.019752502,0.000400543,0,
00:06.8,0.001373291,0.01974678,0.000417709,0,
00:06.8,0.001367569,0.019735336,0.000417709,0,
00:06.9,0.001396179,0.019752502,0.000406265,0,
00:06.9,0.001384735,0.01974678,0.000406265,0,
00:06.9,0.001390457,0.01974678,0.000411987,0,
00:06.9,0.001384735,0.01974678,0.000411987,0,
00:06.9,0.001373291,0.019741058,0.000406265,0,
00:06.9,0.001350403,0.019735336,0.000411987,0,
00:06.9,0.001384735,0.01974678,0.000411987,0,
00:06.9,0.001384735,0.019752502,0.000417709,0,
00:06.9,0.001384735,0.01974678,0.000411987,0,
00:06.9,0.001384735,0.019741058,0.000417709,0,
00:06.9,0.001379013,0.019741058,0.000411987,0,
00:06.9,0.001367569,0.019735336,0.000429153,0,
00:06.9,0.001367569,0.01974678,0.000429153,0,
00:06.9,0.001390457,0.019752502,0.000417709,0,
00:06.9,0.001379013,0.019741058,0.000411987,0,
00:06.9,0.001373291,0.019741058,0.000411987,0,
00:06.9,0.001373291,0.01974678,0.000417709,0,
00:06.9,0.001367569,0.01974678,0.000434875,0,
00:06.9,0.001373291,0.019741058,0.000434875,0,
00:06.9,0.001367569,0.019741058,0.000434875,0,
00:06.9,0.001384735,0.01974678,0.000429153,0,
00:06.9,0.001367569,0.019741058,0.000429153,0,
00:06.9,0.001379013,0.019741058,0.000440598,0,
00:06.9,0.001390457,0.01974678,0.000429153,0,
00:06.9,0.001384735,0.019741058,0.000429153,0,
00:07.0,0.001373291,0.019741058,0.000429153,0,
00:07.0,0.001373291,0.01974678,0.000423431,0,
00:07.0,0.001367569,0.019741058,0.000429153,0,
00:07.0,0.001373291,0.019741058,0.000434875,0,
00:07.0,0.001338959,0.019735336,0.000440598,0,
00:07.0,0.001396179,0.019741058,0.000423431,0,
00:07.0,0.001396179,0.01974678,0.000429153,0,
00:07.0,0.001379013,0.01974678,0.000440598,0,
00:07.0,0.001373291,0.019741058,0.000452042,0,
00:07.0,0.001373291,0.019735336,0.00044632,0,
00:07.0,0.001401901,0.019741058,0.000429153,0,
00:07.0,0.001390457,0.019741058,0.000440598,0,
00:00:07,0.001396179,0.01974678,0.000434875,0,
00:07.0,0.001401901,0.019735336,0.000434875,0,
00:07.0,0.001384735,0.019729614,0.00044632,0,
00:07.0,0.001384735,0.019741058,0.000440598,0,
00:07.0,0.001361847,0.019735336,0.000434875,0,
00:07.0,0.001361847,0.019735336,0.00044632,0,
00:07.0,0.001384735,0.019735336,0.00044632,0,
00:07.0,0.001396179,0.019735336,0.00044632,0,
00:07.0,0.001379013,0.019735336,0.000457764,0,
00:07.0,0.001373291,0.019741058,0.000452042,0,
00:07.0,0.001367569,0.019741058,0.00044632,0,
00:07.0,0.001379013,0.019735336,0.000440598,0,
00:07.0,0.001396179,0.019735336,0.000429153,0,
00:07.1,0.001379013,0.019735336,0.00044632,0,
00:07.1,0.001356125,0.019741058,0.000457764,0,
00:07.1,0.001379013,0.019735336,0.000452042,0,
00:07.1,0.001396179,0.019735336,0.000457764,0,
00:07.1,0.001407623,0.019741058,0.00044632,0,
00:07.1,0.001396179,0.019735336,0.00044632,0,
00:07.1,0.001379013,0.019741058,0.000423431,0,
00:07.1,0.001373291,0.019735336,0.00044632,0,
00:07.1,0.001390457,0.019735336,0.000452042,0,
00:07.1,0.001379013,0.019735336,0.000463486,0,
00:07.1,0.001367569,0.019729614,0.000463486,0,
00:07.1,0.001373291,0.019735336,0.000452042,0,
00:07.1,0.001373291,0.019735336,0.00044632,0,
00:07.1,0.001384735,0.019735336,0.000452042,0,
00:07.1,0.001396179,0.019735336,0.000457764,0,
00:07.1,0.001390457,0.019735336,0.000452042,0,
00:07.1,0.001361847,0.019741058,0.000457764,0,
00:07.1,0.001384735,0.019729614,0.000457764,0,
00:07.1,0.001396179,0.019735336,0.000457764,0,
00:07.1,0.001390457,0.019735336,0.000457764,0,
00:07.1,0.001356125,0.019729614,0.000457764,0,
00:07.1,0.001373291,0.019729614,0.000463486,0,
00:07.1,0.001407623,0.019735336,0.000452042,0,
00:07.1,0.001401901,0.019741058,0.000457764,0,
00:07.1,0.001390457,0.019729614,0.000469208,0,
00:07.2,0.001390457,0.019735336,0.000463486,0,
00:07.2,0.001390457,0.019735336,0.000457764,0,
00:07.2,0.001384735,0.019729614,0.000457764,0,
00:07.2,0.001384735,0.019729614,0.000457764,0,
00:07.2,0.001396179,0.019735336,0.000463486,0,
00:07.2,0.001384735,0.019735336,0.000463486,0,
00:07.2,0.001379013,0.019729614,0.000469208,0,
00:07.2,0.001379013,0.019729614,0.000463486,0,
00:07.2,0.001390457,0.019735336,0.000469208,0,
00:07.2,0.001390457,0.019729614,0.00044632,0,
00:07.2,0.001373291,0.019729614,0.000480652,0,
00:07.2,0.001344681,0.019741058,0.000480652,0,
00:07.2,0.001390457,0.019735336,0.000457764,0,
00:07.2,0.001401901,0.019729614,0.000480652,0,
00:07.2,0.001396179,0.019729614,0.000457764,0,
00:07.2,0.001390457,0.019729614,0.000463486,0,
00:07.2,0.001367569,0.019735336,0.000469208,0,
00:07.2,0.001390457,0.019729614,0.00047493,0,
00:07.2,0.001373291,0.019723892,0.000469208,0,
00:07.2,0.001379013,0.019723892,0.000463486,0,
00:07.2,0.001413345,0.019729614,0.000463486,0,
00:07.2,0.001396179,0.019729614,0.000463486,0,
00:07.2,0.001390457,0.019729614,0.000469208,0,
00:07.2,0.001379013,0.019729614,0.000469208,0,
00:07.2,0.001390457,0.019729614,0.000463486,0,
00:07.3,0.001390457,0.019735336,0.000457764,0,
00:07.3,0.001379013,0.019735336,0.000469208,0,
00:07.3,0.001396179,0.019729614,0.000469208,0,
00:07.3,0.001401901,0.019729614,0.000463486,0,
00:07.3,0.001390457,0.019723892,0.000463486,0,
00:07.3,0.001390457,0.019723892,0.00047493,0,
00:07.3,0.001396179,0.019729614,0.000469208,0,
00:07.3,0.001379013,0.019735336,0.000463486,0,
00:07.3,0.001379013,0.019729614,0.000457764,0,
00:07.3,0.001379013,0.019723892,0.000469208,0,
00:07.3,0.001390457,0.019729614,0.000434875,0,
00:07.3,0.001390457,0.019729614,0.000480652,0,
00:07.3,0.001390457,0.019723892,0.00047493,0,
00:07.3,0.001401901,0.019729614,0.000469208,0,
00:07.3,0.001390457,0.019729614,0.000486374,0,
00:07.3,0.001344681,0.01971817,0.000480652,0,
00:07.3,0.001384735,0.019723892,0.00047493,0,
00:07.3,0.001401901,0.019729614,0.000469208,0,
00:07.3,0.001396179,0.019729614,0.000463486,0,
00:07.3,0.001367569,0.019723892,0.000469208,0,
00:07.3,0.001401901,0.019723892,0.000457764,0,
00:07.3,0.001390457,0.019729614,0.000457764,0,
00:07.3,0.001390457,0.019729614,0.000457764,0,
00:07.3,0.001396179,0.019729614,0.000480652,0,
00:07.3,0.001401901,0.019729614,0.00047493,0,
00:07.4,0.001396179,0.019723892,0.000457764,0,
00:07.4,0.001390457,0.019729614,0.000463486,0,
00:07.4,0.001396179,0.019729614,0.00047493,0,
00:07.4,0.001396179,0.019729614,0.000463486,0,
00:07.4,0.001390457,0.019723892,0.000463486,0,
00:07.4,0.001396179,0.019723892,0.00047493,0,
00:07.4,0.001379013,0.019729614,0.000469208,0,
00:07.4,0.001390457,0.019729614,0.000463486,0,
00:07.4,0.001390457,0.019723892,0.000463486,0,
00:07.4,0.001379013,0.01971817,0.000463486,0,
00:07.4,0.001379013,0.019723892,0.000457764,0,
00:07.4,0.001379013,0.019729614,0.000463486,0,
00:07.4,0.001390457,0.019729614,0.000457764,0,
00:07.4,0.001407623,0.019729614,0.000452042,0,
00:07.4,0.001407623,0.019723892,0.000452042,0,
00:07.4,0.001356125,0.019723892,0.00047493,0,
00:07.4,0.001321793,0.019712448,0.00047493,0,
00:07.4,0.001413345,0.019729614,0.000440598,0,
00:07.4,0.001419067,0.019729614,0.000452042,0,
00:07.4,0.001413345,0.019723892,0.000457764,0,
00:07.4,0.001401901,0.01971817,0.000452042,0,
00:07.4,0.001379013,0.019729614,0.000440598,0,
00:07.4,0.001384735,0.01971817,0.00044632,0,
00:07.4,0.001401901,0.019729614,0.000469208,0,
00:07.4,0.001401901,0.019723892,0.000452042,0,
00:07.5,0.001407623,0.019729614,0.000452042,0,
00:07.5,0.001390457,0.019729614,0.000452042,0,
00:07.5,0.001390457,0.019723892,0.000452042,0,
00:07.5,0.001396179,0.019712448,0.000434875,0,
00:07.5,0.001379013,0.019723892,0.000452042,0,
00:07.5,0.001396179,0.019729614,0.000452042,0,
00:07.5,0.001379013,0.019723892,0.000463486,0,
00:07.5,0.001390457,0.019723892,0.000452042,0,
00:07.5,0.001401901,0.019723892,0.000452042,0,
00:07.5,0.001396179,0.01971817,0.00044632,0,
00:07.5,0.001396179,0.019723892,0.000452042,0,
00:07.5,0.001396179,0.019729614,0.00044632,0,
00:07.5,0.001390457,0.019723892,0.000452042,0,
00:07.5,0.001384735,0.019712448,0.000452042,0,
00:07.5,0.001396179,0.019723892,0.000457764,0,
00:07.5,0.001396179,0.019729614,0.00044632,0,
00:07.5,0.001367569,0.019723892,0.000434875,0,
00:07.5,0.001361847,0.019712448,0.000434875,0,
00:07.5,0.001407623,0.019735336,0.000452042,0,
00:07.5,0.001384735,0.01971817,0.000457764,0,
00:07.5,0.001396179,0.01971817,0.000440598,0,
00:07.5,0.001390457,0.01971817,0.000452042,0,
00:07.5,0.001401901,0.019729614,0.000452042,0,
00:07.5,0.001373291,0.01971817,0.000429153,0,
00:07.5,0.001390457,0.019723892,0.000429153,0,
00:07.6,0.001396179,0.019729614,0.000434875,0,
00:07.6,0.001419067,0.019729614,0.000457764,0,
00:07.6,0.001396179,0.019729614,0.000440598,0,
00:07.6,0.001390457,0.01971817,0.000452042,0,
00:07.6,0.001396179,0.019723892,0.00044632,0,
00:07.6,0.001390457,0.019723892,0.00044632,0,
00:07.6,0.001384735,0.019729614,0.00044632,0,
00:07.6,0.001373291,0.019723892,0.000440598,0,
00:07.6,0.001407623,0.019729614,0.000434875,0,
00:07.6,0.001396179,0.019723892,0.000440598,0,
00:07.6,0.001390457,0.019723892,0.000440598,0,
00:07.6,0.001396179,0.019729614,0.000440598,0,
00:07.6,0.001396179,0.019723892,0.000434875,0,
00:07.6,0.001390457,0.01971817,0.000434875,0,
00:07.6,0.001396179,0.019723892,0.000434875,0,
00:07.6,0.001396179,0.019729614,0.000429153,0,
00:07.6,0.001384735,0.019723892,0.000434875,0,
00:07.6,0.001373291,0.019723892,0.00044632,0,
00:07.6,0.001373291,0.019723892,0.000440598,0,
00:07.6,0.001401901,0.019723892,0.00044632,0,
00:07.6,0.001401901,0.019729614,0.000452042,0,
00:07.6,0.001373291,0.019723892,0.000434875,0,
00:07.6,0.001373291,0.01971817,0.00044632,0,
00:07.6,0.001407623,0.019723892,0.000434875,0,
00:07.6,0.001407623,0.019723892,0.000434875,0,
00:07.7,0.001401901,0.019723892,0.000434875,0,
00:07.7,0.001401901,0.019729614,0.000434875,0,
00:07.7,0.001390457,0.019723892,0.000440598,0,
00:07.7,0.001390457,0.01971817,0.000440598,0,
00:07.7,0.001390457,0.019723892,0.000434875,0,
00:07.7,0.001390457,0.019723892,0.000434875,0,
00:07.7,0.001373291,0.01971817,0.000423431,0,
00:07.7,0.001390457,0.019723892,0.000429153,0,
00:07.7,0.001407623,0.019723892,0.000434875,0,
00:07.7,0.001390457,0.019723892,0.000429153,0,
00:07.7,0.001396179,0.019735336,0.000434875,0,
00:07.7,0.001390457,0.019723892,0.000423431,0,
00:07.7,0.001390457,0.019723892,0.000429153,0,
00:07.7,0.001390457,0.019723892,0.000429153,0,
00:07.7,0.001361847,0.01971817,0.000423431,0,
00:07.7,0.001333237,0.01971817,0.000423431,0,
00:07.7,0.001361847,0.019723892,0.000440598,0,
00:07.7,0.001430511,0.019729614,0.000429153,0,
00:07.7,0.001419067,0.019723892,0.000417709,0,
00:07.7,0.001396179,0.019729614,0.000440598,0,
00:07.7,0.001390457,0.019723892,0.000440598,0,
00:07.7,0.001396179,0.019729614,0.000440598,0,
00:07.7,0.001396179,0.019723892,0.000423431,0,
00:07.7,0.001384735,0.019723892,0.000423431,0,
00:07.7,0.001367569,0.019723892,0.000440598,0,
00:07.8,0.001379013,0.019723892,0.000429153,0,
00:07.8,0.001390457,0.019723892,0.000423431,0,
00:07.8,0.001390457,0.01971817,0.000417709,0,
00:07.8,0.001396179,0.01971817,0.000411987,0,
00:07.8,0.001396179,0.019723892,0.000406265,0,
00:07.8,0.001384735,0.019723892,0.000423431,0,
00:07.8,0.001373291,0.019729614,0.000429153,0,
00:07.8,0.001396179,0.019723892,0.000429153,0,
00:07.8,0.001401901,0.019723892,0.000423431,0,
00:07.8,0.001390457,0.01971817,0.000423431,0,
00:07.8,0.001367569,0.019723892,0.000417709,0,
00:07.8,0.001361847,0.019723892,0.000411987,0,
00:07.8,0.001401901,0.019729614,0.000417709,0,
00:07.8,0.001413345,0.019723892,0.000423431,0,
00:07.8,0.001390457,0.01971817,0.000417709,0,
00:07.8,0.001390457,0.019723892,0.000423431,0,
00:07.8,0.001390457,0.019729614,0.000417709,0,
00:07.8,0.001384735,0.019723892,0.000423431,0,
00:07.8,0.001361847,0.019712448,0.000411987,0,
00:07.8,0.001379013,0.01971817,0.000417709,0,
00:07.8,0.001407623,0.019729614,0.000423431,0,
00:07.8,0.001401901,0.019729614,0.000423431,0,
00:07.8,0.001396179,0.019723892,0.000400543,0,
00:07.8,0.001390457,0.019729614,0.000423431,0,
00:07.8,0.001384735,0.019723892,0.000417709,0,
00:07.9,0.001384735,0.019723892,0.000423431,0,
00:07.9,0.001379013,0.019723892,0.000429153,0,
00:07.9,0.001379013,0.019723892,0.000411987,0,
00:07.9,0.001384735,0.019723892,0.000411987,0,
00:07.9,0.001384735,0.019723892,0.000429153,0,
00:07.9,0.001401901,0.019729614,0.000417709,0,
00:07.9,0.001390457,0.019729614,0.000394821,0,
00:07.9,0.001384735,0.019723892,0.000429153,0,
00:07.9,0.001401901,0.019729614,0.000417709,0,
00:07.9,0.001396179,0.01971817,0.000417709,0,
00:07.9,0.001373291,0.019723892,0.000423431,0,
00:07.9,0.001367569,0.019729614,0.000411987,0,
00:07.9,0.001407623,0.019735336,0.000389099,0,
00:07.9,0.001396179,0.019723892,0.000406265,0,
00:07.9,0.001396179,0.019729614,0.000417709,0,
00:07.9,0.001390457,0.019729614,0.000411987,0,
00:07.9,0.001384735,0.019729614,0.000417709,0,
00:07.9,0.001384735,0.019729614,0.000406265,0,
00:07.9,0.001390457,0.019729614,0.000411987,0,
00:07.9,0.001390457,0.019729614,0.000389099,0,
00:07.9,0.001367569,0.019729614,0.000411987,0,
00:07.9,0.001384735,0.019729614,0.000406265,0,
00:07.9,0.001379013,0.019723892,0.000406265,0,
00:07.9,0.001384735,0.019723892,0.000411987,0,
00:07.9,0.001379013,0.019723892,0.000394821,0,
00:08.0,0.001401901,0.019729614,0.000417709,0,
00:08.0,0.001379013,0.019735336,0.000417709,0,
00:08.0,0.001373291,0.019729614,0.000394821,0,
00:08.0,0.001379013,0.01971817,0.000406265,0,
00:08.0,0.001379013,0.019723892,0.000394821,0,
00:08.0,0.001390457,0.019735336,0.000394821,0,
00:08.0,0.001379013,0.019723892,0.000406265,0,
00:08.0,0.001396179,0.019729614,0.000394821,0,
00:08.0,0.001396179,0.019735336,0.000394821,0,
00:08.0,0.001390457,0.019723892,0.000400543,0,
00:08.0,0.001384735,0.019723892,0.000406265,0,
00:08.0,0.001384735,0.019723892,0.000417709,0,
00:00:08,0.001396179,0.019729614,0.000400543,0,
00:08.0,0.001384735,0.019723892,0.000400543,0,
00:08.0,0.001373291,0.019723892,0.000400543,0,
00:08.0,0.001373291,0.01971817,0.000394821,0,
00:08.0,0.001373291,0.019729614,0.000394821,0,
00:08.0,0.001367569,0.019729614,0.000394821,0,
00:08.0,0.001384735,0.019723892,0.000394821,0,
00:08.0,0.001367569,0.019729614,0.000400543,0,
00:08.0,0.001379013,0.019723892,0.000394821,0,
00:08.0,0.001379013,0.019735336,0.000394821,0,
00:08.0,0.001390457,0.019729614,0.000383377,0,
00:08.0,0.001373291,0.01971817,0.000389099,0,
00:08.0,0.001384735,0.019723892,0.000389099,0,
00:08.1,0.001390457,0.019729614,0.000394821,0,
00:08.1,0.001379013,0.019723892,0.000383377,0,
00:08.1,0.001384735,0.019729614,0.000377655,0,
00:08.1,0.001379013,0.019723892,0.000383377,0,
00:08.1,0.001356125,0.01971817,0.000394821,0,
00:08.1,0.001396179,0.019729614,0.000383377,0,
00:08.1,0.001390457,0.019729614,0.000377655,0,
00:08.1,0.001373291,0.019723892,0.000394821,0,
00:08.1,0.001367569,0.019729614,0.000389099,0,
00:08.1,0.001344681,0.019729614,0.000394821,0,
00:08.1,0.001373291,0.01971817,0.000394821,0,
00:08.1,0.001390457,0.019729614,0.000383377,0,
00:08.1,0.001379013,0.019723892,0.000377655,0,
00:08.1,0.001373291,0.019723892,0.000377655,0,
00:08.1,0.001384735,0.01971817,0.000383377,0,
00:08.1,0.001384735,0.019723892,0.000389099,0,
00:08.1,0.001367569,0.019723892,0.000371933,0,
00:08.1,0.001338959,0.019712448,0.000377655,0,
00:08.1,0.001361847,0.019712448,0.000406265,0,
00:08.1,0.001407623,0.019735336,0.000377655,0,
00:08.1,0.001390457,0.019729614,0.000383377,0,
00:08.1,0.001379013,0.019729614,0.000389099,0,
00:08.1,0.001367569,0.019723892,0.000377655,0,
00:08.1,0.001390457,0.019723892,0.000371933,0,
00:08.1,0.001390457,0.019723892,0.000383377,0,
00:08.2,0.001379013,0.019729614,0.000383377,0,
00:08.2,0.001379013,0.019729614,0.000371933,0,
00:08.2,0.001367569,0.01971817,0.000371933,0,
00:08.2,0.001367569,0.01971817,0.000383377,0,
00:08.2,0.001379013,0.019729614,0.000389099,0,
00:08.2,0.001373291,0.019723892,0.000377655,0,
00:08.2,0.001373291,0.019729614,0.000371933,0,
00:08.2,0.001379013,0.019723892,0.000394821,0,
00:08.2,0.001373291,0.01971817,0.000383377,0,
00:08.2,0.001356125,0.019723892,0.000383377,0,
00:08.2,0.001373291,0.019723892,0.000371933,0,
00:08.2,0.001379013,0.019723892,0.000371933,0,
00:08.2,0.001390457,0.019723892,0.000371933,0,
00:08.2,0.001379013,0.019723892,0.000377655,0,
00:08.2,0.001373291,0.01971817,0.000371933,0,
00:08.2,0.001373291,0.019723892,0.000371933,0,
00:08.2,0.001373291,0.019723892,0.000366211,0,
00:08.2,0.001361847,0.01971817,0.000354767,0,
00:08.2,0.001350403,0.019723892,0.000371933,0,
00:08.2,0.001373291,0.019723892,0.000389099,0,
00:08.2,0.001361847,0.019723892,0.000383377,0,
00:08.2,0.001338959,0.019723892,0.000389099,0,
00:08.2,0.001390457,0.019729614,0.000371933,0,
00:08.2,0.001390457,0.019729614,0.000371933,0,
00:08.2,0.001373291,0.01971817,0.000366211,0,
00:08.3,0.001367569,0.019729614,0.000366211,0,
00:08.3,0.001367569,0.019723892,0.000383377,0,
00:08.3,0.001356125,0.019723892,0.000371933,0,
00:08.3,0.001356125,0.019729614,0.000371933,0,
00:08.3,0.001361847,0.019729614,0.000383377,0,
00:08.3,0.001379013,0.019723892,0.000377655,0,
00:08.3,0.001384735,0.019729614,0.000366211,0,
00:08.3,0.001373291,0.019723892,0.000371933,0,
00:08.3,0.001367569,0.019723892,0.000366211,0,
00:08.3,0.001361847,0.019723892,0.000360489,0,
00:08.3,0.001338959,0.019723892,0.000371933,0,
00:08.3,0.001390457,0.019729614,0.000371933,0,
00:08.3,0.001373291,0.019729614,0.000371933,0,
00:08.3,0.001356125,0.01971817,0.000366211,0,
00:08.3,0.001373291,0.019723892,0.000360489,0,
00:08.3,0.001367569,0.019723892,0.000360489,0,
00:08.3,0.001367569,0.019729614,0.000371933,0,
00:08.3,0.001379013,0.019735336,0.000371933,0,
00:08.3,0.001367569,0.019723892,0.000366211,0,
00:08.3,0.001367569,0.019723892,0.000349045,0,
00:08.3,0.001356125,0.019723892,0.000349045,0,
00:08.3,0.001367569,0.019729614,0.000383377,0,
00:08.3,0.001384735,0.019729614,0.000360489,0,
00:08.3,0.001367569,0.019723892,0.000366211,0,
00:08.3,0.001333237,0.019729614,0.000377655,0,
00:08.4,0.001367569,0.019723892,0.000371933,0,
00:08.4,0.001384735,0.019735336,0.000366211,0,
00:08.4,0.001379013,0.019729614,0.000366211,0,
00:08.4,0.001373291,0.019735336,0.000349045,0,
00:08.4,0.001367569,0.019729614,0.000354767,0,
00:08.4,0.001373291,0.019729614,0.000360489,0,
00:08.4,0.001356125,0.019723892,0.000360489,0,
00:08.4,0.001373291,0.019729614,0.000360489,0,
00:08.4,0.001384735,0.019729614,0.000360489,0,
00:08.4,0.001361847,0.019723892,0.000360489,0,
00:08.4,0.001356125,0.019735336,0.000349045,0,
00:08.4,0.001356125,0.019729614,0.000354767,0,
00:08.4,0.001367569,0.019729614,0.000360489,0,
00:08.4,0.001367569,0.019729614,0.000349045,0,
00:08.4,0.001373291,0.019723892,0.000354767,0,
00:08.4,0.001373291,0.019729614,0.000354767,0,
00:08.4,0.001356125,0.019729614,0.000349045,0,
00:08.4,0.001361847,0.019729614,0.000331879,0,
00:08.4,0.001361847,0.019729614,0.000331879,0,
00:08.4,0.001367569,0.019735336,0.000366211,0,
00:08.4,0.001356125,0.019729614,0.000360489,0,
00:08.4,0.001361847,0.019723892,0.000343323,0,
00:08.4,0.001367569,0.019723892,0.000343323,0,
00:08.4,0.001373291,0.019729614,0.000354767,0,
00:08.4,0.001350403,0.019723892,0.000354767,0,
00:08.5,0.001344681,0.019729614,0.000349045,0,
00:08.5,0.001373291,0.019735336,0.000343323,0,
00:08.5,0.001373291,0.019729614,0.000331879,0,
00:08.5,0.001350403,0.019723892,0.000349045,0,
00:08.5,0.001367569,0.019729614,0.000343323,0,
00:08.5,0.001379013,0.019735336,0.000360489,0,
00:08.5,0.001367569,0.019723892,0.000349045,0,
00:08.5,0.001361847,0.019735336,0.000343323,0,
00:08.5,0.001356125,0.019735336,0.000331879,0,
00:08.5,0.001338959,0.019723892,0.000337601,0,
00:08.5,0.001350403,0.019723892,0.000337601,0,
00:08.5,0.001356125,0.019729614,0.000326157,0,
00:08.5,0.001379013,0.019735336,0.000331879,0,
00:08.5,0.001379013,0.019729614,0.000337601,0,
00:08.5,0.001367569,0.019735336,0.000326157,0,
00:08.5,0.001356125,0.019723892,0.000343323,0,
00:08.5,0.001333237,0.019723892,0.000326157,0,
00:08.5,0.001361847,0.019729614,0.000337601,0,
00:08.5,0.001367569,0.019729614,0.000343323,0,
00:08.5,0.001356125,0.019723892,0.000337601,0,
00:08.5,0.001350403,0.019729614,0.000343323,0,
00:08.5,0.001361847,0.019729614,0.000349045,0,
00:08.5,0.001361847,0.019723892,0.000337601,0,
00:08.5,0.001350403,0.019723892,0.000326157,0,
00:08.5,0.001361847,0.01971817,0.000331879,0,
00:08.6,0.001356125,0.019729614,0.000337601,0,
00:08.6,0.001350403,0.019729614,0.000331879,0,
00:08.6,0.001379013,0.019723892,0.000331879,0,
00:08.6,0.001367569,0.019723892,0.000337601,0,
00:08.6,0.001350403,0.019723892,0.000331879,0,
00:08.6,0.001333237,0.019723892,0.00030899,0,
00:08.6,0.001361847,0.019729614,0.000326157,0,
00:08.6,0.001367569,0.019729614,0.000331879,0,
00:08.6,0.001367569,0.019729614,0.000326157,0,
00:08.6,0.001356125,0.019723892,0.000326157,0,
00:08.6,0.001361847,0.019729614,0.000320435,0,
00:08.6,0.001356125,0.019729614,0.000320435,0,
00:08.6,0.001350403,0.019723892,0.000331879,0,
00:08.6,0.001344681,0.01971817,0.000320435,0,
00:08.6,0.001373291,0.019735336,0.000326157,0,
00:08.6,0.001367569,0.019729614,0.000326157,0,
00:08.6,0.001350403,0.019729614,0.000320435,0,
00:08.6,0.001356125,0.019729614,0.000326157,0,
00:08.6,0.001356125,0.019729614,0.000326157,0,
00:08.6,0.001367569,0.019735336,0.000326157,0,
00:08.6,0.001356125,0.019735336,0.000331879,0,
00:08.6,0.001338959,0.019729614,0.000326157,0,
00:08.6,0.001356125,0.019729614,0.00030899,0,
00:08.6,0.001373291,0.019729614,0.000314713,0,
00:08.6,0.001344681,0.019729614,0.000314713,0,
00:08.7,0.001344681,0.019729614,0.000320435,0,
00:08.7,0.001350403,0.019729614,0.00030899,0,
00:08.7,0.001356125,0.019729614,0.000320435,0,
00:08.7,0.001338959,0.019723892,0.000314713,0,
00:08.7,0.001350403,0.019729614,0.000320435,0,
00:08.7,0.001350403,0.019729614,0.000320435,0,
00:08.7,0.001356125,0.019735336,0.000320435,0,
00:08.7,0.001361847,0.019735336,0.00030899,0,
00:08.7,0.001361847,0.019735336,0.000314713,0,
00:08.7,0.001361847,0.019729614,0.000297546,0,
00:08.7,0.001350403,0.019729614,0.000291824,0,
00:08.7,0.001344681,0.019729614,0.000320435,0,
00:08.7,0.001338959,0.019729614,0.000314713,0,
00:08.7,0.001338959,0.019729614,0.000320435,0,
00:08.7,0.001361847,0.019723892,0.000326157,0,
00:08.7,0.001361847,0.019735336,0.000303268,0,
00:08.7,0.001344681,0.019729614,0.000314713,0,
00:08.7,0.001356125,0.019723892,0.000297546,0,
00:08.7,0.001338959,0.01971817,0.000297546,0,
00:08.7,0.001356125,0.019735336,0.000297546,0,
00:08.7,0.001361847,0.019741058,0.00030899,0,
00:08.7,0.001344681,0.019735336,0.000326157,0,
00:08.7,0.001333237,0.019723892,0.000303268,0,
00:08.7,0.001327515,0.019729614,0.000297546,0,
00:08.7,0.001350403,0.019735336,0.000297546,0,
00:08.8,0.001361847,0.019735336,0.000297546,0,
00:08.8,0.001338959,0.019729614,0.000297546,0,
00:08.8,0.001333237,0.019723892,0.00030899,0,
00:08.8,0.001350403,0.019729614,0.000303268,0,
00:08.8,0.001350403,0.019729614,0.000297546,0,
00:08.8,0.001344681,0.019729614,0.000297546,0,
00:08.8,0.001338959,0.019729614,0.000297546,0,
00:08.8,0.001356125,0.019735336,0.00030899,0,
00:08.8,0.001338959,0.019723892,0.000297546,0,
00:08.8,0.001356125,0.019723892,0.000286102,0,
00:08.8,0.001344681,0.019729614,0.000291824,0,
00:08.8,0.001344681,0.019729614,0.000303268,0,
00:08.8,0.001344681,0.019723892,0.000297546,0,
00:08.8,0.001321793,0.019723892,0.000303268,0,
00:08.8,0.001356125,0.019735336,0.000291824,0,
00:08.8,0.001338959,0.019729614,0.00028038,0,
00:08.8,0.001338959,0.019729614,0.000274658,0,
00:08.8,0.001327515,0.019723892,0.000274658,0,
00:08.8,0.001333237,0.019729614,0.000291824,0,
00:08.8,0.001356125,0.019729614,0.000297546,0,
00:08.8,0.001350403,0.019735336,0.00030899,0,
00:08.8,0.001344681,0.019729614,0.00028038,0,
00:08.8,0.001350403,0.019729614,0.000303268,0,
00:08.8,0.001344681,0.019723892,0.000297546,0,
00:08.8,0.001333237,0.019729614,0.000286102,0,
00:08.9,0.001333237,0.019729614,0.000286102,0,
00:08.9,0.001321793,0.019729614,0.000291824,0,
00:08.9,0.001350403,0.019735336,0.000297546,0,
00:08.9,0.001356125,0.019735336,0.000291824,0,
00:08.9,0.001344681,0.019729614,0.00028038,0,
00:08.9,0.001333237,0.019723892,0.000274658,0,
00:08.9,0.001327515,0.019729614,0.000297546,0,
00:08.9,0.001327515,0.019729614,0.000297546,0,
00:08.9,0.001350403,0.019729614,0.00028038,0,
00:08.9,0.001327515,0.019723892,0.000286102,0,
00:08.9,0.001338959,0.019735336,0.000286102,0,
00:08.9,0.001356125,0.019735336,0.000286102,0,
00:08.9,0.001333237,0.019723892,0.000286102,0,
00:08.9,0.001327515,0.019729614,0.000286102,0,
00:08.9,0.001338959,0.019735336,0.000286102,0,
00:08.9,0.001327515,0.019723892,0.000263214,0,
00:08.9,0.001327515,0.019723892,0.000274658,0,
00:08.9,0.001344681,0.019729614,0.000286102,0,
00:08.9,0.001350403,0.019735336,0.000274658,0,
00:08.9,0.001333237,0.019729614,0.000286102,0,
00:08.9,0.001310349,0.019729614,0.00028038,0,
00:08.9,0.001327515,0.019729614,0.000274658,0,
00:08.9,0.001361847,0.019729614,0.000274658,0,
00:08.9,0.001344681,0.019729614,0.000274658,0,
00:08.9,0.001338959,0.019735336,0.000297546,0,
00:09.0,0.001338959,0.019729614,0.000286102,0,
00:09.0,0.001321793,0.019723892,0.00025177,0,
00:09.0,0.001338959,0.019741058,0.000268936,0,
00:09.0,0.001344681,0.019729614,0.00028038,0,
00:09.0,0.001333237,0.019735336,0.000291824,0,
00:09.0,0.001333237,0.019735336,0.000274658,0,
00:09.0,0.001333237,0.019723892,0.000268936,0,
00:09.0,0.001327515,0.01971817,0.000297546,0,
00:09.0,0.001327515,0.019735336,0.00028038,0,
00:09.0,0.001321793,0.019735336,0.00028038,0,
00:09.0,0.001327515,0.019735336,0.00028038,0,
00:09.0,0.001321793,0.019735336,0.00028038,0,
00:00:09,0.001333237,0.019729614,0.000268936,0,
00:09.0,0.001321793,0.019729614,0.000268936,0,
00:09.0,0.001293182,0.019729614,0.000274658,0,
00:09.0,0.001298904,0.019729614,0.000286102,0,
00:09.0,0.001327515,0.019729614,0.00028038,0,
00:09.0,0.001350403,0.019729614,0.000274658,0,
00:09.0,0.001338959,0.019729614,0.000274658,0,
00:09.0,0.001333237,0.019729614,0.000268936,0,
00:09.0,0.001310349,0.019735336,0.000274658,0,
00:09.0,0.001316071,0.019729614,0.00028038,0,
00:09.0,0.001333237,0.019729614,0.000274658,0,
00:09.0,0.001321793,0.019723892,0.000274658,0,
00:09.0,0.001316071,0.019723892,0.000274658,0,
00:09.1,0.001327515,0.019735336,0.000268936,0,
00:09.1,0.001321793,0.019729614,0.000268936,0,
00:09.1,0.001310349,0.019729614,0.000274658,0,
00:09.1,0.001316071,0.019729614,0.000286102,0,
00:09.1,0.001327515,0.019735336,0.000286102,0,
00:09.1,0.001333237,0.019735336,0.00025177,0,
00:09.1,0.001327515,0.019735336,0.000274658,0,
00:09.1,0.001327515,0.019729614,0.000286102,0,
00:09.1,0.001310349,0.019723892,0.00028038,0,
00:09.1,0.001310349,0.019729614,0.00025177,0,
00:09.1,0.001310349,0.019729614,0.00028038,0,
00:09.1,0.001327515,0.019735336,0.000274658,0,
00:09.1,0.001333237,0.019729614,0.000268936,0,
00:09.1,0.001321793,0.019723892,0.000268936,0,
00:09.1,0.001321793,0.019735336,0.000246048,0,
00:09.1,0.001304626,0.019735336,0.000274658,0,
00:09.1,0.001316071,0.019729614,0.00028038,0,
00:09.1,0.001316071,0.019729614,0.000274658,0,
00:09.1,0.001321793,0.019729614,0.000263214,0,
00:09.1,0.001321793,0.019729614,0.000263214,0,
00:09.1,0.001327515,0.019735336,0.000268936,0,
00:09.1,0.001310349,0.019723892,0.000268936,0,
00:09.1,0.001321793,0.019729614,0.000257492,0,
00:09.1,0.001338959,0.019735336,0.00025177,0,
00:09.1,0.001321793,0.019729614,0.00028038,0,
00:09.2,0.001310349,0.019729614,0.000268936,0,
00:09.2,0.001327515,0.019735336,0.000257492,0,
00:09.2,0.001321793,0.019729614,0.000257492,0,
00:09.2,0.001316071,0.019723892,0.00028038,0,
00:09.2,0.001304626,0.019735336,0.000263214,0,
00:09.2,0.001327515,0.019735336,0.00025177,0,
00:09.2,0.001304626,0.019729614,0.000263214,0,
00:09.2,0.00128746,0.019723892,0.000268936,0,
00:09.2,0.001316071,0.019729614,0.000274658,0,
00:09.2,0.001321793,0.019729614,0.000257492,0,
00:09.2,0.001304626,0.019735336,0.000257492,0,
00:09.2,0.001321793,0.019729614,0.000263214,0,
00:09.2,0.001327515,0.019729614,0.00025177,0,
00:09.2,0.001310349,0.019729614,0.000257492,0,
00:09.2,0.001304626,0.019729614,0.000274658,0,
00:09.2,0.001298904,0.019729614,0.000263214,0,
00:09.2,0.001316071,0.019729614,0.000257492,0,
00:09.2,0.001321793,0.019729614,0.000257492,0,
00:09.2,0.001310349,0.019729614,0.000257492,0,
00:09.2,0.001304626,0.019723892,0.000257492,0,
00:09.2,0.001304626,0.019723892,0.000257492,0,
00:09.2,0.001304626,0.019729614,0.000263214,0,
00:09.2,0.001310349,0.019729614,0.000268936,0,
00:09.2,0.001293182,0.019723892,0.000274658,0,
00:09.2,0.001316071,0.019735336,0.000257492,0,
00:09.3,0.001304626,0.019729614,0.000246048,0,
00:09.3,0.001304626,0.019723892,0.00025177,0,
00:09.3,0.001310349,0.019729614,0.000263214,0,
00:09.3,0.001293182,0.019729614,0.00025177,0,
00:09.3,0.001310349,0.019735336,0.00025177,0,
00:09.3,0.001298904,0.019729614,0.000268936,0,
00:09.3,0.001304626,0.019729614,0.000257492,0,
00:09.3,0.001304626,0.019729614,0.000274658,0,
00:09.3,0.001304626,0.019729614,0.000268936,0,
00:09.3,0.001310349,0.019723892,0.000257492,0,
00:09.3,0.001298904,0.019741058,0.00025177,0,
00:09.3,0.001304626,0.019729614,0.000257492,0,
00:09.3,0.001304626,0.019729614,0.000263214,0,
00:09.3,0.001310349,0.019729614,0.000274658,0,
00:09.3,0.001304626,0.019729614,0.000286102,0,
00:09.3,0.001304626,0.019729614,0.000268936,0,
00:09.3,0.001293182,0.019729614,0.000257492,0,
00:09.3,0.001304626,0.019729614,0.000268936,0,
00:09.3,0.001276016,0.019729614,0.000291824,0,
00:09.3,0.001247406,0.01971817,0.000263214,0,
00:09.3,0.001241684,0.01971817,0.00028038,0,
00:09.3,0.001316071,0.019741058,0.000263214,0,
00:09.3,0.001338959,0.019735336,0.00025177,0,
00:09.3,0.001327515,0.019735336,0.000263214,0,
00:09.3,0.001298904,0.019729614,0.000286102,0,
00:09.4,0.001298904,0.019729614,0.000274658,0,
00:09.4,0.001293182,0.019735336,0.000257492,0,
00:09.4,0.001281738,0.019729614,0.000257492,0,
00:09.4,0.001293182,0.019729614,0.00025177,0,
00:09.4,0.001293182,0.019729614,0.00025177,0,
00:09.4,0.001298904,0.019741058,0.000268936,0,
00:09.4,0.001293182,0.019729614,0.000268936,0,
00:09.4,0.001293182,0.019723892,0.000268936,0,
00:09.4,0.00128746,0.019729614,0.000263214,0,
00:09.4,0.001293182,0.019735336,0.000274658,0,
00:09.4,0.00128746,0.019741058,0.000263214,0,
00:09.4,0.001298904,0.019735336,0.000268936,0,
00:09.4,0.001293182,0.019735336,0.000263214,0,
00:09.4,0.00128746,0.019729614,0.000257492,0,
00:09.4,0.001293182,0.019735336,0.000286102,0,
00:09.4,0.001293182,0.019735336,0.000257492,0,
00:09.4,0.00128746,0.019723892,0.00028038,0,
00:09.4,0.001293182,0.019735336,0.000274658,0,
00:09.4,0.001281738,0.019735336,0.000274658,0,
00:09.4,0.001264572,0.019735336,0.000291824,0,
00:09.4,0.001270294,0.019735336,0.00028038,0,
00:09.4,0.001270294,0.019729614,0.000274658,0,
00:09.4,0.00128746,0.019741058,0.000274658,0,
00:09.4,0.00128746,0.019741058,0.000274658,0,
00:09.4,0.001270294,0.019735336,0.000268936,0,
00:09.5,0.001253128,0.019735336,0.000257492,0,
00:09.5,0.001247406,0.019741058,0.000274658,0,
00:09.5,0.001304626,0.019741058,0.000263214,0,
00:09.5,0.001298904,0.019741058,0.000274658,0,
00:09.5,0.001281738,0.019735336,0.000291824,0,
00:09.5,0.001276016,0.019741058,0.00028038,0,
00:09.5,0.001281738,0.019735336,0.000268936,0,
00:09.5,0.00128746,0.019729614,0.000286102,0,
00:09.5,0.001281738,0.019735336,0.000286102,0,
00:09.5,0.001281738,0.019741058,0.00028038,0,
00:09.5,0.001276016,0.019741058,0.000263214,0,
00:09.5,0.001281738,0.019741058,0.00028038,0,
00:09.5,0.00128746,0.019741058,0.000274658,0,
00:09.5,0.001276016,0.019735336,0.000291824,0,
00:09.5,0.00125885,0.019735336,0.000297546,0,
00:09.5,0.001276016,0.019735336,0.000291824,0,
00:09.5,0.001281738,0.019735336,0.000297546,0,
00:09.5,0.00128746,0.019735336,0.000297546,0,
00:09.5,0.001281738,0.019741058,0.000291824,0,
00:09.5,0.001270294,0.019741058,0.000286102,0,
00:09.5,0.00125885,0.019741058,0.000286102,0,
00:09.5,0.001270294,0.019741058,0.000274658,0,
00:09.5,0.001281738,0.019741058,0.000303268,0,
00:09.5,0.00125885,0.019729614,0.000291824,0,
00:09.5,0.001264572,0.019735336,0.000303268,0,
00:09.6,0.00128746,0.019752502,0.000303268,0,
00:09.6,0.001270294,0.019735336,0.000297546,0,
00:09.6,0.001253128,0.019729614,0.000297546,0,
00:09.6,0.001276016,0.019741058,0.000297546,0,
00:09.6,0.001270294,0.01974678,0.000291824,0,
00:09.6,0.00125885,0.019741058,0.000291824,0,
00:09.6,0.001235962,0.019741058,0.000297546,0,
00:09.6,0.001247406,0.019735336,0.000320435,0,
00:09.6,0.001304626,0.01974678,0.00030899,0,
00:09.6,0.001276016,0.01974678,0.000303268,0,
00:09.6,0.001276016,0.019741058,0.000303268,0,
00:09.6,0.001270294,0.019741058,0.00030899,0,
00:09.6,0.001264572,0.01974678,0.000320435,0,
00:09.6,0.001264572,0.01974678,0.000314713,0,
00:09.6,0.001264572,0.01974678,0.000320435,0,
00:09.6,0.001253128,0.019741058,0.000326157,0,
00:09.6,0.001270294,0.01974678,0.00030899,0,
00:09.6,0.001270294,0.01974678,0.000297546,0,
00:09.6,0.001253128,0.019741058,0.000303268,0,
00:09.6,0.001247406,0.019741058,0.000326157,0,
00:09.6,0.00125885,0.01974678,0.000326157,0,
00:09.6,0.00125885,0.019741058,0.000326157,0,
00:09.6,0.00125885,0.019741058,0.000314713,0,
00:09.6,0.001264572,0.01974678,0.000326157,0,
00:09.6,0.001235962,0.019735336,0.000326157,0,
00:09.7,0.001253128,0.01974678,0.000331879,0,
00:09.7,0.00125885,0.01974678,0.000343323,0,
00:09.7,0.001264572,0.019735336,0.000320435,0,
00:09.7,0.001264572,0.01974678,0.00030899,0,
00:09.7,0.001253128,0.019741058,0.000326157,0,
00:09.7,0.001241684,0.01974678,0.000331879,0,
00:09.7,0.001264572,0.019752502,0.000337601,0,
00:09.7,0.001270294,0.01974678,0.000337601,0,
00:09.7,0.001253128,0.019741058,0.000326157,0,
00:09.7,0.001253128,0.01974678,0.000331879,0,
00:09.7,0.001247406,0.019741058,0.000343323,0,
00:09.7,0.001264572,0.019741058,0.000343323,0,
00:09.7,0.001247406,0.019741058,0.000337601,0,
00:09.7,0.001235962,0.019741058,0.000326157,0,
00:09.7,0.001235962,0.01974678,0.000354767,0,
00:09.7,0.001253128,0.019752502,0.000337601,0,
00:09.7,0.001253128,0.019741058,0.000331879,0,
00:09.7,0.001247406,0.019741058,0.000349045,0,
00:09.7,0.001253128,0.019752502,0.000349045,0,
00:09.7,0.001247406,0.019741058,0.000343323,0,
00:09.7,0.001247406,0.01974678,0.000354767,0,
00:09.7,0.001253128,0.01974678,0.000354767,0,
00:09.7,0.001235962,0.019735336,0.000349045,0,
00:09.7,0.001218796,0.019735336,0.000360489,0,
00:09.7,0.001241684,0.019741058,0.000349045,0,
00:09.8,0.00123024,0.019752502,0.000360489,0,
00:09.8,0.00123024,0.019741058,0.000366211,0,
00:09.8,0.001253128,0.01974678,0.000371933,0,
00:09.8,0.001264572,0.019752502,0.000360489,0,
00:09.8,0.001270294,0.019758224,0.000360489,0,
00:09.8,0.001241684,0.01974678,0.000360489,0,
00:09.8,0.001253128,0.019752502,0.000343323,0,
00:09.8,0.00125885,0.019752502,0.000360489,0,
00:09.8,0.001247406,0.01974678,0.000360489,0,
00:09.8,0.001235962,0.01974678,0.000354767,0,
00:09.8,0.001218796,0.019741058,0.000360489,0,
00:09.8,0.001241684,0.01974678,0.000383377,0,
00:09.8,0.001247406,0.019741058,0.000377655,0,
00:09.8,0.001247406,0.019741058,0.000349045,0,
00:09.8,0.001247406,0.01974678,0.000383377,0,
00:09.8,0.00125885,0.019758224,0.000383377,0,
00:09.8,0.001253128,0.01974678,0.000377655,0,
00:09.8,0.001241684,0.01974678,0.000389099,0,
00:09.8,0.001247406,0.01974678,0.000383377,0,
00:09.8,0.001235962,0.019752502,0.000400543,0,
00:09.8,0.001218796,0.019758224,0.000389099,0,
00:09.8,0.001247406,0.01974678,0.000389099,0,
00:09.8,0.001241684,0.019741058,0.000377655,0,
00:09.8,0.001247406,0.019752502,0.000377655,0,
00:09.8,0.001241684,0.019758224,0.000383377,0,
00:09.9,0.001241684,0.019752502,0.000377655,0,
00:09.9,0.001224518,0.01974678,0.000383377,0,
00:09.9,0.001241684,0.01974678,0.000400543,0,
00:09.9,0.001235962,0.01974678,0.000394821,0,
00:09.9,0.001241684,0.01974678,0.000400543,0,
00:09.9,0.001253128,0.019752502,0.000400543,0,
00:09.9,0.001247406,0.019758224,0.000406265,0,
00:09.9,0.00123024,0.01974678,0.000389099,0,
00:09.9,0.001241684,0.019752502,0.000400543,0,
00:09.9,0.001253128,0.019752502,0.000406265,0,
00:09.9,0.001247406,0.019752502,0.000400543,0,
00:09.9,0.001253128,0.019758224,0.000406265,0,
00:09.9,0.001241684,0.019752502,0.000400543,0,
00:09.9,0.001224518,0.019752502,0.000394821,0,
00:09.9,0.001247406,0.019752502,0.000406265,0,
00:09.9,0.001253128,0.019752502,0.000400543,0,
00:09.9,0.001247406,0.01974678,0.000406265,0,
00:09.9,0.001235962,0.019752502,0.000400543,0,
00:09.9,0.001241684,0.019758224,0.000400543,0,
00:09.9,0.001241684,0.019758224,0.000394821,0,
00:09.9,0.001247406,0.019763947,0.000406265,0,
00:09.9,0.001235962,0.01974678,0.000394821,0,
00:09.9,0.00123024,0.01974678,0.000417709,0,
00:09.9,0.001247406,0.019758224,0.000423431,0,
00:09.9,0.001235962,0.019752502,0.000417709,0,
00:10.0,0.00123024,0.019752502,0.000417709,0,
00:10.0,0.001218796,0.01974678,0.000400543,0,
00:10.0,0.001207352,0.019741058,0.000400543,0,
00:10.0,0.00125885,0.019752502,0.000417709,0,
00:10.0,0.00125885,0.019758224,0.000417709,0,
00:10.0,0.00125885,0.019763947,0.000423431,0,
00:10.0,0.00123024,0.01974678,0.000429153,0,
00:10.0,0.001253128,0.019752502,0.000417709,0,
00:10.0,0.001241684,0.019758224,0.000417709,0,
00:10.0,0.001241684,0.019758224,0.000429153,0,
00:10.0,0.001235962,0.019752502,0.000423431,0,
00:10.0,0.001235962,0.019741058,0.000411987,0,
00:00:10,0.001253128,0.019752502,0.000417709,0,
00:10.0,0.001247406,0.019763947,0.000411987,0,
00:10.0,0.001241684,0.019752502,0.000423431,0,
00:10.0,0.001235962,0.019758224,0.000411987,0,
00:10.0,0.001241684,0.019763947,0.000406265,0,
00:10.0,0.001235962,0.019752502,0.000423431,0,
00:10.0,0.001224518,0.019752502,0.000434875,0,
00:10.0,0.001235962,0.019758224,0.000423431,0,
00:10.0,0.001235962,0.019752502,0.000423431,0,
00:10.0,0.001247406,0.019752502,0.000429153,0,
00:10.0,0.001247406,0.019763947,0.000429153,0,
00:10.0,0.001241684,0.019763947,0.000417709,0,
00:10.0,0.001235962,0.019763947,0.000423431,0,
00:10.1,0.001235962,0.019752502,0.000423431,0,
00:10.1,0.001235962,0.019752502,0.000434875,0,
00:10.1,0.00123024,0.019752502,0.00044632,0,
00:10.1,0.001218796,0.019758224,0.000440598,0,
00:10.1,0.001235962,0.019758224,0.000423431,0,
00:10.1,0.001218796,0.019758224,0.000440598,0,
00:10.1,0.001241684,0.019758224,0.00044632,0,
00:10.1,0.001247406,0.019758224,0.00044632,0,
00:10.1,0.00123024,0.019758224,0.000434875,0,
00:10.1,0.001241684,0.019758224,0.000434875,0,
00:10.1,0.001224518,0.019763947,0.00044632,0,
00:10.1,0.001235962,0.019763947,0.00044632,0,
00:10.1,0.001224518,0.019752502,0.00044632,0,
00:10.1,0.001218796,0.019763947,0.00044632,0,
00:10.1,0.001224518,0.019769669,0.000452042,0,
00:10.1,0.001247406,0.019769669,0.000440598,0,
00:10.1,0.00123024,0.019758224,0.000434875,0,
00:10.1,0.00123024,0.019758224,0.00044632,0,
00:10.1,0.001241684,0.019763947,0.00044632,0,
00:10.1,0.001235962,0.019763947,0.000452042,0,
00:10.1,0.001224518,0.019763947,0.000440598,0,
00:10.1,0.00123024,0.019758224,0.000429153,0,
00:10.1,0.001253128,0.019763947,0.00044632,0,
00:10.1,0.001241684,0.019763947,0.000457764,0,
00:10.1,0.00123024,0.019763947,0.000457764,0,
00:10.2,0.00123024,0.019763947,0.000463486,0,
00:10.2,0.00123024,0.019758224,0.000463486,0,
00:10.2,0.00123024,0.019758224,0.000457764,0,
00:10.2,0.001241684,0.019758224,0.000457764,0,
00:10.2,0.001218796,0.019752502,0.000463486,0,
00:10.2,0.001224518,0.019763947,0.000463486,0,
00:10.2,0.00123024,0.019763947,0.000457764,0,
00:10.2,0.001218796,0.019758224,0.000452042,0,
00:10.2,0.001218796,0.019758224,0.000463486,0,
00:10.2,0.001235962,0.019769669,0.000469208,0,
00:10.2,0.001241684,0.019758224,0.000457764,0,
00:10.2,0.001247406,0.019763947,0.000452042,0,
00:10.2,0.001241684,0.019763947,0.000457764,0,
00:10.2,0.001247406,0.019769669,0.00044632,0,
00:10.2,0.001235962,0.019769669,0.000452042,0,
00:10.2,0.001224518,0.019763947,0.00044632,0,
00:10.2,0.001241684,0.019763947,0.000452042,0,
00:10.2,0.00123024,0.019758224,0.000463486,0,
00:10.2,0.001224518,0.019763947,0.000457764,0,
00:10.2,0.00123024,0.019763947,0.000463486,0,
00:10.2,0.00123024,0.019758224,0.000463486,0,
00:10.2,0.001213074,0.019752502,0.000469208,0,
00:10.2,0.00123024,0.019763947,0.000463486,0,
00:10.2,0.001235962,0.019769669,0.000452042,0,
00:10.2,0.00123024,0.019763947,0.00044632,0,
00:10.3,0.001235962,0.019769669,0.000434875,0,
00:10.3,0.00123024,0.019763947,0.000463486,0,
00:10.3,0.001235962,0.019763947,0.000486374,0,
00:10.3,0.001235962,0.019769669,0.000463486,0,
00:10.3,0.001213074,0.019763947,0.000452042,0,
00:10.3,0.00123024,0.019763947,0.000457764,0,
00:10.3,0.001207352,0.019758224,0.000463486,0,
00:10.3,0.001218796,0.019763947,0.000463486,0,
00:10.3,0.001241684,0.019769669,0.000452042,0,
00:10.3,0.001224518,0.019763947,0.000452042,0,
00:10.3,0.001218796,0.019763947,0.000452042,0,
00:10.3,0.00125885,0.019769669,0.00044632,0,
00:10.3,0.001235962,0.019763947,0.00044632,0,
00:10.3,0.00123024,0.019769669,0.000452042,0,
00:10.3,0.001235962,0.019769669,0.000463486,0,
00:10.3,0.001241684,0.019769669,0.000452042,0,
00:10.3,0.001241684,0.019769669,0.000452042,0,
00:10.3,0.001224518,0.019769669,0.000452042,0,
00:10.3,0.001224518,0.019769669,0.000452042,0,
00:10.3,0.001235962,0.019769669,0.00044632,0,
00:10.3,0.00123024,0.019769669,0.000440598,0,
00:10.3,0.001235962,0.019769669,0.00044632,0,
00:10.3,0.001235962,0.019775391,0.00044632,0,
00:10.3,0.001224518,0.019769669,0.000452042,0,
00:10.3,0.001224518,0.019769669,0.000440598,0,
00:10.4,0.001241684,0.019775391,0.000457764,0,
00:10.4,0.001241684,0.019769669,0.000469208,0,
00:10.4,0.001218796,0.019763947,0.000469208,0,
00:10.4,0.001224518,0.019775391,0.00044632,0,
00:10.4,0.001224518,0.019775391,0.000452042,0,
00:10.4,0.00123024,0.019775391,0.000463486,0,
00:10.4,0.00123024,0.019775391,0.000457764,0,
00:10.4,0.001218796,0.019769669,0.000440598,0,
00:10.4,0.001207352,0.019769669,0.00044632,0,
00:10.4,0.001218796,0.019769669,0.000452042,0,
00:10.4,0.001173019,0.019769669,0.00044632,0,
00:10.4,0.001247406,0.019769669,0.00044632,0,
00:10.4,0.001270294,0.019769669,0.000463486,0,
00:10.4,0.001247406,0.019781113,0.00044632,0,
00:10.4,0.001235962,0.019781113,0.00044632,0,
00:10.4,0.001224518,0.019769669,0.000440598,0,
00:10.4,0.001224518,0.019769669,0.000440598,0,
00:10.4,0.001235962,0.019775391,0.000440598,0,
00:10.4,0.001235962,0.019786835,0.000434875,0,
00:10.4,0.001235962,0.019775391,0.000452042,0,
00:10.4,0.00123024,0.019769669,0.000452042,0,
00:10.4,0.00123024,0.019775391,0.000440598,0,
00:10.4,0.001235962,0.019775391,0.00044632,0,
00:10.4,0.001241684,0.019775391,0.00044632,0,
00:10.4,0.001224518,0.019781113,0.000452042,0,
00:10.5,0.001213074,0.019781113,0.000452042,0,
00:10.5,0.001218796,0.019769669,0.000452042,0,
00:10.5,0.001213074,0.019769669,0.000452042,0,
00:10.5,0.001224518,0.019775391,0.000457764,0,
00:10.5,0.001241684,0.019775391,0.000452042,0,
00:10.5,0.00123024,0.019775391,0.000434875,0,
00:10.5,0.001218796,0.019769669,0.000440598,0,
00:10.5,0.00123024,0.019775391,0.000463486,0,
00:10.5,0.00120163,0.019775391,0.00044632,0,
00:10.5,0.00120163,0.019781113,0.000429153,0,
00:10.5,0.001241684,0.019775391,0.000457764,0,
00:10.5,0.001241684,0.019775391,0.00044632,0,
00:10.5,0.001224518,0.019775391,0.000452042,0,
00:10.5,0.001247406,0.019781113,0.000440598,0,
00:10.5,0.00123024,0.019786835,0.00044632,0,
