Elapsed_Time,EMG1,EMG2,EMG3,BioRadio Event,Unnamed: 5
00:00:00,0.001029968,0.016593933,0.001499176,0,
00:00.0,0.001012802,0.016599655,0.001504898,0,
00:00.0,0.001029968,0.016628265,0.001493454,0,
00:00.0,0.001018524,0.016622543,0.001499176,0,
00:00.0,0.001029968,0.016605377,0.001504898,0,
00:00.0,0.001047134,0.016622543,0.001516342,0,
00:00.0,0.001029968,0.016622543,0.001522064,0,
00:00.0,0.00100708,0.016588211,0.001522064,0,
00:00.0,0.001024246,0.016582489,0.001527786,0,
00:00.0,0.001041412,0.016611099,0.00151062,0,
00:00.0,0.001018524,0.016605377,0.001504898,0,
00:00.0,0.001001358,0.016593933,0.001522064,0,
00:00.0,0.001001358,0.016593933,0.001522064,0,
00:00.1,0.001012802,0.016605377,0.001522064,0,
00:00.1,0.001024246,0.016599655,0.001516342,0,
00:00.1,0.001029968,0.016599655,0.001504898,0,
00:00.1,0.001029968,0.016593933,0.001522064,0,
00:00.1,0.001029968,0.016605377,0.001516342,0,
00:00.1,0.001018524,0.016622543,0.001499176,0,
00:00.1,0.001012802,0.016645432,0.001499176,0,
00:00.1,0.001001358,0.016588211,0.00151062,0,
00:00.1,0.001018524,0.016582489,0.001516342,0,
00:00.1,0.001047134,0.016605377,0.001516342,0,
00:00.1,0.001047134,0.016651154,0.001522064,0,
00:00.1,0.001047134,0.016633987,0.001493454,0,
00:00.1,0.001012802,0.016565323,0.001522064,0,
00:00.1,0.00100708,0.016593933,0.001522064,0,
00:00.1,0.001018524,0.016599655,0.001516342,0,
00:00.1,0.00103569,0.016611099,0.001504898,0,
00:00.1,0.001018524,0.016611099,0.001516342,0,
00:00.1,0.001018524,0.016605377,0.001504898,0,
00:00.1,0.001024246,0.016605377,0.001522064,0,
00:00.1,0.001029968,0.016616821,0.001504898,0,
00:00.1,0.001024246,0.016605377,0.001504898,0,
00:00.1,0.001029968,0.016616821,0.001522064,0,
00:00.1,0.001029968,0.016622543,0.001516342,0,
00:00.1,0.001012802,0.016616821,0.00151062,0,
00:00.1,0.001001358,0.016582489,0.00151062,0,
00:00.2,0.001029968,0.016605377,0.001516342,0,
00:00.2,0.00103569,0.016616821,0.001522064,0,
00:00.2,0.001029968,0.016611099,0.001522064,0,
00:00.2,0.00103569,0.01666832,0.001493454,0,
00:00.2,0.000995636,0.016593933,0.00151062,0,
00:00.2,0.00100708,0.016582489,0.001544952,0,
00:00.2,0.00103569,0.016611099,0.001516342,0,
00:00.2,0.001041412,0.016611099,0.00151062,0,
00:00.2,0.001029968,0.016605377,0.001516342,0,
00:00.2,0.001029968,0.016628265,0.00151062,0,
00:00.2,0.001012802,0.016622543,0.001504898,0,
00:00.2,0.000995636,0.016616821,0.001516342,0,
00:00.2,0.001029968,0.016633987,0.00151062,0,
00:00.2,0.00103569,0.016611099,0.001516342,0,
00:00.2,0.001024246,0.016599655,0.001522064,0,
00:00.2,0.001012802,0.016599655,0.001522064,0,
00:00.2,0.001012802,0.016622543,0.001516342,0,
00:00.2,0.001029968,0.016639709,0.001516342,0,
00:00.2,0.001024246,0.016611099,0.001504898,0,
00:00.2,0.00100708,0.016588211,0.001522064,0,
00:00.2,0.001001358,0.016605377,0.001522064,0,
00:00.2,0.001012802,0.016645432,0.00151062,0,
00:00.2,0.001047134,0.016639709,0.001493454,0,
00:00.2,0.001029968,0.016599655,0.001527786,0,
00:00.2,0.001041412,0.016622543,0.001516342,0,
00:00.3,0.001041412,0.016622543,0.00151062,0,
00:00.3,0.001047134,0.016605377,0.00151062,0,
00:00.3,0.001024246,0.016599655,0.001522064,0,
00:00.3,0.001024246,0.016616821,0.001516342,0,
00:00.3,0.001018524,0.016622543,0.001504898,0,
00:00.3,0.001029968,0.016628265,0.001522064,0,
00:00.3,0.001052856,0.016651154,0.001522064,0,
00:00.3,0.00103569,0.016616821,0.001516342,0,
00:00.3,0.001018524,0.016605377,0.001516342,0,
00:00.3,0.001018524,0.016622543,0.001504898,0,
00:00.3,0.001018524,0.016633987,0.001504898,0,
00:00.3,0.001018524,0.016599655,0.001527786,0,
00:00.3,0.00103569,0.016616821,0.001522064,0,
00:00.3,0.00103569,0.016639709,0.001516342,0,
00:00.3,0.001041412,0.016628265,0.001527786,0,
00:00.3,0.001024246,0.016605377,0.001522064,0,
00:00.3,0.001024246,0.016628265,0.00151062,0,
00:00.3,0.001041412,0.01666832,0.00151062,0,
00:00.3,0.001029968,0.016599655,0.00151062,0,
00:00.3,0.001024246,0.016599655,0.001522064,0,
00:00.3,0.001047134,0.016662598,0.00151062,0,
00:00.3,0.001029968,0.016622543,0.00151062,0,
00:00.3,0.000995636,0.016588211,0.00153923,0,
00:00.3,0.001001358,0.016588211,0.00153923,0,
00:00.3,0.00103569,0.016616821,0.00151062,0,
00:00.4,0.001052856,0.016645432,0.00151062,0,
00:00.4,0.001058578,0.016633987,0.001504898,0,
00:00.4,0.001075745,0.016633987,0.001499176,0,
00:00.4,0.001075745,0.016639709,0.00151062,0,
00:00.4,0.001070023,0.016628265,0.001516342,0,
00:00.4,0.001052856,0.016616821,0.001527786,0,
00:00.4,0.001047134,0.016628265,0.001522064,0,
00:00.4,0.001070023,0.01666832,0.001516342,0,
00:00.4,0.001047134,0.016599655,0.001522064,0,
00:00.4,0.001041412,0.016593933,0.001516342,0,
00:00.4,0.001058578,0.016611099,0.00151062,0,
00:00.4,0.001058578,0.016628265,0.001504898,0,
00:00.4,0.001064301,0.016645432,0.00151062,0,
00:00.4,0.001064301,0.016633987,0.001522064,0,
00:00.4,0.001052856,0.016611099,0.001522064,0,
00:00.4,0.001058578,0.016605377,0.001516342,0,
00:00.4,0.001064301,0.016616821,0.001516342,0,
00:00.4,0.001052856,0.016628265,0.001522064,0,
00:00.4,0.001052856,0.016639709,0.00151062,0,
00:00.4,0.001058578,0.016639709,0.001516342,0,
00:00.4,0.001064301,0.016622543,0.00151062,0,
00:00.4,0.001070023,0.016622543,0.001516342,0,
00:00.4,0.001070023,0.016651154,0.001516342,0,
00:00.4,0.001075745,0.01666832,0.001516342,0,
00:00.4,0.001052856,0.016622543,0.001516342,0,
00:00.5,0.001029968,0.016605377,0.001516342,0,
00:00.5,0.001029968,0.016628265,0.001527786,0,
00:00.5,0.001047134,0.016622543,0.001516342,0,
00:00.5,0.001081467,0.016639709,0.001516342,0,
00:00.5,0.001087189,0.016662598,0.001522064,0,
00:00.5,0.001064301,0.016639709,0.00151062,0,
00:00.5,0.001058578,0.016611099,0.00151062,0,
00:00.5,0.001070023,0.016622543,0.001499176,0,
00:00.5,0.001064301,0.016645432,0.001516342,0,
00:00.5,0.001064301,0.016651154,0.00151062,0,
00:00.5,0.001041412,0.016616821,0.001504898,0,
00:00.5,0.001029968,0.016611099,0.001533508,0,
00:00.5,0.00103569,0.016633987,0.00153923,0,
00:00.5,0.001047134,0.016656876,0.00151062,0,
00:00.5,0.001081467,0.016639709,0.001499176,0,
00:00.5,0.001064301,0.016633987,0.00151062,0,
00:00.5,0.001058578,0.016628265,0.00151062,0,
00:00.5,0.001081467,0.016656876,0.001516342,0,
00:00.5,0.001087189,0.01666832,0.001504898,0,
00:00.5,0.00103569,0.016605377,0.001522064,0,
00:00.5,0.001047134,0.016645432,0.001516342,0,
00:00.5,0.001041412,0.016628265,0.001516342,0,
00:00.5,0.001047134,0.016633987,0.001527786,0,
00:00.5,0.001064301,0.016639709,0.001527786,0,
00:00.5,0.001087189,0.016645432,0.001504898,0,
00:00.6,0.001087189,0.016662598,0.001504898,0,
00:00.6,0.001075745,0.016651154,0.001504898,0,
00:00.6,0.00103569,0.016622543,0.001504898,0,
00:00.6,0.001024246,0.016633987,0.00151062,0,
00:00.6,0.001047134,0.016633987,0.001527786,0,
00:00.6,0.001081467,0.016639709,0.00151062,0,
00:00.6,0.001081467,0.016651154,0.001522064,0,
00:00.6,0.001075745,0.016651154,0.001522064,0,
00:00.6,0.001070023,0.016645432,0.001504898,0,
00:00.6,0.001064301,0.016651154,0.001504898,0,
00:00.6,0.001058578,0.016639709,0.00151062,0,
00:00.6,0.001070023,0.016639709,0.001522064,0,
00:00.6,0.001058578,0.016633987,0.001516342,0,
00:00.6,0.001047134,0.016633987,0.001516342,0,
00:00.6,0.001070023,0.016645432,0.001516342,0,
00:00.6,0.001075745,0.016662598,0.001516342,0,
00:00.6,0.001058578,0.016656876,0.001493454,0,
00:00.6,0.001041412,0.016645432,0.001499176,0,
00:00.6,0.001064301,0.016651154,0.00151062,0,
00:00.6,0.001064301,0.016639709,0.001499176,0,
00:00.6,0.001070023,0.016633987,0.00151062,0,
00:00.6,0.001058578,0.016639709,0.001504898,0,
00:00.6,0.001070023,0.016645432,0.001516342,0,
00:00.6,0.001075745,0.01666832,0.001522064,0,
00:00.6,0.001070023,0.016662598,0.001522064,0,
00:00.7,0.001075745,0.016656876,0.00151062,0,
00:00.7,0.001075745,0.016662598,0.001499176,0,
00:00.7,0.001058578,0.01666832,0.001504898,0,
00:00.7,0.001047134,0.016656876,0.001504898,0,
00:00.7,0.001064301,0.016628265,0.00151062,0,
00:00.7,0.001087189,0.016645432,0.00151062,0,
00:00.7,0.001058578,0.016645432,0.00151062,0,
00:00.7,0.001070023,0.016656876,0.001504898,0,
00:00.7,0.001070023,0.016656876,0.001504898,0,
00:00.7,0.001064301,0.016645432,0.001504898,0,
00:00.7,0.001070023,0.016662598,0.00151062,0,
00:00.7,0.001070023,0.016639709,0.001516342,0,
00:00.7,0.001070023,0.016645432,0.00151062,0,
00:00.7,0.001075745,0.01666832,0.001493454,0,
00:00.7,0.001052856,0.016651154,0.001504898,0,
00:00.7,0.001058578,0.016639709,0.001499176,0,
00:00.7,0.001041412,0.016639709,0.00151062,0,
00:00.7,0.001087189,0.016674042,0.001499176,0,
00:00.7,0.001087189,0.01666832,0.001487732,0,
00:00.7,0.001064301,0.016639709,0.001504898,0,
00:00.7,0.001070023,0.016656876,0.00151062,0,
00:00.7,0.001064301,0.016639709,0.001522064,0,
00:00.7,0.001064301,0.016662598,0.001499176,0,
00:00.7,0.001075745,0.01666832,0.001499176,0,
00:00.7,0.001052856,0.01666832,0.001499176,0,
00:00.8,0.001087189,0.016674042,0.00151062,0,
00:00.8,0.001058578,0.016639709,0.001493454,0,
00:00.8,0.001070023,0.016651154,0.001504898,0,
00:00.8,0.001092911,0.016674042,0.001487732,0,
00:00.8,0.001058578,0.016651154,0.001493454,0,
00:00.8,0.001047134,0.016662598,0.001499176,0,
00:00.8,0.001024246,0.016633987,0.00151062,0,
00:00.8,0.001064301,0.016645432,0.001516342,0,
00:00.8,0.001087189,0.016662598,0.001516342,0,
00:00.8,0.001098633,0.016679764,0.001499176,0,
00:00.8,0.001087189,0.016679764,0.001487732,0,
00:00.8,0.001052856,0.016656876,0.001493454,0,
00:00.8,0.001058578,0.016645432,0.001504898,0,
00:00.8,0.001064301,0.016662598,0.00151062,0,
00:00.8,0.001075745,0.016674042,0.00151062,0,
00:00.8,0.001075745,0.016651154,0.001504898,0,
00:00.8,0.001087189,0.016662598,0.001499176,0,
00:00.8,0.001075745,0.016679764,0.001493454,0,
00:00.8,0.001052856,0.016651154,0.001499176,0,
00:00.8,0.001058578,0.016674042,0.001493454,0,
00:00.8,0.001070023,0.016679764,0.00151062,0,
00:00.8,0.001081467,0.016674042,0.001487732,0,
00:00.8,0.001087189,0.016651154,0.001499176,0,
00:00.8,0.001058578,0.016645432,0.001522064,0,
00:00.8,0.001041412,0.016651154,0.001522064,0,
00:00.9,0.001041412,0.016662598,0.001499176,0,
00:00.9,0.001081467,0.01666832,0.00151062,0,
00:00.9,0.001098633,0.016691208,0.001504898,0,
00:00.9,0.001081467,0.016691208,0.001493454,0,
00:00.9,0.001081467,0.01669693,0.001499176,0,
00:00.9,0.001052856,0.016651154,0.00148201,0,
00:00.9,0.001047134,0.016645432,0.001487732,0,
00:00.9,0.001047134,0.016662598,0.001499176,0,
00:00.9,0.001064301,0.016679764,0.001516342,0,
00:00.9,0.001081467,0.016685486,0.001504898,0,
00:00.9,0.001087189,0.016674042,0.001499176,0,
00:00.9,0.001087189,0.01666832,0.00151062,0,
00:00.9,0.001058578,0.01666832,0.001499176,0,
00:00.9,0.00103569,0.016674042,0.001516342,0,
00:00.9,0.001087189,0.016679764,0.00151062,0,
00:00.9,0.001087189,0.016662598,0.001504898,0,
00:00.9,0.001081467,0.016679764,0.001504898,0,
00:00.9,0.001087189,0.016691208,0.00151062,0,
00:00.9,0.001098633,0.016708374,0.001499176,0,
00:00.9,0.001064301,0.016674042,0.001476288,0,
00:00.9,0.001047134,0.016656876,0.001504898,0,
00:00.9,0.001075745,0.01666832,0.001522064,0,
00:00.9,0.001081467,0.016679764,0.00151062,0,
00:00.9,0.001087189,0.016702652,0.001499176,0,
00:00.9,0.001047134,0.016674042,0.00151062,0,
00:01.0,0.00103569,0.016656876,0.001516342,0,
00:01.0,0.001064301,0.01666832,0.00151062,0,
00:01.0,0.001087189,0.016685486,0.001504898,0,
00:01.0,0.001098633,0.01672554,0.001499176,0,
00:01.0,0.001047134,0.01666832,0.001493454,0,
00:01.0,0.001052856,0.016645432,0.001516342,0,
00:01.0,0.001092911,0.016674042,0.001504898,0,
00:01.0,0.001092911,0.016685486,0.00151062,0,
00:01.0,0.001064301,0.016685486,0.001499176,0,
00:01.0,0.001070023,0.016691208,0.001493454,0,
00:01.0,0.001081467,0.016691208,0.001493454,0,
00:01.0,0.001075745,0.016679764,0.001493454,0,
00:00:01,0.001058578,0.016656876,0.001493454,0,
00:01.0,0.001052856,0.016674042,0.001504898,0,
00:01.0,0.001052856,0.016685486,0.001504898,0,
00:01.0,0.001070023,0.016702652,0.001504898,0,
00:01.0,0.001075745,0.016691208,0.00151062,0,
00:01.0,0.001087189,0.016685486,0.001493454,0,
00:01.0,0.001087189,0.016679764,0.001499176,0,
00:01.0,0.001081467,0.016691208,0.001499176,0,
00:01.0,0.001104355,0.01669693,0.001499176,0,
00:01.0,0.001092911,0.016685486,0.001499176,0,
00:01.0,0.001075745,0.016685486,0.001493454,0,
00:01.0,0.001064301,0.016702652,0.001499176,0,
00:01.0,0.001064301,0.016679764,0.001499176,0,
00:01.1,0.001087189,0.016685486,0.001493454,0,
00:01.1,0.001081467,0.016714096,0.001499176,0,
00:01.1,0.001070023,0.016685486,0.00151062,0,
00:01.1,0.001070023,0.016679764,0.001499176,0,
00:01.1,0.001075745,0.016674042,0.001504898,0,
00:01.1,0.001064301,0.016674042,0.00151062,0,
00:01.1,0.001047134,0.01666832,0.001493454,0,
00:01.1,0.001087189,0.016714096,0.001487732,0,
00:01.1,0.001081467,0.01669693,0.001476288,0,
00:01.1,0.001075745,0.016679764,0.00151062,0,
00:01.1,0.001075745,0.016674042,0.00151062,0,
00:01.1,0.001081467,0.016691208,0.001516342,0,
00:01.1,0.001081467,0.016702652,0.001504898,0,
00:01.1,0.001081467,0.016702652,0.001504898,0,
00:01.1,0.001081467,0.01669693,0.001493454,0,
00:01.1,0.001064301,0.016679764,0.00151062,0,
00:01.1,0.001064301,0.01669693,0.001527786,0,
00:01.1,0.001075745,0.016719818,0.001493454,0,
00:01.1,0.001087189,0.01669693,0.001504898,0,
00:01.1,0.001092911,0.01669693,0.001499176,0,
00:01.1,0.001075745,0.016674042,0.001504898,0,
00:01.1,0.001075745,0.016679764,0.001504898,0,
00:01.1,0.001087189,0.01669693,0.001499176,0,
00:01.1,0.001087189,0.016691208,0.001499176,0,
00:01.1,0.001087189,0.01669693,0.001499176,0,
00:01.2,0.001092911,0.016702652,0.001493454,0,
00:01.2,0.001070023,0.016702652,0.00151062,0,
00:01.2,0.00103569,0.016702652,0.001516342,0,
00:01.2,0.001047134,0.016691208,0.00151062,0,
00:01.2,0.001110077,0.016708374,0.001493454,0,
00:01.2,0.001121521,0.016708374,0.001487732,0,
00:01.2,0.001087189,0.016702652,0.001504898,0,
00:01.2,0.00103569,0.016691208,0.001499176,0,
00:01.2,0.001070023,0.016714096,0.001499176,0,
00:01.2,0.001098633,0.016691208,0.001493454,0,
00:01.2,0.001098633,0.016685486,0.001499176,0,
00:01.2,0.001087189,0.016708374,0.001504898,0,
00:01.2,0.001098633,0.016736984,0.001499176,0,
00:01.2,0.001081467,0.016708374,0.001499176,0,
00:01.2,0.001075745,0.016691208,0.001499176,0,
00:01.2,0.001075745,0.01669693,0.00151062,0,
00:01.2,0.001081467,0.01669693,0.001504898,0,
00:01.2,0.001087189,0.016714096,0.001504898,0,
00:01.2,0.001081467,0.016708374,0.001499176,0,
00:01.2,0.001087189,0.01669693,0.001499176,0,
00:01.2,0.001092911,0.01669693,0.001499176,0,
00:01.2,0.001081467,0.016702652,0.001504898,0,
00:01.2,0.001087189,0.016708374,0.001504898,0,
00:01.2,0.001075745,0.016708374,0.001493454,0,
00:01.2,0.001070023,0.01672554,0.001493454,0,
00:01.3,0.001070023,0.016731262,0.001487732,0,
00:01.3,0.001092911,0.016691208,0.001504898,0,
00:01.3,0.001064301,0.016691208,0.001522064,0,
00:01.3,0.001064301,0.016714096,0.001499176,0,
00:01.3,0.001098633,0.01669693,0.001499176,0,
00:01.3,0.001104355,0.01669693,0.001499176,0,
00:01.3,0.001104355,0.016714096,0.001487732,0,
00:01.3,0.001098633,0.01672554,0.001493454,0,
00:01.3,0.001075745,0.016719818,0.001487732,0,
00:01.3,0.001098633,0.016736984,0.001493454,0,
00:01.3,0.001058578,0.016674042,0.00151062,0,
00:01.3,0.001047134,0.01666832,0.001522064,0,
00:01.3,0.001110077,0.016702652,0.001493454,0,
00:01.3,0.001081467,0.016702652,0.001493454,0,
00:01.3,0.001052856,0.016714096,0.001493454,0,
00:01.3,0.001081467,0.01672554,0.001487732,0,
00:01.3,0.001121521,0.016714096,0.001493454,0,
00:01.3,0.001092911,0.016714096,0.001493454,0,
00:01.3,0.001087189,0.016708374,0.001504898,0,
00:01.3,0.001098633,0.016719818,0.001499176,0,
00:01.3,0.001104355,0.016708374,0.001493454,0,
00:01.3,0.001098633,0.016702652,0.001499176,0,
00:01.3,0.001087189,0.016719818,0.001499176,0,
00:01.3,0.001092911,0.016719818,0.001504898,0,
00:01.3,0.001092911,0.016702652,0.001504898,0,
00:01.4,0.001087189,0.016702652,0.001504898,0,
00:01.4,0.001110077,0.016731262,0.001499176,0,
00:01.4,0.001081467,0.016708374,0.001504898,0,
00:01.4,0.001058578,0.016708374,0.001499176,0,
00:01.4,0.001081467,0.016714096,0.001493454,0,
00:01.4,0.001092911,0.016719818,0.001493454,0,
00:01.4,0.001110077,0.01672554,0.001493454,0,
00:01.4,0.001098633,0.016748428,0.001476288,0,
00:01.4,0.001058578,0.016714096,0.00148201,0,
00:01.4,0.001070023,0.01669693,0.001516342,0,
00:01.4,0.001075745,0.01669693,0.001516342,0,
00:01.4,0.001092911,0.016708374,0.00151062,0,
00:01.4,0.001092911,0.01672554,0.001499176,0,
00:01.4,0.001115799,0.016742706,0.001499176,0,
00:01.4,0.001104355,0.016719818,0.001499176,0,
00:01.4,0.001075745,0.016702652,0.001504898,0,
00:01.4,0.001075745,0.016714096,0.001493454,0,
00:01.4,0.001115799,0.016748428,0.001487732,0,
00:01.4,0.001087189,0.016742706,0.00148201,0,
00:01.4,0.001092911,0.016708374,0.001522064,0,
00:01.4,0.001110077,0.016719818,0.001504898,0,
00:01.4,0.001081467,0.016702652,0.001499176,0,
00:01.4,0.001092911,0.016719818,0.001504898,0,
00:01.4,0.001092911,0.016736984,0.001493454,0,
00:01.4,0.001087189,0.01672554,0.001487732,0,
00:01.5,0.001081467,0.016714096,0.001487732,0,
00:01.5,0.001064301,0.016714096,0.001499176,0,
00:01.5,0.001092911,0.016719818,0.001499176,0,
00:01.5,0.001104355,0.016742706,0.001499176,0,
00:01.5,0.001104355,0.016736984,0.001499176,0,
00:01.5,0.001087189,0.01669693,0.001493454,0,
00:01.5,0.001081467,0.016691208,0.001499176,0,
00:01.5,0.001064301,0.016708374,0.001499176,0,
00:01.5,0.001092911,0.016742706,0.001487732,0,
00:01.5,0.001104355,0.016736984,0.001493454,0,
00:01.5,0.001104355,0.01672554,0.001499176,0,
00:01.5,0.001104355,0.016731262,0.001499176,0,
00:01.5,0.001104355,0.016748428,0.001493454,0,
00:01.5,0.001092911,0.016748428,0.001487732,0,
00:01.5,0.001070023,0.01672554,0.001493454,0,
00:01.5,0.001070023,0.01672554,0.001499176,0,
00:01.5,0.001075745,0.016731262,0.00151062,0,
00:01.5,0.001104355,0.016736984,0.001504898,0,
00:01.5,0.001104355,0.016742706,0.001493454,0,
00:01.5,0.001087189,0.016742706,0.001487732,0,
00:01.5,0.001064301,0.016691208,0.001499176,0,
00:01.5,0.001064301,0.016708374,0.001516342,0,
00:01.5,0.001098633,0.016731262,0.001516342,0,
00:01.5,0.001110077,0.016742706,0.001499176,0,
00:01.5,0.001104355,0.016742706,0.00151062,0,
00:01.6,0.001087189,0.016731262,0.001504898,0,
00:01.6,0.001075745,0.016714096,0.001499176,0,
00:01.6,0.001087189,0.01672554,0.001504898,0,
00:01.6,0.001092911,0.016748428,0.001504898,0,
00:01.6,0.001087189,0.016736984,0.001499176,0,
00:01.6,0.001058578,0.016714096,0.001516342,0,
00:01.6,0.001041412,0.016708374,0.001522064,0,
00:01.6,0.001092911,0.016731262,0.001504898,0,
00:01.6,0.001110077,0.016765594,0.001493454,0,
00:01.6,0.001092911,0.016742706,0.001487732,0,
00:01.6,0.001087189,0.01672554,0.00151062,0,
00:01.6,0.001092911,0.016736984,0.001522064,0,
00:01.6,0.001092911,0.016736984,0.00151062,0,
00:01.6,0.001110077,0.016748428,0.001499176,0,
00:01.6,0.001104355,0.01675415,0.001493454,0,
00:01.6,0.001092911,0.016714096,0.00151062,0,
00:01.6,0.001098633,0.016742706,0.001499176,0,
00:01.6,0.001098633,0.01675415,0.001499176,0,
00:01.6,0.001092911,0.016736984,0.001504898,0,
00:01.6,0.001092911,0.016736984,0.00151062,0,
00:01.6,0.001092911,0.016742706,0.00151062,0,
00:01.6,0.001087189,0.016731262,0.001504898,0,
00:01.6,0.001075745,0.016748428,0.001504898,0,
00:01.6,0.001081467,0.016748428,0.001504898,0,
00:01.6,0.001092911,0.016742706,0.001504898,0,
00:01.7,0.001104355,0.016748428,0.00151062,0,
00:01.7,0.001087189,0.016731262,0.001504898,0,
00:01.7,0.001075745,0.016736984,0.00151062,0,
00:01.7,0.001092911,0.016759872,0.001499176,0,
00:01.7,0.001092911,0.01675415,0.001504898,0,
00:01.7,0.001098633,0.01675415,0.001516342,0,
00:01.7,0.001098633,0.016731262,0.001504898,0,
00:01.7,0.001075745,0.016736984,0.001504898,0,
00:01.7,0.001058578,0.016748428,0.00151062,0,
00:01.7,0.001087189,0.016765594,0.001516342,0,
00:01.7,0.001132965,0.016765594,0.001499176,0,
00:01.7,0.001104355,0.016742706,0.001504898,0,
00:01.7,0.001092911,0.016742706,0.00151062,0,
00:01.7,0.001087189,0.016731262,0.001516342,0,
00:01.7,0.001110077,0.016765594,0.001504898,0,
00:01.7,0.001070023,0.016748428,0.001516342,0,
00:01.7,0.001029968,0.016742706,0.001522064,0,
00:01.7,0.001092911,0.016748428,0.00151062,0,
00:01.7,0.001110077,0.016765594,0.001499176,0,
00:01.7,0.00103569,0.01672554,0.001522064,0,
00:01.7,0.001052856,0.016731262,0.001522064,0,
00:01.7,0.001127243,0.016765594,0.001493454,0,
00:01.7,0.001121521,0.016765594,0.001493454,0,
00:01.7,0.001104355,0.016765594,0.001504898,0,
00:01.7,0.001098633,0.016759872,0.00151062,0,
00:01.8,0.001104355,0.01675415,0.001504898,0,
00:01.8,0.001110077,0.016771317,0.001499176,0,
00:01.8,0.001087189,0.016771317,0.001499176,0,
00:01.8,0.001104355,0.016771317,0.001499176,0,
00:01.8,0.001087189,0.016759872,0.001499176,0,
00:01.8,0.001075745,0.016742706,0.001522064,0,
00:01.8,0.001087189,0.016736984,0.00151062,0,
00:01.8,0.001081467,0.016742706,0.001499176,0,
00:01.8,0.001087189,0.016759872,0.001499176,0,
00:01.8,0.001081467,0.016759872,0.001499176,0,
00:01.8,0.001087189,0.016748428,0.00151062,0,
00:01.8,0.001087189,0.01675415,0.00151062,0,
00:01.8,0.001087189,0.016771317,0.001499176,0,
00:01.8,0.001092911,0.016771317,0.001499176,0,
00:01.8,0.001075745,0.016771317,0.001499176,0,
00:01.8,0.001070023,0.016742706,0.00151062,0,
00:01.8,0.001104355,0.016742706,0.001499176,0,
00:01.8,0.001121521,0.016782761,0.001516342,0,
00:01.8,0.001092911,0.016759872,0.001499176,0,
00:01.8,0.001075745,0.01675415,0.001487732,0,
00:01.8,0.001081467,0.016771317,0.001499176,0,
00:01.8,0.001092911,0.016782761,0.001499176,0,
00:01.8,0.001092911,0.016759872,0.00151062,0,
00:01.8,0.001092911,0.01675415,0.00151062,0,
00:01.8,0.001087189,0.01675415,0.001499176,0,
00:01.9,0.001092911,0.016765594,0.001499176,0,
00:01.9,0.001081467,0.016765594,0.001504898,0,
00:01.9,0.001075745,0.016771317,0.001504898,0,
00:01.9,0.001092911,0.016771317,0.001499176,0,
00:01.9,0.001098633,0.016782761,0.001493454,0,
00:01.9,0.001070023,0.01675415,0.001504898,0,
00:01.9,0.001047134,0.016736984,0.001516342,0,
00:01.9,0.001087189,0.016748428,0.001516342,0,
00:01.9,0.001115799,0.016765594,0.001499176,0,
00:01.9,0.001115799,0.016782761,0.001487732,0,
00:01.9,0.001081467,0.016759872,0.001499176,0,
00:01.9,0.001092911,0.01675415,0.001499176,0,
00:01.9,0.001087189,0.016759872,0.001504898,0,
00:01.9,0.001087189,0.016771317,0.001504898,0,
00:01.9,0.001098633,0.016771317,0.001516342,0,
00:01.9,0.001104355,0.016765594,0.00151062,0,
00:01.9,0.001098633,0.016777039,0.001499176,0,
00:01.9,0.001092911,0.016777039,0.001499176,0,
00:01.9,0.001075745,0.01675415,0.00151062,0,
00:01.9,0.001087189,0.016742706,0.001516342,0,
00:01.9,0.001092911,0.016765594,0.001516342,0,
00:01.9,0.001098633,0.016771317,0.001499176,0,
00:01.9,0.001110077,0.016777039,0.001504898,0,
00:01.9,0.001081467,0.016765594,0.001504898,0,
00:01.9,0.001070023,0.016771317,0.00151062,0,
00:02.0,0.001098633,0.01675415,0.00151062,0,
00:02.0,0.001087189,0.016765594,0.001516342,0,
00:02.0,0.001092911,0.016777039,0.001504898,0,
00:02.0,0.001098633,0.016771317,0.001504898,0,
00:02.0,0.001092911,0.016771317,0.001504898,0,
00:02.0,0.001087189,0.016782761,0.001504898,0,
00:02.0,0.001075745,0.016759872,0.001516342,0,
00:02.0,0.001081467,0.01675415,0.001522064,0,
00:02.0,0.001092911,0.016765594,0.001516342,0,
00:02.0,0.001081467,0.016777039,0.00151062,0,
00:02.0,0.001098633,0.016777039,0.001516342,0,
00:02.0,0.001104355,0.016771317,0.00151062,0,
00:00:02,0.001098633,0.016777039,0.001504898,0,
00:02.0,0.001081467,0.016777039,0.001493454,0,
00:02.0,0.001092911,0.016794205,0.001504898,0,
00:02.0,0.001081467,0.016748428,0.001544952,0,
00:02.0,0.001092911,0.016759872,0.00151062,0,
00:02.0,0.001098633,0.016771317,0.001504898,0,
00:02.0,0.001110077,0.016782761,0.001504898,0,
00:02.0,0.001104355,0.016782761,0.001516342,0,
00:02.0,0.001087189,0.016777039,0.00151062,0,
00:02.0,0.001081467,0.016771317,0.001522064,0,
00:02.0,0.001087189,0.016777039,0.001533508,0,
00:02.0,0.001098633,0.016777039,0.00151062,0,
00:02.0,0.001104355,0.016777039,0.00151062,0,
00:02.1,0.001104355,0.016771317,0.001516342,0,
00:02.1,0.001092911,0.016788483,0.00151062,0,
00:02.1,0.001092911,0.016777039,0.00151062,0,
00:02.1,0.001104355,0.016765594,0.001527786,0,
00:02.1,0.001098633,0.016771317,0.001516342,0,
00:02.1,0.001081467,0.016771317,0.001504898,0,
00:02.1,0.001087189,0.016777039,0.001504898,0,
00:02.1,0.001104355,0.016794205,0.001504898,0,
00:02.1,0.001081467,0.016777039,0.001516342,0,
00:02.1,0.001098633,0.016794205,0.001522064,0,
00:02.1,0.001121521,0.016777039,0.001516342,0,
00:02.1,0.001087189,0.016765594,0.001504898,0,
00:02.1,0.001064301,0.016777039,0.00151062,0,
00:02.1,0.001087189,0.016788483,0.001516342,0,
00:02.1,0.001110077,0.016799927,0.00151062,0,
00:02.1,0.001110077,0.016788483,0.00151062,0,
00:02.1,0.001104355,0.016765594,0.00151062,0,
00:02.1,0.001092911,0.016777039,0.00151062,0,
00:02.1,0.001081467,0.016782761,0.001504898,0,
00:02.1,0.001104355,0.016788483,0.001516342,0,
00:02.1,0.001104355,0.016782761,0.001527786,0,
00:02.1,0.001092911,0.016782761,0.001522064,0,
00:02.1,0.001087189,0.016782761,0.001516342,0,
00:02.1,0.001098633,0.016805649,0.00151062,0,
00:02.1,0.001092911,0.016788483,0.001516342,0,
00:02.2,0.001121521,0.016794205,0.001522064,0,
00:02.2,0.001092911,0.016782761,0.001504898,0,
00:02.2,0.001081467,0.016777039,0.001516342,0,
00:02.2,0.001092911,0.016777039,0.001527786,0,
00:02.2,0.001104355,0.016794205,0.001516342,0,
00:02.2,0.001104355,0.016794205,0.001493454,0,
00:02.2,0.001087189,0.016782761,0.001504898,0,
00:02.2,0.001087189,0.016782761,0.00151062,0,
00:02.2,0.001092911,0.016788483,0.001516342,0,
00:02.2,0.001098633,0.016788483,0.001516342,0,
00:02.2,0.001110077,0.016805649,0.001504898,0,
00:02.2,0.001115799,0.016799927,0.001499176,0,
00:02.2,0.001098633,0.016782761,0.001516342,0,
00:02.2,0.001104355,0.016794205,0.001516342,0,
00:02.2,0.001110077,0.016794205,0.001516342,0,
00:02.2,0.001110077,0.016811371,0.001499176,0,
00:02.2,0.001098633,0.016794205,0.00151062,0,
00:02.2,0.001081467,0.016777039,0.00151062,0,
00:02.2,0.001092911,0.016794205,0.001516342,0,
00:02.2,0.001110077,0.016799927,0.00151062,0,
00:02.2,0.001098633,0.016799927,0.001504898,0,
00:02.2,0.001092911,0.016794205,0.00151062,0,
00:02.2,0.001098633,0.016799927,0.00151062,0,
00:02.2,0.001110077,0.016811371,0.001499176,0,
00:02.2,0.001075745,0.016777039,0.001499176,0,
00:02.3,0.001092911,0.016794205,0.001504898,0,
00:02.3,0.001115799,0.016817093,0.001504898,0,
00:02.3,0.001098633,0.016794205,0.001516342,0,
00:02.3,0.001098633,0.016799927,0.00151062,0,
00:02.3,0.001104355,0.016805649,0.00151062,0,
00:02.3,0.001098633,0.016817093,0.001516342,0,
00:02.3,0.001064301,0.016794205,0.001504898,0,
00:02.3,0.001087189,0.016782761,0.00151062,0,
00:02.3,0.001127243,0.016799927,0.00151062,0,
00:02.3,0.001127243,0.016805649,0.00151062,0,
00:02.3,0.001121521,0.016805649,0.001504898,0,
00:02.3,0.001110077,0.016811371,0.00151062,0,
00:02.3,0.001104355,0.016811371,0.00151062,0,
00:02.3,0.001104355,0.016805649,0.001504898,0,
00:02.3,0.001115799,0.016817093,0.001493454,0,
00:02.3,0.001110077,0.016805649,0.001504898,0,
00:02.3,0.001098633,0.016805649,0.00151062,0,
00:02.3,0.001092911,0.016788483,0.00151062,0,
00:02.3,0.001110077,0.016811371,0.001504898,0,
00:02.3,0.001115799,0.016805649,0.001516342,0,
00:02.3,0.001110077,0.016794205,0.001522064,0,
00:02.3,0.001092911,0.016794205,0.00151062,0,
00:02.3,0.001081467,0.016799927,0.001522064,0,
00:02.3,0.001110077,0.016811371,0.001516342,0,
00:02.3,0.001104355,0.016805649,0.001493454,0,
00:02.4,0.001052856,0.016794205,0.00151062,0,
00:02.4,0.001081467,0.016799927,0.001504898,0,
00:02.4,0.001115799,0.016805649,0.001493454,0,
00:02.4,0.001138687,0.016817093,0.001493454,0,
00:02.4,0.001127243,0.016828537,0.001487732,0,
00:02.4,0.001121521,0.016811371,0.001499176,0,
00:02.4,0.001132965,0.016817093,0.001499176,0,
00:02.4,0.001127243,0.016817093,0.001493454,0,
00:02.4,0.001132965,0.016817093,0.001487732,0,
00:02.4,0.001098633,0.016805649,0.001487732,0,
00:02.4,0.001087189,0.016805649,0.001504898,0,
00:02.4,0.001121521,0.016817093,0.001487732,0,
00:02.4,0.001127243,0.016822815,0.001499176,0,
00:02.4,0.001127243,0.016839981,0.001487732,0,
00:02.4,0.001121521,0.016817093,0.001487732,0,
00:02.4,0.001104355,0.016788483,0.00148201,0,
00:02.4,0.001104355,0.016805649,0.001499176,0,
00:02.4,0.001115799,0.016828537,0.001504898,0,
00:02.4,0.001121521,0.016822815,0.001493454,0,
00:02.4,0.001115799,0.016805649,0.001499176,0,
00:02.4,0.001110077,0.016817093,0.001499176,0,
00:02.4,0.001115799,0.016811371,0.001487732,0,
00:02.4,0.001110077,0.016817093,0.001493454,0,
00:02.4,0.001110077,0.016822815,0.001499176,0,
00:02.4,0.001121521,0.016828537,0.001493454,0,
00:02.5,0.001104355,0.016811371,0.001493454,0,
00:02.5,0.001092911,0.016811371,0.001499176,0,
00:02.5,0.001087189,0.016822815,0.001493454,0,
00:02.5,0.001081467,0.016817093,0.001504898,0,
00:02.5,0.001110077,0.016834259,0.001487732,0,
00:02.5,0.001132965,0.016845703,0.001470566,0,
00:02.5,0.001138687,0.016822815,0.001476288,0,
00:02.5,0.001115799,0.016817093,0.001476288,0,
00:02.5,0.001104355,0.016822815,0.00148201,0,
00:02.5,0.001121521,0.016828537,0.001487732,0,
00:02.5,0.001127243,0.016839981,0.001493454,0,
00:02.5,0.001104355,0.016828537,0.00148201,0,
00:02.5,0.001098633,0.016817093,0.001493454,0,
00:02.5,0.001110077,0.016817093,0.001487732,0,
00:02.5,0.001104355,0.016811371,0.001493454,0,
00:02.5,0.001110077,0.016822815,0.001487732,0,
00:02.5,0.001115799,0.016839981,0.00148201,0,
00:02.5,0.001115799,0.016828537,0.001493454,0,
00:02.5,0.001110077,0.016828537,0.001493454,0,
00:02.5,0.001115799,0.016822815,0.001487732,0,
00:02.5,0.001121521,0.016834259,0.00148201,0,
00:02.5,0.001121521,0.016845703,0.001476288,0,
00:02.5,0.001104355,0.016811371,0.001493454,0,
00:02.5,0.001104355,0.016828537,0.001499176,0,
00:02.5,0.001115799,0.016834259,0.001493454,0,
00:02.6,0.001110077,0.016828537,0.001487732,0,
00:02.6,0.001098633,0.016834259,0.001476288,0,
00:02.6,0.001098633,0.016834259,0.001487732,0,
00:02.6,0.001098633,0.016817093,0.001504898,0,
00:02.6,0.001098633,0.016811371,0.001487732,0,
00:02.6,0.001110077,0.016828537,0.001487732,0,
00:02.6,0.001087189,0.016817093,0.001487732,0,
00:02.6,0.001064301,0.016822815,0.001493454,0,
00:02.6,0.001092911,0.016828537,0.001493454,0,
00:02.6,0.001121521,0.016839981,0.001476288,0,
00:02.6,0.001132965,0.016834259,0.001476288,0,
00:02.6,0.001110077,0.016822815,0.001464844,0,
00:02.6,0.001110077,0.016839981,0.00148201,0,
00:02.6,0.001104355,0.016828537,0.001499176,0,
00:02.6,0.001110077,0.016828537,0.001493454,0,
00:02.6,0.001098633,0.016811371,0.00148201,0,
00:02.6,0.001092911,0.016817093,0.001493454,0,
00:02.6,0.001087189,0.016822815,0.001487732,0,
00:02.6,0.001104355,0.016845703,0.001487732,0,
00:02.6,0.001121521,0.016845703,0.001476288,0,
00:02.6,0.001075745,0.016817093,0.001493454,0,
00:02.6,0.001081467,0.016811371,0.001487732,0,
00:02.6,0.001127243,0.016828537,0.001464844,0,
00:02.6,0.001127243,0.016845703,0.001476288,0,
00:02.6,0.001121521,0.016845703,0.00148201,0,
00:02.7,0.001115799,0.016857147,0.001487732,0,
00:02.7,0.001098633,0.016828537,0.00148201,0,
00:02.7,0.001092911,0.016834259,0.001476288,0,
00:02.7,0.001104355,0.016839981,0.001487732,0,
00:02.7,0.001104355,0.016828537,0.001499176,0,
00:02.7,0.001098633,0.016828537,0.001493454,0,
00:02.7,0.001098633,0.016839981,0.001476288,0,
00:02.7,0.001115799,0.016857147,0.001476288,0,
00:02.7,0.001115799,0.016845703,0.001476288,0,
00:02.7,0.001104355,0.016822815,0.001476288,0,
00:02.7,0.001098633,0.016839981,0.00148201,0,
00:02.7,0.001110077,0.016834259,0.001487732,0,
00:02.7,0.001098633,0.016839981,0.001487732,0,
00:02.7,0.001064301,0.016828537,0.001476288,0,
00:02.7,0.001064301,0.016811371,0.001487732,0,
00:02.7,0.001110077,0.016839981,0.001487732,0,
00:02.7,0.001150131,0.016868591,0.001470566,0,
00:02.7,0.001115799,0.016851425,0.001476288,0,
00:02.7,0.001092911,0.016828537,0.001476288,0,
00:02.7,0.001104355,0.016822815,0.00148201,0,
00:02.7,0.001110077,0.016845703,0.001476288,0,
00:02.7,0.001115799,0.016845703,0.001470566,0,
00:02.7,0.001115799,0.016845703,0.001464844,0,
00:02.7,0.001104355,0.016822815,0.001470566,0,
00:02.7,0.001110077,0.016822815,0.00148201,0,
00:02.8,0.001110077,0.016839981,0.001470566,0,
00:02.8,0.001098633,0.016839981,0.001476288,0,
00:02.8,0.001098633,0.016851425,0.001476288,0,
00:02.8,0.001104355,0.016845703,0.001476288,0,
00:02.8,0.001110077,0.016857147,0.001476288,0,
00:02.8,0.001115799,0.016851425,0.001470566,0,
00:02.8,0.001115799,0.016851425,0.001464844,0,
00:02.8,0.001110077,0.016839981,0.001470566,0,
00:02.8,0.001110077,0.016828537,0.001487732,0,
00:02.8,0.001110077,0.016839981,0.00148201,0,
00:02.8,0.001115799,0.016857147,0.001476288,0,
00:02.8,0.001104355,0.016851425,0.001470566,0,
00:02.8,0.001098633,0.016839981,0.001487732,0,
00:02.8,0.001115799,0.016839981,0.001487732,0,
00:02.8,0.001121521,0.016857147,0.001476288,0,
00:02.8,0.001104355,0.016839981,0.001476288,0,
00:02.8,0.001098633,0.016828537,0.00148201,0,
00:02.8,0.001092911,0.016834259,0.001487732,0,
00:02.8,0.001104355,0.016845703,0.001487732,0,
00:02.8,0.001098633,0.016857147,0.001470566,0,
00:02.8,0.001098633,0.016839981,0.001476288,0,
00:02.8,0.001104355,0.016851425,0.001493454,0,
00:02.8,0.001110077,0.016857147,0.001487732,0,
00:02.8,0.001115799,0.016845703,0.001487732,0,
00:02.8,0.001121521,0.016845703,0.001470566,0,
00:02.9,0.001098633,0.016822815,0.001476288,0,
00:02.9,0.001081467,0.016845703,0.001487732,0,
00:02.9,0.001087189,0.016862869,0.001487732,0,
00:02.9,0.001104355,0.016845703,0.001493454,0,
00:02.9,0.001098633,0.016839981,0.001504898,0,
00:02.9,0.001115799,0.016862869,0.001493454,0,
00:02.9,0.001104355,0.016862869,0.00148201,0,
00:02.9,0.001098633,0.016851425,0.001493454,0,
00:02.9,0.001092911,0.016851425,0.001493454,0,
00:02.9,0.001070023,0.016822815,0.001499176,0,
00:02.9,0.001058578,0.016822815,0.001504898,0,
00:02.9,0.001087189,0.016857147,0.001499176,0,
00:02.9,0.001127243,0.016885757,0.001493454,0,
00:02.9,0.001127243,0.016868591,0.001499176,0,
00:02.9,0.001087189,0.016828537,0.001493454,0,
00:02.9,0.001081467,0.016828537,0.001499176,0,
00:02.9,0.001098633,0.016845703,0.001504898,0,
00:02.9,0.001098633,0.016862869,0.00151062,0,
00:02.9,0.001110077,0.016868591,0.00148201,0,
00:02.9,0.001115799,0.016880035,0.001487732,0,
00:02.9,0.001092911,0.016862869,0.001499176,0,
00:02.9,0.001087189,0.016845703,0.001504898,0,
00:02.9,0.001092911,0.016857147,0.00151062,0,
00:02.9,0.001104355,0.016862869,0.00151062,0,
00:02.9,0.001110077,0.016839981,0.00151062,0,
00:03.0,0.001104355,0.016857147,0.00151062,0,
00:03.0,0.001110077,0.016874313,0.00151062,0,
00:03.0,0.001098633,0.016862869,0.00151062,0,
00:03.0,0.001110077,0.016862869,0.00151062,0,
00:03.0,0.001104355,0.016851425,0.001516342,0,
00:03.0,0.001098633,0.016857147,0.001516342,0,
00:03.0,0.001087189,0.016857147,0.001504898,0,
00:03.0,0.001098633,0.016874313,0.00151062,0,
00:03.0,0.001098633,0.016874313,0.00151062,0,
00:03.0,0.001098633,0.016851425,0.001516342,0,
00:03.0,0.001104355,0.016862869,0.001522064,0,
00:03.0,0.001092911,0.016851425,0.001527786,0,
00:00:03,0.001092911,0.016874313,0.00151062,0,
00:03.0,0.001075745,0.016862869,0.001516342,0,
00:03.0,0.001092911,0.016845703,0.001550674,0,
00:03.0,0.001092911,0.016851425,0.001533508,0,
00:03.0,0.001110077,0.016874313,0.00151062,0,
00:03.0,0.001104355,0.016857147,0.001522064,0,
00:03.0,0.001087189,0.016857147,0.001516342,0,
00:03.0,0.001087189,0.016874313,0.001533508,0,
00:03.0,0.001070023,0.016851425,0.001527786,0,
00:03.0,0.001047134,0.016862869,0.001533508,0,
00:03.0,0.001087189,0.016857147,0.001544952,0,
00:03.0,0.001132965,0.016862869,0.001533508,0,
00:03.0,0.001127243,0.016868591,0.001533508,0,
00:03.1,0.001110077,0.016862869,0.00153923,0,
00:03.1,0.001092911,0.016857147,0.00153923,0,
00:03.1,0.001098633,0.016868591,0.00153923,0,
00:03.1,0.001104355,0.016874313,0.001544952,0,
00:03.1,0.001081467,0.016834259,0.001562119,0,
00:03.1,0.001087189,0.016834259,0.001550674,0,
00:03.1,0.001092911,0.016880035,0.001533508,0,
00:03.1,0.001098633,0.016891479,0.001550674,0,
00:03.1,0.001104355,0.016874313,0.001544952,0,
00:03.1,0.001115799,0.016868591,0.001544952,0,
00:03.1,0.001092911,0.016862869,0.001544952,0,
00:03.1,0.001092911,0.016874313,0.001562119,0,
00:03.1,0.001092911,0.016868591,0.001562119,0,
00:03.1,0.001092911,0.016868591,0.001556396,0,
00:03.1,0.001104355,0.016874313,0.001550674,0,
00:03.1,0.001087189,0.016857147,0.001567841,0,
00:03.1,0.001087189,0.016862869,0.001567841,0,
00:03.1,0.001098633,0.016868591,0.001556396,0,
00:03.1,0.001104355,0.016880035,0.001567841,0,
00:03.1,0.001075745,0.016857147,0.001562119,0,
00:03.1,0.001081467,0.016874313,0.001567841,0,
00:03.1,0.001081467,0.016891479,0.001562119,0,
00:03.1,0.001087189,0.016868591,0.001562119,0,
00:03.1,0.001098633,0.016868591,0.001590729,0,
00:03.1,0.001098633,0.016862869,0.001590729,0,
00:03.2,0.001058578,0.016868591,0.001573563,0,
00:03.2,0.00103569,0.016874313,0.001573563,0,
00:03.2,0.001110077,0.016880035,0.001562119,0,
00:03.2,0.001115799,0.016874313,0.001579285,0,
00:03.2,0.001115799,0.016868591,0.001585007,0,
00:03.2,0.001104355,0.016868591,0.001573563,0,
00:03.2,0.001087189,0.016885757,0.001585007,0,
00:03.2,0.001092911,0.016885757,0.001596451,0,
00:03.2,0.001110077,0.016862869,0.001585007,0,
00:03.2,0.001098633,0.016857147,0.001590729,0,
00:03.2,0.001098633,0.016885757,0.001596451,0,
00:03.2,0.001098633,0.016880035,0.001585007,0,
00:03.2,0.001087189,0.016868591,0.001590729,0,
00:03.2,0.001092911,0.016874313,0.001602173,0,
00:03.2,0.001098633,0.016868591,0.001602173,0,
00:03.2,0.001081467,0.016862869,0.001602173,0,
00:03.2,0.001081467,0.016885757,0.001590729,0,
00:03.2,0.001098633,0.016914368,0.001590729,0,
00:03.2,0.001104355,0.016925812,0.001596451,0,
00:03.2,0.001081467,0.016839981,0.001607895,0,
00:03.2,0.001075745,0.016845703,0.001613617,0,
00:03.2,0.001070023,0.016862869,0.001613617,0,
00:03.2,0.001098633,0.016902924,0.001602173,0,
00:03.2,0.001087189,0.016897202,0.001607895,0,
00:03.2,0.001081467,0.016880035,0.001607895,0,
00:03.3,0.001081467,0.016862869,0.001630783,0,
00:03.3,0.001098633,0.016891479,0.001619339,0,
00:03.3,0.001110077,0.01692009,0.001630783,0,
00:03.3,0.001104355,0.016902924,0.001607895,0,
00:03.3,0.001087189,0.016891479,0.001613617,0,
00:03.3,0.001070023,0.016851425,0.001613617,0,
00:03.3,0.001064301,0.016851425,0.001642227,0,
00:03.3,0.001075745,0.016891479,0.001636505,0,
00:03.3,0.001064301,0.016897202,0.001630783,0,
00:03.3,0.001052856,0.016885757,0.001619339,0,
00:03.3,0.001041412,0.016862869,0.001647949,0,
00:03.3,0.001110077,0.016891479,0.001647949,0,
00:03.3,0.001121521,0.016925812,0.001625061,0,
00:03.3,0.001087189,0.016868591,0.001642227,0,
00:03.3,0.001075745,0.016834259,0.001636505,0,
00:03.3,0.001070023,0.016845703,0.001653671,0,
00:03.3,0.001092911,0.01692009,0.001642227,0,
00:03.3,0.001075745,0.016908646,0.001636505,0,
00:03.3,0.001092911,0.016931534,0.001653671,0,
00:03.3,0.001098633,0.016965866,0.001636505,0,
00:03.3,0.001081467,0.016908646,0.001642227,0,
00:03.3,0.001070023,0.016925812,0.001625061,0,
00:03.3,0.001058578,0.016874313,0.001653671,0,
00:03.3,0.001075745,0.016891479,0.001682281,0,
00:03.3,0.001075745,0.016902924,0.001670837,0,
00:03.4,0.001081467,0.016891479,0.001636505,0,
00:03.4,0.001070023,0.016880035,0.001647949,0,
00:03.4,0.001052856,0.016891479,0.001682281,0,
00:03.4,0.001081467,0.016897202,0.001682281,0,
00:03.4,0.001127243,0.01692009,0.001642227,0,
00:03.4,0.001070023,0.016885757,0.001653671,0,
00:03.4,0.001047134,0.016897202,0.001710892,0,
00:03.4,0.001064301,0.016937256,0.001682281,0,
00:03.4,0.001098633,0.01692009,0.001653671,0,
00:03.4,0.001110077,0.016914368,0.001670837,0,
00:03.4,0.001092911,0.016914368,0.001676559,0,
00:03.4,0.001070023,0.016965866,0.001659393,0,
00:03.4,0.001029968,0.016834259,0.001670837,0,
00:03.4,0.001058578,0.016822815,0.001699448,0,
00:03.4,0.001081467,0.016925812,0.001722336,0,
00:03.4,0.001110077,0.01697731,0.001665115,0,
00:03.4,0.001110077,0.0169487,0.001630783,0,
00:03.4,0.001058578,0.016857147,0.001699448,0,
00:03.4,0.001081467,0.016931534,0.00170517,0,
00:03.4,0.001098633,0.01692009,0.00170517,0,
00:03.4,0.001098633,0.016960144,0.001682281,0,
00:03.4,0.001064301,0.016885757,0.001676559,0,
00:03.4,0.001070023,0.016868591,0.001716614,0,
00:03.4,0.001070023,0.01692009,0.001710892,0,
00:03.4,0.001081467,0.016965866,0.001659393,0,
00:03.5,0.001064301,0.016868591,0.001682281,0,
00:03.5,0.001064301,0.016868591,0.001739502,0,
00:03.5,0.001127243,0.016988754,0.001716614,0,
00:03.5,0.001092911,0.016925812,0.001676559,0,
00:03.5,0.001029968,0.016817093,0.001750946,0,
00:03.5,0.001058578,0.016874313,0.001745224,0,
00:03.5,0.001047134,0.016897202,0.00170517,0,
00:03.5,0.001064301,0.016954422,0.001665115,0,
00:03.5,0.001047134,0.016914368,0.001676559,0,
00:03.5,0.001070023,0.016868591,0.00173378,0,
00:03.5,0.001081467,0.016880035,0.00176239,0,
00:03.5,0.001052856,0.01692009,0.001745224,0,
00:03.5,0.001087189,0.016925812,0.00170517,0,
00:03.5,0.001075745,0.016914368,0.001688004,0,
00:03.5,0.001041412,0.016908646,0.001716614,0,
00:03.5,0.001041412,0.016914368,0.001693726,0,
00:03.5,0.001018524,0.016862869,0.00173378,0,
00:03.5,0.001098633,0.01692009,0.001722336,0,
00:03.5,0.001110077,0.016965866,0.00170517,0,
00:03.5,0.001115799,0.016914368,0.001693726,0,
00:03.5,0.001058578,0.016857147,0.001739502,0,
00:03.5,0.001058578,0.016868591,0.001756668,0,
00:03.5,0.001064301,0.016880035,0.001745224,0,
00:03.5,0.001064301,0.016902924,0.001728058,0,
00:03.5,0.001075745,0.016914368,0.001739502,0,
00:03.6,0.001092911,0.016942978,0.001722336,0,
00:03.6,0.001075745,0.016914368,0.001693726,0,
00:03.6,0.001058578,0.016874313,0.00173378,0,
00:03.6,0.001052856,0.016862869,0.001768112,0,
00:03.6,0.001075745,0.0169487,0.001745224,0,
00:03.6,0.001058578,0.0169487,0.00170517,0,
00:03.6,0.001081467,0.016925812,0.001722336,0,
00:03.6,0.001064301,0.016891479,0.001728058,0,
00:03.6,0.001052856,0.016862869,0.001750946,0,
00:03.6,0.001064301,0.016880035,0.001791,0,
00:03.6,0.001041412,0.016880035,0.001768112,0,
00:03.6,0.000995636,0.016885757,0.001756668,0,
00:03.6,0.001018524,0.0169487,0.00176239,0,
00:03.6,0.001115799,0.017011642,0.001693726,0,
00:03.6,0.001070023,0.016874313,0.001739502,0,
00:03.6,0.001064301,0.016862869,0.001773834,0,
00:03.6,0.001052856,0.016885757,0.001750946,0,
00:03.6,0.001070023,0.01692009,0.001768112,0,
00:03.6,0.001052856,0.01692009,0.001768112,0,
00:03.6,0.001001358,0.016862869,0.001779556,0,
00:03.6,0.001041412,0.016897202,0.001728058,0,
00:03.6,0.001115799,0.017017365,0.001716614,0,
00:03.6,0.001081467,0.0169487,0.001739502,0,
00:03.6,0.001092911,0.016897202,0.001773834,0,
00:03.6,0.001047134,0.016845703,0.001796722,0,
00:03.7,0.001024246,0.016862869,0.001768112,0,
00:03.7,0.001121521,0.017000198,0.00176239,0,
00:03.7,0.001110077,0.016960144,0.00173378,0,
00:03.7,0.000984192,0.016805649,0.00176239,0,
00:03.7,0.00100708,0.016845703,0.001785278,0,
00:03.7,0.001052856,0.016914368,0.001796722,0,
00:03.7,0.001058578,0.016965866,0.001756668,0,
00:03.7,0.001081467,0.016971588,0.001779556,0,
00:03.7,0.000995636,0.016834259,0.001808167,0,
00:03.7,0.001087189,0.016942978,0.001802444,0,
00:03.7,0.001064301,0.016914368,0.001791,0,
00:03.7,0.001041412,0.016880035,0.001796722,0,
00:03.7,0.000984192,0.016822815,0.001831055,0,
00:03.7,0.001024246,0.016857147,0.001785278,0,
00:03.7,0.001064301,0.016817093,0.001768112,0,
00:03.7,0.001052856,0.016834259,0.001796722,0,
00:03.7,0.001058578,0.016851425,0.001802444,0,
00:03.7,0.001081467,0.016874313,0.001791,0,
00:03.7,0.001115799,0.016931534,0.001756668,0,
00:03.7,0.00103569,0.016748428,0.001813889,0,
00:03.7,0.000961304,0.016525269,0.001802444,0,
00:03.7,0.000961304,0.016576767,0.001819611,0,
00:03.7,0.001052856,0.016719818,0.001785278,0,
00:03.7,0.001104355,0.016845703,0.001750946,0,
00:03.7,0.001024246,0.016691208,0.001836777,0,
00:03.8,0.000984192,0.016708374,0.001842499,0,
00:03.8,0.001024246,0.016891479,0.001768112,0,
00:03.8,0.001047134,0.016834259,0.001779556,0,
00:03.8,0.00103569,0.016771317,0.001836777,0,
00:03.8,0.001047134,0.016897202,0.001853943,0,
00:03.8,0.001098633,0.017086029,0.001876831,0,
00:03.8,0.001150131,0.017223358,0.001842499,0,
00:03.8,0.001041412,0.017000198,0.001825333,0,
00:03.8,0.000967026,0.016805649,0.001882553,0,
00:03.8,0.000984192,0.016811371,0.001859665,0,
00:03.8,0.001161575,0.016994476,0.001808167,0,
00:03.8,0.001098633,0.01697731,0.001785278,0,
00:03.8,0.000972748,0.016908646,0.001819611,0,
00:03.8,0.001029968,0.01697731,0.001836777,0,
00:03.8,0.001058578,0.016908646,0.001819611,0,
00:03.8,0.001110077,0.016983032,0.001813889,0,
00:03.8,0.001121521,0.016988754,0.001785278,0,
00:03.8,0.001024246,0.016782761,0.001831055,0,
00:03.8,0.001087189,0.016891479,0.001842499,0,
00:03.8,0.001184464,0.017131805,0.001785278,0,
00:03.8,0.001064301,0.016960144,0.001796722,0,
00:03.8,0.000932693,0.016674042,0.001871109,0,
00:03.8,0.00097847,0.016662598,0.001888275,0,
00:03.8,0.001029968,0.016771317,0.001853943,0,
00:03.8,0.001041412,0.01692009,0.001825333,0,
00:03.9,0.001018524,0.0169487,0.001825333,0,
00:03.9,0.001087189,0.017063141,0.001853943,0,
00:03.9,0.001058578,0.017068863,0.001842499,0,
00:03.9,0.001098633,0.01717186,0.001808167,0,
00:03.9,0.00103569,0.0169487,0.001796722,0,
00:03.9,0.000938416,0.016777039,0.001888275,0,
00:03.9,0.001012802,0.016851425,0.001882553,0,
00:03.9,0.001098633,0.0169487,0.001865387,0,
00:03.9,0.001115799,0.017017365,0.001813889,0,
00:03.9,0.000995636,0.016937256,0.001825333,0,
00:03.9,0.000984192,0.01692009,0.001842499,0,
00:03.9,0.00103569,0.01692009,0.001819611,0,
00:03.9,0.001058578,0.016914368,0.001819611,0,
00:03.9,0.001041412,0.0169487,0.001819611,0,
00:03.9,0.000989914,0.016868591,0.001848221,0,
00:03.9,0.001041412,0.016908646,0.001848221,0,
00:03.9,0.001047134,0.016914368,0.001865387,0,
00:03.9,0.001058578,0.016925812,0.001865387,0,
00:03.9,0.00103569,0.016925812,0.001871109,0,
00:03.9,0.001052856,0.01692009,0.001842499,0,
00:03.9,0.001087189,0.016971588,0.001813889,0,
00:03.9,0.001070023,0.016960144,0.001813889,0,
00:03.9,0.001018524,0.016868591,0.001871109,0,
00:03.9,0.00100708,0.016897202,0.001893997,0,
00:03.9,0.00103569,0.016983032,0.001848221,0,
00:04.0,0.001024246,0.01692009,0.001859665,0,
00:04.0,0.001047134,0.016931534,0.001859665,0,
00:04.0,0.001092911,0.017000198,0.001842499,0,
00:04.0,0.001058578,0.016925812,0.001813889,0,
00:04.0,0.000961304,0.016765594,0.001853943,0,
00:04.0,0.000972748,0.016805649,0.001871109,0,
00:04.0,0.00103569,0.016897202,0.001882553,0,
00:04.0,0.001087189,0.016960144,0.001859665,0,
00:04.0,0.001064301,0.016937256,0.001842499,0,
00:04.0,0.001058578,0.016880035,0.001825333,0,
00:04.0,0.001012802,0.016868591,0.001859665,0,
00:04.0,0.001001358,0.016983032,0.001871109,0,
00:00:04,0.001092911,0.017103195,0.001853943,0,
00:04.0,0.001104355,0.016983032,0.001882553,0,
00:04.0,0.001075745,0.016908646,0.001888275,0,
00:04.0,0.001064301,0.016937256,0.001848221,0,
00:04.0,0.001018524,0.016885757,0.001842499,0,
00:04.0,0.001029968,0.016857147,0.001848221,0,
00:04.0,0.001070023,0.016908646,0.001871109,0,
00:04.0,0.001058578,0.016942978,0.001876831,0,
00:04.0,0.001018524,0.016914368,0.001859665,0,
00:04.0,0.001064301,0.016937256,0.001871109,0,
00:04.0,0.001092911,0.016960144,0.001893997,0,
00:04.0,0.001047134,0.016891479,0.001859665,0,
00:04.0,0.001029968,0.016880035,0.001865387,0,
00:04.1,0.001052856,0.016868591,0.001911163,0,
00:04.1,0.001047134,0.016914368,0.001876831,0,
00:04.1,0.001047134,0.016908646,0.001853943,0,
00:04.1,0.001098633,0.01692009,0.001853943,0,
00:04.1,0.001081467,0.016891479,0.001871109,0,
00:04.1,0.001064301,0.016902924,0.001848221,0,
00:04.1,0.001064301,0.016891479,0.001859665,0,
00:04.1,0.001121521,0.016960144,0.001871109,0,
00:04.1,0.001087189,0.016914368,0.001865387,0,
00:04.1,0.001047134,0.016839981,0.001882553,0,
00:04.1,0.001029968,0.016857147,0.001882553,0,
00:04.1,0.001092911,0.016954422,0.001876831,0,
00:04.1,0.001098633,0.016965866,0.001836777,0,
00:04.1,0.001041412,0.016862869,0.001876831,0,
00:04.1,0.001024246,0.016868591,0.001888275,0,
00:04.1,0.001029968,0.016839981,0.001899719,0,
00:04.1,0.001127243,0.01697731,0.001871109,0,
00:04.1,0.001075745,0.016880035,0.001842499,0,
00:04.1,0.001052856,0.016851425,0.001893997,0,
00:04.1,0.001075745,0.016874313,0.001888275,0,
00:04.1,0.001052856,0.016874313,0.001876831,0,
00:04.1,0.001075745,0.016914368,0.001882553,0,
00:04.1,0.001132965,0.01697731,0.001871109,0,
00:04.1,0.001064301,0.016857147,0.001842499,0,
00:04.1,0.00103569,0.016822815,0.001888275,0,
00:04.2,0.001047134,0.016874313,0.001888275,0,
00:04.2,0.001110077,0.016914368,0.001888275,0,
00:04.2,0.001110077,0.016914368,0.001871109,0,
00:04.2,0.001081467,0.016862869,0.001876831,0,
00:04.2,0.001070023,0.016868591,0.001888275,0,
00:04.2,0.001092911,0.016862869,0.001859665,0,
00:04.2,0.001047134,0.016880035,0.001853943,0,
00:04.2,0.001070023,0.016897202,0.001865387,0,
00:04.2,0.001127243,0.016908646,0.001842499,0,
00:04.2,0.001087189,0.016845703,0.001865387,0,
00:04.2,0.001075745,0.016857147,0.001882553,0,
00:04.2,0.001150131,0.01692009,0.001893997,0,
00:04.2,0.001115799,0.016868591,0.001893997,0,
00:04.2,0.001087189,0.016834259,0.001876831,0,
00:04.2,0.001075745,0.016834259,0.001865387,0,
00:04.2,0.001070023,0.016839981,0.001876831,0,
00:04.2,0.001087189,0.016891479,0.001848221,0,
00:04.2,0.001087189,0.016897202,0.001831055,0,
00:04.2,0.001155853,0.016908646,0.001853943,0,
00:04.2,0.001132965,0.016908646,0.001859665,0,
00:04.2,0.001138687,0.016902924,0.001836777,0,
00:04.2,0.001104355,0.016862869,0.001813889,0,
00:04.2,0.001064301,0.016851425,0.001888275,0,
00:04.2,0.001087189,0.016902924,0.001871109,0,
00:04.2,0.001058578,0.016845703,0.001876831,0,
00:04.3,0.001092911,0.016857147,0.001848221,0,
00:04.3,0.001150131,0.016891479,0.001842499,0,
00:04.3,0.001127243,0.016845703,0.001865387,0,
00:04.3,0.001132965,0.016834259,0.001859665,0,
00:04.3,0.001150131,0.016885757,0.001842499,0,
00:04.3,0.001121521,0.016862869,0.001853943,0,
00:04.3,0.001064301,0.016839981,0.001836777,0,
00:04.3,0.001150131,0.01692009,0.001871109,0,
00:04.3,0.001167297,0.016937256,0.001848221,0,
00:04.3,0.001127243,0.016874313,0.001859665,0,
00:04.3,0.001104355,0.016857147,0.001842499,0,
00:04.3,0.001104355,0.016811371,0.001853943,0,
00:04.3,0.001138687,0.016851425,0.001825333,0,
00:04.3,0.001144409,0.016857147,0.001836777,0,
00:04.3,0.001150131,0.016880035,0.001859665,0,
00:04.3,0.001161575,0.016885757,0.001819611,0,
00:04.3,0.001087189,0.016817093,0.001836777,0,
00:04.3,0.001070023,0.016851425,0.001853943,0,
00:04.3,0.001104355,0.016885757,0.001842499,0,
00:04.3,0.00120163,0.016942978,0.001791,0,
00:04.3,0.001155853,0.016822815,0.001836777,0,
00:04.3,0.001167297,0.016845703,0.001859665,0,
00:04.3,0.001167297,0.016891479,0.001825333,0,
00:04.3,0.001173019,0.016925812,0.001813889,0,
00:04.3,0.001132965,0.016839981,0.001848221,0,
00:04.4,0.001115799,0.016851425,0.001842499,0,
00:04.4,0.001098633,0.016828537,0.001819611,0,
00:04.4,0.001127243,0.016857147,0.001831055,0,
00:04.4,0.001178741,0.016885757,0.001825333,0,
00:04.4,0.00120163,0.016965866,0.001791,0,
00:04.4,0.001155853,0.016868591,0.001808167,0,
00:04.4,0.001144409,0.016834259,0.001831055,0,
00:04.4,0.001173019,0.016862869,0.001819611,0,
00:04.4,0.001195908,0.016914368,0.001813889,0,
00:04.4,0.00120163,0.0169487,0.001796722,0,
00:04.4,0.001178741,0.016897202,0.001796722,0,
00:04.4,0.001104355,0.016794205,0.001825333,0,
00:04.4,0.001138687,0.016868591,0.001825333,0,
00:04.4,0.001190186,0.016914368,0.001791,0,
00:04.4,0.001150131,0.016897202,0.001791,0,
00:04.4,0.001132965,0.016845703,0.001825333,0,
00:04.4,0.001161575,0.016885757,0.001796722,0,
00:04.4,0.001190186,0.016891479,0.001796722,0,
00:04.4,0.001178741,0.016885757,0.001808167,0,
00:04.4,0.001138687,0.016885757,0.001813889,0,
00:04.4,0.001167297,0.016902924,0.001813889,0,
00:04.4,0.001190186,0.01692009,0.001796722,0,
00:04.4,0.001207352,0.016897202,0.001796722,0,
00:04.4,0.001195908,0.016880035,0.001796722,0,
00:04.4,0.001167297,0.016880035,0.001802444,0,
00:04.5,0.001184464,0.016937256,0.001785278,0,
00:04.5,0.001167297,0.016902924,0.001768112,0,
00:04.5,0.001190186,0.0169487,0.001773834,0,
00:04.5,0.001190186,0.016897202,0.001791,0,
00:04.5,0.001138687,0.016828537,0.001796722,0,
00:04.5,0.001161575,0.016862869,0.001779556,0,
00:04.5,0.001207352,0.016874313,0.001756668,0,
00:04.5,0.001207352,0.016897202,0.001773834,0,
00:04.5,0.00123024,0.016902924,0.001745224,0,
00:04.5,0.001184464,0.016885757,0.00176239,0,
00:04.5,0.001184464,0.016914368,0.001785278,0,
00:04.5,0.001195908,0.016897202,0.001779556,0,
00:04.5,0.001207352,0.016891479,0.001773834,0,
00:04.5,0.00120163,0.016914368,0.001756668,0,
00:04.5,0.001218796,0.016925812,0.00176239,0,
00:04.5,0.001184464,0.016908646,0.001756668,0,
00:04.5,0.001173019,0.016914368,0.001750946,0,
00:04.5,0.001178741,0.016868591,0.00176239,0,
00:04.5,0.001178741,0.016891479,0.001768112,0,
00:04.5,0.001213074,0.016937256,0.001756668,0,
00:04.5,0.001184464,0.016914368,0.001750946,0,
00:04.5,0.001184464,0.016931534,0.001750946,0,
00:04.5,0.001173019,0.016885757,0.001750946,0,
00:04.5,0.001190186,0.016902924,0.001739502,0,
00:04.5,0.001207352,0.016942978,0.00173378,0,
00:04.6,0.001161575,0.016902924,0.00173378,0,
00:04.6,0.001190186,0.016908646,0.00173378,0,
00:04.6,0.001235962,0.016931534,0.001739502,0,
00:04.6,0.001218796,0.016914368,0.00176239,0,
00:04.6,0.00120163,0.016925812,0.001756668,0,
00:04.6,0.001155853,0.016908646,0.001745224,0,
00:04.6,0.001178741,0.016914368,0.001756668,0,
00:04.6,0.001253128,0.016954422,0.00173378,0,
00:04.6,0.001224518,0.0169487,0.001710892,0,
00:04.6,0.001184464,0.016925812,0.001728058,0,
00:04.6,0.00120163,0.016902924,0.001750946,0,
00:04.6,0.001195908,0.016885757,0.00173378,0,
00:04.6,0.001195908,0.016931534,0.001728058,0,
00:04.6,0.001207352,0.016965866,0.001722336,0,
00:04.6,0.001247406,0.0169487,0.001710892,0,
00:04.6,0.00120163,0.01692009,0.001688004,0,
00:04.6,0.001235962,0.016931534,0.001768112,0,
00:04.6,0.00123024,0.016937256,0.001739502,0,
00:04.6,0.001207352,0.016931534,0.001728058,0,
00:04.6,0.001195908,0.016937256,0.001722336,0,
00:04.6,0.001195908,0.01692009,0.001710892,0,
00:04.6,0.001224518,0.016954422,0.001699448,0,
00:04.6,0.001207352,0.016925812,0.001716614,0,
00:04.6,0.00120163,0.01692009,0.001745224,0,
00:04.6,0.001224518,0.016965866,0.001716614,0,
00:04.7,0.00123024,0.016971588,0.001710892,0,
00:04.7,0.001213074,0.0169487,0.001716614,0,
00:04.7,0.001178741,0.016931534,0.001716614,0,
00:04.7,0.00120163,0.016925812,0.00173378,0,
00:04.7,0.001218796,0.01692009,0.001716614,0,
00:04.7,0.00123024,0.016994476,0.00170517,0,
00:04.7,0.001224518,0.016954422,0.001693726,0,
00:04.7,0.001195908,0.016914368,0.001716614,0,
00:04.7,0.001178741,0.0169487,0.001722336,0,
00:04.7,0.001195908,0.016942978,0.001699448,0,
00:04.7,0.00123024,0.016942978,0.001682281,0,
00:04.7,0.001218796,0.016942978,0.001716614,0,
00:04.7,0.001224518,0.016937256,0.00170517,0,
00:04.7,0.001224518,0.0169487,0.001710892,0,
00:04.7,0.00123024,0.016960144,0.00170517,0,
00:04.7,0.001213074,0.01697731,0.001716614,0,
00:04.7,0.001224518,0.016971588,0.00170517,0,
00:04.7,0.001270294,0.017000198,0.001682281,0,
00:04.7,0.001235962,0.01700592,0.001688004,0,
00:04.7,0.00120163,0.016914368,0.001710892,0,
00:04.7,0.001190186,0.01692009,0.00173378,0,
00:04.7,0.00120163,0.016942978,0.001728058,0,
00:04.7,0.001224518,0.016965866,0.001710892,0,
00:04.7,0.001241684,0.016994476,0.001699448,0,
00:04.7,0.001241684,0.017011642,0.001688004,0,
00:04.8,0.001218796,0.016988754,0.001665115,0,
00:04.8,0.001218796,0.016960144,0.00170517,0,
00:04.8,0.001218796,0.016965866,0.001716614,0,
00:04.8,0.001218796,0.016960144,0.00170517,0,
00:04.8,0.00123024,0.016971588,0.001688004,0,
00:04.8,0.001224518,0.01697731,0.001682281,0,
00:04.8,0.001224518,0.017023087,0.001693726,0,
00:04.8,0.001264572,0.017011642,0.001676559,0,
00:04.8,0.00123024,0.016971588,0.001659393,0,
00:04.8,0.001207352,0.016960144,0.001676559,0,
00:04.8,0.001224518,0.01697731,0.001670837,0,
00:04.8,0.001213074,0.016994476,0.001682281,0,
00:04.8,0.001235962,0.017011642,0.001665115,0,
00:04.8,0.001224518,0.016960144,0.001676559,0,
00:04.8,0.00123024,0.016994476,0.001670837,0,
00:04.8,0.001241684,0.017017365,0.001659393,0,
00:04.8,0.00120163,0.016971588,0.001670837,0,
00:04.8,0.001167297,0.016965866,0.001699448,0,
00:04.8,0.001218796,0.016988754,0.001693726,0,
00:04.8,0.001247406,0.01700592,0.001665115,0,
00:04.8,0.001241684,0.017000198,0.001670837,0,
00:04.8,0.001276016,0.017028809,0.001665115,0,
00:04.8,0.001247406,0.017028809,0.001647949,0,
00:04.8,0.001207352,0.016988754,0.001647949,0,
00:04.8,0.001213074,0.016988754,0.001682281,0,
00:04.9,0.001218796,0.01700592,0.001688004,0,
00:04.9,0.001247406,0.017034531,0.001676559,0,
00:04.9,0.001241684,0.017023087,0.001665115,0,
00:04.9,0.001241684,0.017000198,0.001670837,0,
00:04.9,0.001241684,0.017023087,0.001676559,0,
00:04.9,0.001247406,0.017034531,0.001676559,0,
00:04.9,0.001235962,0.017000198,0.001665115,0,
00:04.9,0.001218796,0.016988754,0.001670837,0,
00:04.9,0.001224518,0.017011642,0.001659393,0,
00:04.9,0.001247406,0.017045975,0.001653671,0,
00:04.9,0.001247406,0.017045975,0.001642227,0,
00:04.9,0.001218796,0.01697731,0.001688004,0,
00:04.9,0.00123024,0.016983032,0.001676559,0,
00:04.9,0.001247406,0.017023087,0.001653671,0,
00:04.9,0.001241684,0.017023087,0.001653671,0,
00:04.9,0.00123024,0.017023087,0.001665115,0,
00:04.9,0.001247406,0.017068863,0.001665115,0,
00:04.9,0.001224518,0.01700592,0.001653671,0,
00:04.9,0.001213074,0.01700592,0.001647949,0,
00:04.9,0.001224518,0.017028809,0.001653671,0,
00:04.9,0.00123024,0.01700592,0.001682281,0,
00:04.9,0.001235962,0.017011642,0.001659393,0,
00:04.9,0.001218796,0.01700592,0.001665115,0,
00:04.9,0.001247406,0.017034531,0.001676559,0,
00:04.9,0.00125885,0.017023087,0.001636505,0,
00:05.0,0.001235962,0.017011642,0.001665115,0,
00:05.0,0.001264572,0.017051697,0.001653671,0,
00:05.0,0.001241684,0.017051697,0.001636505,0,
00:05.0,0.00123024,0.017017365,0.001665115,0,
00:05.0,0.001207352,0.017023087,0.001659393,0,
00:05.0,0.001218796,0.017017365,0.001665115,0,
00:05.0,0.001253128,0.017034531,0.001642227,0,
00:05.0,0.00123024,0.017023087,0.001647949,0,
00:05.0,0.00125885,0.017028809,0.001647949,0,
00:05.0,0.001264572,0.017045975,0.001653671,0,
00:05.0,0.001218796,0.017023087,0.001647949,0,
00:05.0,0.001224518,0.017028809,0.001653671,0,
00:00:05,0.001235962,0.017034531,0.001653671,0,
00:05.0,0.00123024,0.017023087,0.001647949,0,
00:05.0,0.001218796,0.017011642,0.001647949,0,
00:05.0,0.001218796,0.01700592,0.001665115,0,
00:05.0,0.001235962,0.017040253,0.001665115,0,
00:05.0,0.001270294,0.017091751,0.001630783,0,
00:05.0,0.001264572,0.017034531,0.001625061,0,
00:05.0,0.001224518,0.017011642,0.001659393,0,
00:05.0,0.001235962,0.017034531,0.001642227,0,
00:05.0,0.00123024,0.017028809,0.001625061,0,
00:05.0,0.001241684,0.017051697,0.001647949,0,
00:05.0,0.001247406,0.017040253,0.001647949,0,
00:05.0,0.001241684,0.017045975,0.001647949,0,
00:05.1,0.001241684,0.017034531,0.001653671,0,
00:05.1,0.00123024,0.017023087,0.001642227,0,
00:05.1,0.00123024,0.017040253,0.001636505,0,
00:05.1,0.001247406,0.017045975,0.001647949,0,
00:05.1,0.001253128,0.017051697,0.001636505,0,
00:05.1,0.00123024,0.017057419,0.001625061,0,
00:05.1,0.001213074,0.017023087,0.001630783,0,
00:05.1,0.00123024,0.017017365,0.001653671,0,
00:05.1,0.001270294,0.017086029,0.001619339,0,
00:05.1,0.001270294,0.017091751,0.001613617,0,
00:05.1,0.001247406,0.017057419,0.001619339,0,
00:05.1,0.00123024,0.017023087,0.001636505,0,
00:05.1,0.001235962,0.017028809,0.001636505,0,
00:05.1,0.00123024,0.017045975,0.001613617,0,
00:05.1,0.001241684,0.017051697,0.001625061,0,
00:05.1,0.001247406,0.017051697,0.001630783,0,
00:05.1,0.001247406,0.017045975,0.001642227,0,
00:05.1,0.001247406,0.017063141,0.001625061,0,
00:05.1,0.001224518,0.017040253,0.001613617,0,
00:05.1,0.001218796,0.017051697,0.001607895,0,
00:05.1,0.00123024,0.017045975,0.001607895,0,
00:05.1,0.001247406,0.017028809,0.001630783,0,
00:05.1,0.001241684,0.017034531,0.001636505,0,
00:05.1,0.001247406,0.017034531,0.001625061,0,
00:05.1,0.00125885,0.017097473,0.001619339,0,
00:05.2,0.00125885,0.017103195,0.001596451,0,
00:05.2,0.00123024,0.017034531,0.001613617,0,
00:05.2,0.001235962,0.017040253,0.001619339,0,
00:05.2,0.001247406,0.017063141,0.001607895,0,
00:05.2,0.001247406,0.017051697,0.001613617,0,
00:05.2,0.001235962,0.017051697,0.001619339,0,
00:05.2,0.001235962,0.017068863,0.001625061,0,
00:05.2,0.00123024,0.017068863,0.001619339,0,
00:05.2,0.00120163,0.017023087,0.001625061,0,
00:05.2,0.001235962,0.017057419,0.001607895,0,
00:05.2,0.001253128,0.017080307,0.001602173,0,
00:05.2,0.001247406,0.017086029,0.001607895,0,
00:05.2,0.00123024,0.017063141,0.001607895,0,
00:05.2,0.001235962,0.017068863,0.001602173,0,
00:05.2,0.001213074,0.017063141,0.001607895,0,
00:05.2,0.001247406,0.017086029,0.001596451,0,
00:05.2,0.001270294,0.017080307,0.001607895,0,
00:05.2,0.001270294,0.017086029,0.001602173,0,
00:05.2,0.001264572,0.017114639,0.001573563,0,
00:05.2,0.00120163,0.017051697,0.001607895,0,
00:05.2,0.001213074,0.017068863,0.001636505,0,
00:05.2,0.001270294,0.017091751,0.001607895,0,
00:05.2,0.001270294,0.017097473,0.001590729,0,
00:05.2,0.001264572,0.017091751,0.001590729,0,
00:05.2,0.001247406,0.017097473,0.001607895,0,
00:05.3,0.001241684,0.017068863,0.001619339,0,
00:05.3,0.001224518,0.017063141,0.001619339,0,
00:05.3,0.00123024,0.017063141,0.001630783,0,
00:05.3,0.00125885,0.017091751,0.001613617,0,
00:05.3,0.00125885,0.017103195,0.001607895,0,
00:05.3,0.001253128,0.017086029,0.001596451,0,
00:05.3,0.00123024,0.017074585,0.001590729,0,
00:05.3,0.001224518,0.017051697,0.001619339,0,
00:05.3,0.001247406,0.017097473,0.001607895,0,
00:05.3,0.001253128,0.017097473,0.001613617,0,
00:05.3,0.001195908,0.017063141,0.001619339,0,
00:05.3,0.001195908,0.017091751,0.001607895,0,
00:05.3,0.001213074,0.017108917,0.001607895,0,
00:05.3,0.001207352,0.017103195,0.001619339,0,
00:05.3,0.00123024,0.017103195,0.001630783,0,
00:05.3,0.001298904,0.017120361,0.001579285,0,
00:05.3,0.001298904,0.017120361,0.001573563,0,
00:05.3,0.001264572,0.017120361,0.001585007,0,
00:05.3,0.001253128,0.017108917,0.001613617,0,
00:05.3,0.001264572,0.017114639,0.001590729,0,
00:05.3,0.00125885,0.017097473,0.001613617,0,
00:05.3,0.001247406,0.017068863,0.001625061,0,
00:05.3,0.001253128,0.017097473,0.001613617,0,
00:05.3,0.00125885,0.017097473,0.001596451,0,
00:05.3,0.00123024,0.017108917,0.001596451,0,
00:05.4,0.001235962,0.017103195,0.001613617,0,
00:05.4,0.00125885,0.017097473,0.001602173,0,
00:05.4,0.001264572,0.017114639,0.001607895,0,
00:05.4,0.001241684,0.017114639,0.001613617,0,
00:05.4,0.001264572,0.017114639,0.001619339,0,
00:05.4,0.001247406,0.017103195,0.001596451,0,
00:05.4,0.00125885,0.017114639,0.001585007,0,
00:05.4,0.00125885,0.01714325,0.001590729,0,
00:05.4,0.001235962,0.017074585,0.001619339,0,
00:05.4,0.001224518,0.017086029,0.001607895,0,
00:05.4,0.001213074,0.017057419,0.001625061,0,
00:05.4,0.001207352,0.017080307,0.001625061,0,
00:05.4,0.00123024,0.017114639,0.001613617,0,
00:05.4,0.001281738,0.017131805,0.001602173,0,
00:05.4,0.001281738,0.01714325,0.001585007,0,
00:05.4,0.001241684,0.017108917,0.001579285,0,
00:05.4,0.001247406,0.017103195,0.001613617,0,
00:05.4,0.001253128,0.017097473,0.001613617,0,
00:05.4,0.001253128,0.017114639,0.001613617,0,
00:05.4,0.001247406,0.017131805,0.001590729,0,
00:05.4,0.00125885,0.017131805,0.001590729,0,
00:05.4,0.001253128,0.017114639,0.001607895,0,
00:05.4,0.001270294,0.017154694,0.001590729,0,
00:05.4,0.001241684,0.017131805,0.001590729,0,
00:05.4,0.001247406,0.017103195,0.001613617,0,
00:05.5,0.00125885,0.017120361,0.001607895,0,
00:05.5,0.001253128,0.017114639,0.001607895,0,
00:05.5,0.001270294,0.017131805,0.001590729,0,
00:05.5,0.001241684,0.017137527,0.001573563,0,
00:05.5,0.001235962,0.017148972,0.001607895,0,
00:05.5,0.001235962,0.017126083,0.001607895,0,
00:05.5,0.001247406,0.017131805,0.001590729,0,
00:05.5,0.001281738,0.017194748,0.001596451,0,
00:05.5,0.001253128,0.017154694,0.001602173,0,
00:05.5,0.001224518,0.017097473,0.001607895,0,
00:05.5,0.00123024,0.017120361,0.001602173,0,
00:05.5,0.001241684,0.017131805,0.001602173,0,
00:05.5,0.001253128,0.01714325,0.001602173,0,
00:05.5,0.001247406,0.017160416,0.001590729,0,
00:05.5,0.001253128,0.017183304,0.001579285,0,
00:05.5,0.001235962,0.017166138,0.001590729,0,
00:05.5,0.001213074,0.017137527,0.001602173,0,
00:05.5,0.001235962,0.017097473,0.001590729,0,
00:05.5,0.001270294,0.017154694,0.001579285,0,
00:05.5,0.001253128,0.017160416,0.001585007,0,
00:05.5,0.001270294,0.01720047,0.001579285,0,
00:05.5,0.001247406,0.01717186,0.001562119,0,
00:05.5,0.00123024,0.017120361,0.001596451,0,
00:05.5,0.001241684,0.017137527,0.001602173,0,
00:05.5,0.001241684,0.01717186,0.001596451,0,
00:05.6,0.001247406,0.01717186,0.001602173,0,
00:05.6,0.001213074,0.01717186,0.001602173,0,
00:05.6,0.001235962,0.01717186,0.001579285,0,
00:05.6,0.00125885,0.017206192,0.001573563,0,
00:05.6,0.001247406,0.017189026,0.001607895,0,
00:05.6,0.001264572,0.017148972,0.001590729,0,
00:05.6,0.001264572,0.01714325,0.001556396,0,
00:05.6,0.001270294,0.017217636,0.001579285,0,
00:05.6,0.00125885,0.017206192,0.001585007,0,
00:05.6,0.001241684,0.01717186,0.001585007,0,
00:05.6,0.00125885,0.017211914,0.001567841,0,
00:05.6,0.001247406,0.017194748,0.001562119,0,
00:05.6,0.001264572,0.01720047,0.001590729,0,
00:05.6,0.001247406,0.017183304,0.001590729,0,
00:05.6,0.001224518,0.017177582,0.001590729,0,
00:05.6,0.001241684,0.017223358,0.001573563,0,
00:05.6,0.001218796,0.017194748,0.001590729,0,
00:05.6,0.001241684,0.017160416,0.001602173,0,
00:05.6,0.001253128,0.017177582,0.001596451,0,
00:05.6,0.001253128,0.017206192,0.001579285,0,
00:05.6,0.001253128,0.017211914,0.001579285,0,
00:05.6,0.001247406,0.017211914,0.001567841,0,
00:05.6,0.00123024,0.017194748,0.001567841,0,
00:05.6,0.001247406,0.017177582,0.001596451,0,
00:05.6,0.001235962,0.017189026,0.001602173,0,
00:05.7,0.00123024,0.017189026,0.001596451,0,
00:05.7,0.001247406,0.017211914,0.001579285,0,
00:05.7,0.00125885,0.017223358,0.001579285,0,
00:05.7,0.001241684,0.017211914,0.001562119,0,
00:05.7,0.001241684,0.017211914,0.001567841,0,
00:05.7,0.001235962,0.017206192,0.001567841,0,
00:05.7,0.001241684,0.017223358,0.001573563,0,
00:05.7,0.001247406,0.017211914,0.001556396,0,
00:05.7,0.001247406,0.017206192,0.001573563,0,
00:05.7,0.001253128,0.01722908,0.001602173,0,
00:05.7,0.00125885,0.017246246,0.001579285,0,
00:05.7,0.001253128,0.017189026,0.001573563,0,
00:05.7,0.00123024,0.017177582,0.001585007,0,
00:05.7,0.001224518,0.017217636,0.001579285,0,
00:05.7,0.00123024,0.017234802,0.001585007,0,
00:05.7,0.001247406,0.017217636,0.001573563,0,
00:05.7,0.001235962,0.017194748,0.001573563,0,
00:05.7,0.001241684,0.017217636,0.001590729,0,
00:05.7,0.001253128,0.01722908,0.001579285,0,
00:05.7,0.001247406,0.017234802,0.001579285,0,
00:05.7,0.00125885,0.01725769,0.001567841,0,
00:05.7,0.001264572,0.017251968,0.001573563,0,
00:05.7,0.001224518,0.017223358,0.001567841,0,
00:05.7,0.00123024,0.017234802,0.001579285,0,
00:05.7,0.001247406,0.017234802,0.001585007,0,
00:05.8,0.001235962,0.017223358,0.001585007,0,
00:05.8,0.001247406,0.017234802,0.001579285,0,
00:05.8,0.001253128,0.01722908,0.001556396,0,
00:05.8,0.00125885,0.017240524,0.001567841,0,
00:05.8,0.001264572,0.017274857,0.001562119,0,
00:05.8,0.001253128,0.017246246,0.001544952,0,
00:05.8,0.001235962,0.017234802,0.001573563,0,
00:05.8,0.00120163,0.017211914,0.001579285,0,
00:05.8,0.001207352,0.01725769,0.001567841,0,
00:05.8,0.00125885,0.017280579,0.001562119,0,
00:05.8,0.001241684,0.017211914,0.001590729,0,
00:05.8,0.001264572,0.017240524,0.001590729,0,
00:05.8,0.001270294,0.017274857,0.001579285,0,
00:05.8,0.001241684,0.017240524,0.001573563,0,
00:05.8,0.001213074,0.017211914,0.001573563,0,
00:05.8,0.001253128,0.017240524,0.001579285,0,
00:05.8,0.001253128,0.017246246,0.001573563,0,
00:05.8,0.001247406,0.017263412,0.001573563,0,
00:05.8,0.001218796,0.01725769,0.001556396,0,
00:05.8,0.001235962,0.017251968,0.001573563,0,
00:05.8,0.001241684,0.017269135,0.001562119,0,
00:05.8,0.001247406,0.017246246,0.001573563,0,
00:05.8,0.001241684,0.017246246,0.001573563,0,
00:05.8,0.001241684,0.01725769,0.001579285,0,
00:05.8,0.001235962,0.017286301,0.001556396,0,
00:05.9,0.001247406,0.017269135,0.001556396,0,
00:05.9,0.001247406,0.017240524,0.001573563,0,
00:05.9,0.001253128,0.017263412,0.001562119,0,
00:05.9,0.001224518,0.017269135,0.001556396,0,
00:05.9,0.001207352,0.017251968,0.001567841,0,
00:05.9,0.001218796,0.017246246,0.001573563,0,
00:05.9,0.00125885,0.017269135,0.001562119,0,
00:05.9,0.001276016,0.017280579,0.001556396,0,
00:05.9,0.001241684,0.017269135,0.001556396,0,
00:05.9,0.001241684,0.017286301,0.001556396,0,
00:05.9,0.001264572,0.017292023,0.001556396,0,
00:05.9,0.001241684,0.017274857,0.001562119,0,
00:05.9,0.00123024,0.017251968,0.001562119,0,
00:05.9,0.001235962,0.017274857,0.001556396,0,
00:05.9,0.00125885,0.017286301,0.001562119,0,
00:05.9,0.001235962,0.017292023,0.001544952,0,
00:05.9,0.001218796,0.017263412,0.001562119,0,
00:05.9,0.00123024,0.017269135,0.001579285,0,
00:05.9,0.001235962,0.017269135,0.001573563,0,
00:05.9,0.001264572,0.017303467,0.001550674,0,
00:05.9,0.001264572,0.017309189,0.001550674,0,
00:05.9,0.001253128,0.017309189,0.001550674,0,
00:05.9,0.001241684,0.017286301,0.001550674,0,
00:05.9,0.001247406,0.017292023,0.001550674,0,
00:05.9,0.001247406,0.017292023,0.001556396,0,
00:06.0,0.00123024,0.017286301,0.001562119,0,
00:06.0,0.001241684,0.017286301,0.001567841,0,
00:06.0,0.001253128,0.017303467,0.001567841,0,
00:06.0,0.001253128,0.017320633,0.001556396,0,
00:06.0,0.001247406,0.017303467,0.001544952,0,
00:06.0,0.001224518,0.017274857,0.001567841,0,
00:06.0,0.001224518,0.017297745,0.001573563,0,
00:06.0,0.001253128,0.017314911,0.001556396,0,
00:06.0,0.001270294,0.017303467,0.001544952,0,
00:06.0,0.001241684,0.017292023,0.001556396,0,
00:06.0,0.00123024,0.017303467,0.001550674,0,
00:06.0,0.001247406,0.017314911,0.001550674,0,
00:00:06,0.001276016,0.017332077,0.001562119,0,
00:06.0,0.00125885,0.017314911,0.001544952,0,
00:06.0,0.001235962,0.017292023,0.001544952,0,
00:06.0,0.001241684,0.017297745,0.001562119,0,
00:06.0,0.001247406,0.017303467,0.001562119,0,
00:06.0,0.001247406,0.017303467,0.001556396,0,
00:06.0,0.001241684,0.017309189,0.001550674,0,
00:06.0,0.001247406,0.017320633,0.001550674,0,
00:06.0,0.001235962,0.017309189,0.00153923,0,
00:06.0,0.001247406,0.017309189,0.001550674,0,
00:06.0,0.001253128,0.017326355,0.001556396,0,
00:06.0,0.001264572,0.017332077,0.001544952,0,
00:06.0,0.001264572,0.017343521,0.001533508,0,
00:06.1,0.001224518,0.017314911,0.001556396,0,
00:06.1,0.00123024,0.017297745,0.001562119,0,
00:06.1,0.001253128,0.017314911,0.001550674,0,
00:06.1,0.00125885,0.017320633,0.001550674,0,
00:06.1,0.00125885,0.017349243,0.001544952,0,
00:06.1,0.001264572,0.017343521,0.00153923,0,
00:06.1,0.00125885,0.017326355,0.001544952,0,
00:06.1,0.001253128,0.017303467,0.001556396,0,
00:06.1,0.001235962,0.017303467,0.001556396,0,
00:06.1,0.001247406,0.017326355,0.001550674,0,
00:06.1,0.00125885,0.017332077,0.001550674,0,
00:06.1,0.001247406,0.017320633,0.00153923,0,
00:06.1,0.001247406,0.017314911,0.00153923,0,
00:06.1,0.00125885,0.017343521,0.001544952,0,
00:06.1,0.00125885,0.017343521,0.00153923,0,
00:06.1,0.00125885,0.017354965,0.001527786,0,
00:06.1,0.001247406,0.017343521,0.001522064,0,
00:06.1,0.001241684,0.017320633,0.00153923,0,
00:06.1,0.00123024,0.017314911,0.001544952,0,
00:06.1,0.001247406,0.017343521,0.001544952,0,
00:06.1,0.001270294,0.017354965,0.00153923,0,
00:06.1,0.001247406,0.017332077,0.00153923,0,
00:06.1,0.001247406,0.017349243,0.001544952,0,
00:06.1,0.001253128,0.017372131,0.001522064,0,
00:06.1,0.001235962,0.017343521,0.001544952,0,
00:06.2,0.001247406,0.017337799,0.001550674,0,
00:06.2,0.001270294,0.017360687,0.001533508,0,
00:06.2,0.001247406,0.017349243,0.00153923,0,
00:06.2,0.001235962,0.017337799,0.001550674,0,
00:06.2,0.001224518,0.017337799,0.001533508,0,
00:06.2,0.001253128,0.017337799,0.001550674,0,
00:06.2,0.001270294,0.017360687,0.001550674,0,
00:06.2,0.001264572,0.017366409,0.001533508,0,
00:06.2,0.001235962,0.017343521,0.001533508,0,
00:06.2,0.001264572,0.017383575,0.001522064,0,
00:06.2,0.001253128,0.017349243,0.001527786,0,
00:06.2,0.001253128,0.017343521,0.001550674,0,
00:06.2,0.00125885,0.017354965,0.001544952,0,
00:06.2,0.001253128,0.017366409,0.001544952,0,
00:06.2,0.001247406,0.017366409,0.00153923,0,
00:06.2,0.001235962,0.017366409,0.001544952,0,
00:06.2,0.001224518,0.017360687,0.001550674,0,
00:06.2,0.001235962,0.017366409,0.001533508,0,
00:06.2,0.001281738,0.017377853,0.001522064,0,
00:06.2,0.001270294,0.017372131,0.001527786,0,
00:06.2,0.001247406,0.017366409,0.00153923,0,
00:06.2,0.00125885,0.01739502,0.001533508,0,
00:06.2,0.001253128,0.017400742,0.001522064,0,
00:06.2,0.001241684,0.017354965,0.001533508,0,
00:06.2,0.001247406,0.017360687,0.00153923,0,
00:06.3,0.001276016,0.017372131,0.001556396,0,
00:06.3,0.00125885,0.017372131,0.001544952,0,
00:06.3,0.001241684,0.017372131,0.001533508,0,
00:06.3,0.001224518,0.017383575,0.001522064,0,
00:06.3,0.001264572,0.017389297,0.001516342,0,
00:06.3,0.001276016,0.017389297,0.001533508,0,
00:06.3,0.001270294,0.017389297,0.001527786,0,
00:06.3,0.001247406,0.017372131,0.00153923,0,
00:06.3,0.001247406,0.017377853,0.001527786,0,
00:06.3,0.001264572,0.017383575,0.001527786,0,
00:06.3,0.00125885,0.01739502,0.001522064,0,
00:06.3,0.001264572,0.01739502,0.001522064,0,
00:06.3,0.00125885,0.017377853,0.001527786,0,
00:06.3,0.001276016,0.017400742,0.001516342,0,
00:06.3,0.001276016,0.017412186,0.001516342,0,
00:06.3,0.001264572,0.017389297,0.001527786,0,
00:06.3,0.001241684,0.017366409,0.001522064,0,
00:06.3,0.001253128,0.017389297,0.001522064,0,
00:06.3,0.00125885,0.017412186,0.001516342,0,
00:06.3,0.001241684,0.01739502,0.001504898,0,
00:06.3,0.001247406,0.017377853,0.001522064,0,
00:06.3,0.001276016,0.017389297,0.001527786,0,
00:06.3,0.001247406,0.017389297,0.00153923,0,
00:06.3,0.00123024,0.017400742,0.001544952,0,
00:06.3,0.001270294,0.01739502,0.001504898,0,
00:06.4,0.00128746,0.017400742,0.001493454,0,
00:06.4,0.001281738,0.017412186,0.001499176,0,
00:06.4,0.001270294,0.017406464,0.001487732,0,
00:06.4,0.001264572,0.017400742,0.001499176,0,
00:06.4,0.001276016,0.017406464,0.001504898,0,
00:06.4,0.001270294,0.017406464,0.001504898,0,
00:06.4,0.001264572,0.017400742,0.00151062,0,
00:06.4,0.001235962,0.017383575,0.001504898,0,
00:06.4,0.001235962,0.01739502,0.001522064,0,
00:06.4,0.001253128,0.017406464,0.001516342,0,
00:06.4,0.001270294,0.017406464,0.00151062,0,
00:06.4,0.001253128,0.017400742,0.00151062,0,
00:06.4,0.001235962,0.017406464,0.001499176,0,
00:06.4,0.001235962,0.017406464,0.001499176,0,
00:06.4,0.00125885,0.017412186,0.001504898,0,
00:06.4,0.001253128,0.017412186,0.001504898,0,
00:06.4,0.001247406,0.017400742,0.00151062,0,
00:06.4,0.001241684,0.017400742,0.00151062,0,
00:06.4,0.001247406,0.01739502,0.001522064,0,
00:06.4,0.001281738,0.017429352,0.001516342,0,
00:06.4,0.001316071,0.017429352,0.001493454,0,
00:06.4,0.001293182,0.017417908,0.001487732,0,
00:06.4,0.001264572,0.017417908,0.001499176,0,
00:06.4,0.001276016,0.017440796,0.001499176,0,
00:06.4,0.00128746,0.017457962,0.001487732,0,
00:06.5,0.001264572,0.017412186,0.001504898,0,
00:06.5,0.001264572,0.01739502,0.001493454,0,
00:06.5,0.00125885,0.017412186,0.001487732,0,
00:06.5,0.001253128,0.017412186,0.001493454,0,
00:06.5,0.001281738,0.017429352,0.001504898,0,
00:06.5,0.001293182,0.01745224,0.001493454,0,
00:06.5,0.00128746,0.01745224,0.001487732,0,
00:06.5,0.001264572,0.017429352,0.00148201,0,
00:06.5,0.001264572,0.017412186,0.001476288,0,
00:06.5,0.001253128,0.017400742,0.00148201,0,
00:06.5,0.00125885,0.01742363,0.001499176,0,
00:06.5,0.001270294,0.017435074,0.001487732,0,
00:06.5,0.001276016,0.017463684,0.001476288,0,
00:06.5,0.001253128,0.017435074,0.00148201,0,
00:06.5,0.001241684,0.017406464,0.001487732,0,
00:06.5,0.00125885,0.01742363,0.001493454,0,
00:06.5,0.001276016,0.01745224,0.001504898,0,
00:06.5,0.001253128,0.017446518,0.001476288,0,
00:06.5,0.001270294,0.017429352,0.001464844,0,
00:06.5,0.001281738,0.017435074,0.001476288,0,
00:06.5,0.001241684,0.017446518,0.001487732,0,
00:06.5,0.00123024,0.01745224,0.001493454,0,
00:06.5,0.001270294,0.017440796,0.001476288,0,
00:06.5,0.001293182,0.01742363,0.0014534,0,
00:06.5,0.001293182,0.01742363,0.001464844,0,
00:06.6,0.001281738,0.017435074,0.001470566,0,
00:06.6,0.001281738,0.01748085,0.001459122,0,
00:06.6,0.001270294,0.017475128,0.001464844,0,
00:06.6,0.001253128,0.017440796,0.001476288,0,
00:06.6,0.001253128,0.017435074,0.001476288,0,
00:06.6,0.00128746,0.017440796,0.001470566,0,
00:06.6,0.00128746,0.017446518,0.001470566,0,
00:06.6,0.001281738,0.017463684,0.001464844,0,
00:06.6,0.00128746,0.017475128,0.001464844,0,
00:06.6,0.00128746,0.017457962,0.001470566,0,
00:06.6,0.001293182,0.017463684,0.001470566,0,
00:06.6,0.001281738,0.01745224,0.001459122,0,
00:06.6,0.001264572,0.017440796,0.001464844,0,
00:06.6,0.001264572,0.01745224,0.001470566,0,
00:06.6,0.00125885,0.017446518,0.001470566,0,
00:06.6,0.001276016,0.017446518,0.001476288,0,
00:06.6,0.001276016,0.01745224,0.001470566,0,
00:06.6,0.001241684,0.01745224,0.00148201,0,
00:06.6,0.001235962,0.01745224,0.001487732,0,
00:06.6,0.001316071,0.017475128,0.001436234,0,
00:06.6,0.001298904,0.017457962,0.001459122,0,
00:06.6,0.001304626,0.017486572,0.001447678,0,
00:06.6,0.001270294,0.017463684,0.001436234,0,
00:06.6,0.001241684,0.017435074,0.001459122,0,
00:06.6,0.001270294,0.017457962,0.001464844,0,
00:06.7,0.001293182,0.017469406,0.001464844,0,
00:06.7,0.001304626,0.017475128,0.0014534,0,
00:06.7,0.00128746,0.01748085,0.001447678,0,
00:06.7,0.001276016,0.017463684,0.0014534,0,
00:06.7,0.001270294,0.017463684,0.001464844,0,
00:06.7,0.00128746,0.017475128,0.001459122,0,
00:06.7,0.001293182,0.017492294,0.0014534,0,
00:06.7,0.001264572,0.017463684,0.0014534,0,
00:06.7,0.00125885,0.017446518,0.001464844,0,
00:06.7,0.001281738,0.01748085,0.001464844,0,
00:06.7,0.001310349,0.017503738,0.0014534,0,
00:06.7,0.00128746,0.017463684,0.0014534,0,
00:06.7,0.001247406,0.017475128,0.001447678,0,
00:06.7,0.001224518,0.017457962,0.0014534,0,
00:06.7,0.001253128,0.017463684,0.001464844,0,
00:06.7,0.001316071,0.01748085,0.001459122,0,
00:06.7,0.001321793,0.017492294,0.001447678,0,
00:06.7,0.001298904,0.017492294,0.001447678,0,
00:06.7,0.001281738,0.017475128,0.001441956,0,
00:06.7,0.001270294,0.017463684,0.001447678,0,
00:06.7,0.001276016,0.017463684,0.001459122,0,
00:06.7,0.001276016,0.017475128,0.001459122,0,
00:06.7,0.001276016,0.017498016,0.0014534,0,
00:06.7,0.001293182,0.017520905,0.001436234,0,
00:06.7,0.001281738,0.017492294,0.001436234,0,
00:06.8,0.00125885,0.017457962,0.0014534,0,
00:06.8,0.001270294,0.017492294,0.001441956,0,
00:06.8,0.001281738,0.017503738,0.001447678,0,
00:06.8,0.001281738,0.017498016,0.001447678,0,
00:06.8,0.001276016,0.017498016,0.001441956,0,
00:06.8,0.001270294,0.017486572,0.001430511,0,
00:06.8,0.001276016,0.01748085,0.001441956,0,
00:06.8,0.001276016,0.017486572,0.001447678,0,
00:06.8,0.001276016,0.017515182,0.001436234,0,
00:06.8,0.001281738,0.017526627,0.001430511,0,
00:06.8,0.00128746,0.017520905,0.001430511,0,
00:06.8,0.00128746,0.017486572,0.001430511,0,
00:06.8,0.001281738,0.01748085,0.001436234,0,
00:06.8,0.001293182,0.017503738,0.001441956,0,
00:06.8,0.00128746,0.017503738,0.001436234,0,
00:06.8,0.00125885,0.017498016,0.001419067,0,
00:06.8,0.00125885,0.017492294,0.0014534,0,
00:06.8,0.001281738,0.017503738,0.001447678,0,
00:06.8,0.00128746,0.01750946,0.001441956,0,
00:06.8,0.001298904,0.017520905,0.001441956,0,
00:06.8,0.001298904,0.01750946,0.001424789,0,
00:06.8,0.001281738,0.017503738,0.001424789,0,
00:06.8,0.001264572,0.01750946,0.001424789,0,
00:06.8,0.001264572,0.017526627,0.001447678,0,
00:06.8,0.001264572,0.01750946,0.001441956,0,
00:06.9,0.001281738,0.01750946,0.001441956,0,
00:06.9,0.00128746,0.01750946,0.0014534,0,
00:06.9,0.001270294,0.01750946,0.001436234,0,
00:06.9,0.001253128,0.017515182,0.001413345,0,
00:06.9,0.001281738,0.017520905,0.001430511,0,
00:06.9,0.001298904,0.017532349,0.001447678,0,
00:06.9,0.001310349,0.017538071,0.001413345,0,
00:06.9,0.001293182,0.017520905,0.001424789,0,
00:06.9,0.001253128,0.01750946,0.001436234,0,
00:06.9,0.00123024,0.017515182,0.0014534,0,
00:06.9,0.001276016,0.017549515,0.001424789,0,
00:06.9,0.001310349,0.017555237,0.001407623,0,
00:06.9,0.001281738,0.017515182,0.001430511,0,
00:06.9,0.001304626,0.017526627,0.001424789,0,
00:06.9,0.001293182,0.017526627,0.001424789,0,
00:06.9,0.00128746,0.017526627,0.001430511,0,
00:06.9,0.001281738,0.017538071,0.001424789,0,
00:06.9,0.001293182,0.017526627,0.001424789,0,
00:06.9,0.001293182,0.017520905,0.001407623,0,
00:06.9,0.001304626,0.017538071,0.001413345,0,
00:06.9,0.001298904,0.017555237,0.001447678,0,
00:06.9,0.00128746,0.017538071,0.001424789,0,
00:06.9,0.001276016,0.017543793,0.001407623,0,
00:06.9,0.001281738,0.017538071,0.001424789,0,
00:06.9,0.001298904,0.017520905,0.001430511,0,
00:07.0,0.001281738,0.017515182,0.001441956,0,
00:07.0,0.00128746,0.017543793,0.001436234,0,
00:07.0,0.001298904,0.017560959,0.001419067,0,
00:07.0,0.001276016,0.017526627,0.001396179,0,
00:07.0,0.001276016,0.017520905,0.001419067,0,
00:07.0,0.00128746,0.017532349,0.001441956,0,
00:07.0,0.00128746,0.017538071,0.001430511,0,
00:07.0,0.001276016,0.017543793,0.001430511,0,
00:07.0,0.00128746,0.017555237,0.001424789,0,
00:07.0,0.001304626,0.017549515,0.001413345,0,
00:07.0,0.00128746,0.017543793,0.001413345,0,
00:07.0,0.001293182,0.017538071,0.001430511,0,
00:00:07,0.001293182,0.017543793,0.001436234,0,
00:07.0,0.001270294,0.017538071,0.001413345,0,
00:07.0,0.001281738,0.017549515,0.001401901,0,
00:07.0,0.001310349,0.017555237,0.001401901,0,
00:07.0,0.001298904,0.017538071,0.001430511,0,
00:07.0,0.001298904,0.017566681,0.001413345,0,
00:07.0,0.001321793,0.017595291,0.001401901,0,
00:07.0,0.001247406,0.017532349,0.001419067,0,
00:07.0,0.001218796,0.017515182,0.001413345,0,
00:07.0,0.001304626,0.017560959,0.001424789,0,
00:07.0,0.001316071,0.017566681,0.001419067,0,
00:07.0,0.00128746,0.017549515,0.001413345,0,
00:07.0,0.001327515,0.017572403,0.001401901,0,
00:07.1,0.001321793,0.017583847,0.001390457,0,
00:07.1,0.001293182,0.017601013,0.001407623,0,
00:07.1,0.001281738,0.017520905,0.001424789,0,
00:07.1,0.00128746,0.017538071,0.001430511,0,
00:07.1,0.001270294,0.017555237,0.001413345,0,
00:07.1,0.001298904,0.017589569,0.001407623,0,
00:07.1,0.001316071,0.017583847,0.001379013,0,
00:07.1,0.00128746,0.017566681,0.001413345,0,
00:07.1,0.00128746,0.017578125,0.001407623,0,
00:07.1,0.001293182,0.017572403,0.001407623,0,
00:07.1,0.00125885,0.017543793,0.001407623,0,
00:07.1,0.001281738,0.017560959,0.001407623,0,
00:07.1,0.001304626,0.017583847,0.001396179,0,
00:07.1,0.001304626,0.017572403,0.001419067,0,
00:07.1,0.001270294,0.017566681,0.001407623,0,
00:07.1,0.00125885,0.017560959,0.001407623,0,
00:07.1,0.001304626,0.017583847,0.001407623,0,
00:07.1,0.001310349,0.017583847,0.001413345,0,
00:07.1,0.001304626,0.017589569,0.001413345,0,
00:07.1,0.001264572,0.017549515,0.001413345,0,
00:07.1,0.00128746,0.017572403,0.001407623,0,
00:07.1,0.001298904,0.017572403,0.001396179,0,
00:07.1,0.001304626,0.017583847,0.001401901,0,
00:07.1,0.00128746,0.017589569,0.001407623,0,
00:07.1,0.00128746,0.017583847,0.001407623,0,
00:07.2,0.001304626,0.017595291,0.001396179,0,
00:07.2,0.001321793,0.017623901,0.001390457,0,
00:07.2,0.001298904,0.017566681,0.001413345,0,
00:07.2,0.001281738,0.017560959,0.001413345,0,
00:07.2,0.00128746,0.017612457,0.001401901,0,
00:07.2,0.001298904,0.017589569,0.001396179,0,
00:07.2,0.001304626,0.017572403,0.001401901,0,
00:07.2,0.001281738,0.017578125,0.001384735,0,
00:07.2,0.00128746,0.017572403,0.001361847,0,
00:07.2,0.001316071,0.017612457,0.001407623,0,
00:07.2,0.001298904,0.017589569,0.001419067,0,
00:07.2,0.001276016,0.017572403,0.001419067,0,
00:07.2,0.001298904,0.017623901,0.001401901,0,
00:07.2,0.001298904,0.017623901,0.001390457,0,
00:07.2,0.001281738,0.017555237,0.001401901,0,
00:07.2,0.00128746,0.017572403,0.001424789,0,
00:07.2,0.00128746,0.017572403,0.001401901,0,
00:07.2,0.001293182,0.017612457,0.001401901,0,
00:07.2,0.001310349,0.017612457,0.001390457,0,
00:07.2,0.001310349,0.017572403,0.001396179,0,
00:07.2,0.001304626,0.017572403,0.001396179,0,
00:07.2,0.001293182,0.017578125,0.001401901,0,
00:07.2,0.001298904,0.017589569,0.001396179,0,
00:07.2,0.001310349,0.017601013,0.001384735,0,
00:07.2,0.001276016,0.017601013,0.001384735,0,
00:07.3,0.001293182,0.017589569,0.001373291,0,
00:07.3,0.001293182,0.017560959,0.001390457,0,
00:07.3,0.001298904,0.017606735,0.001413345,0,
00:07.3,0.001327515,0.017635345,0.001384735,0,
00:07.3,0.001293182,0.017589569,0.001384735,0,
00:07.3,0.001310349,0.017618179,0.001379013,0,
00:07.3,0.001298904,0.017589569,0.001367569,0,
00:07.3,0.001293182,0.017578125,0.001361847,0,
00:07.3,0.001281738,0.017601013,0.001413345,0,
00:07.3,0.001293182,0.017595291,0.001407623,0,
00:07.3,0.001344681,0.017618179,0.001396179,0,
00:07.3,0.001316071,0.017623901,0.001379013,0,
00:07.3,0.001293182,0.017606735,0.001390457,0,
00:07.3,0.001310349,0.017583847,0.001367569,0,
00:07.3,0.001298904,0.017595291,0.001361847,0,
00:07.3,0.00128746,0.017618179,0.001373291,0,
00:07.3,0.001281738,0.017589569,0.001390457,0,
00:07.3,0.001293182,0.017606735,0.001384735,0,
00:07.3,0.001298904,0.017612457,0.001407623,0,
00:07.3,0.001327515,0.017629623,0.001373291,0,
00:07.3,0.001316071,0.017601013,0.001384735,0,
00:07.3,0.001310349,0.017612457,0.001384735,0,
00:07.3,0.001304626,0.017606735,0.001390457,0,
00:07.3,0.00128746,0.017618179,0.001379013,0,
00:07.3,0.001253128,0.017589569,0.001373291,0,
00:07.4,0.001253128,0.017583847,0.001390457,0,
00:07.4,0.001304626,0.017606735,0.001384735,0,
00:07.4,0.001338959,0.017623901,0.001379013,0,
00:07.4,0.001316071,0.017606735,0.001379013,0,
00:07.4,0.001316071,0.017612457,0.001367569,0,
00:07.4,0.001321793,0.017612457,0.001367569,0,
00:07.4,0.001327515,0.017618179,0.001379013,0,
00:07.4,0.001321793,0.017641068,0.001379013,0,
00:07.4,0.001304626,0.017618179,0.001361847,0,
00:07.4,0.00128746,0.017589569,0.001356125,0,
00:07.4,0.001316071,0.017601013,0.001373291,0,
00:07.4,0.001316071,0.017618179,0.001379013,0,
00:07.4,0.001304626,0.017641068,0.001373291,0,
00:07.4,0.001293182,0.017623901,0.001367569,0,
00:07.4,0.001298904,0.017606735,0.001379013,0,
00:07.4,0.001316071,0.017595291,0.001373291,0,
00:07.4,0.001293182,0.017612457,0.001361847,0,
00:07.4,0.001264572,0.017589569,0.001384735,0,
00:07.4,0.001310349,0.017601013,0.001396179,0,
00:07.4,0.001344681,0.01764679,0.001350403,0,
00:07.4,0.001316071,0.017618179,0.001361847,0,
00:07.4,0.001304626,0.017612457,0.001384735,0,
00:07.4,0.001338959,0.017658234,0.001367569,0,
00:07.4,0.001316071,0.017629623,0.001367569,0,
00:07.4,0.001298904,0.017612457,0.001379013,0,
00:07.5,0.00128746,0.017623901,0.001356125,0,
00:07.5,0.001321793,0.017606735,0.001373291,0,
00:07.5,0.001327515,0.017635345,0.001379013,0,
00:07.5,0.001316071,0.017629623,0.001361847,0,
00:07.5,0.001327515,0.017601013,0.001373291,0,
00:07.5,0.001327515,0.017612457,0.001373291,0,
00:07.5,0.001327515,0.017612457,0.001379013,0,
00:07.5,0.001304626,0.017618179,0.001367569,0,
00:07.5,0.001293182,0.017629623,0.001361847,0,
00:07.5,0.001310349,0.017612457,0.001373291,0,
00:07.5,0.001316071,0.017618179,0.001361847,0,
00:07.5,0.001338959,0.017635345,0.001350403,0,
00:07.5,0.001321793,0.017641068,0.001361847,0,
00:07.5,0.001321793,0.017629623,0.001379013,0,
00:07.5,0.001338959,0.017629623,0.001367569,0,
00:07.5,0.001327515,0.017612457,0.001356125,0,
00:07.5,0.001310349,0.017618179,0.001367569,0,
00:07.5,0.001316071,0.017635345,0.001361847,0,
00:07.5,0.001304626,0.017606735,0.001356125,0,
00:07.5,0.001321793,0.017618179,0.001384735,0,
00:07.5,0.001333237,0.017652512,0.001384735,0,
00:07.5,0.001304626,0.017606735,0.001367569,0,
00:07.5,0.001298904,0.017601013,0.001373291,0,
00:07.5,0.001310349,0.017612457,0.001356125,0,
00:07.5,0.001316071,0.017641068,0.001350403,0,
00:07.6,0.001304626,0.017669678,0.001350403,0,
00:07.6,0.001293182,0.017618179,0.001379013,0,
00:07.6,0.001327515,0.017612457,0.001390457,0,
00:07.6,0.001327515,0.017623901,0.001356125,0,
00:07.6,0.001298904,0.017601013,0.001367569,0,
00:07.6,0.001281738,0.017618179,0.001361847,0,
00:07.6,0.001316071,0.017635345,0.001361847,0,
00:07.6,0.001316071,0.017635345,0.001361847,0,
00:07.6,0.001304626,0.017635345,0.001350403,0,
00:07.6,0.001338959,0.017635345,0.001350403,0,
00:07.6,0.001361847,0.017663956,0.001350403,0,
00:07.6,0.001327515,0.017641068,0.001361847,0,
00:07.6,0.001304626,0.017623901,0.001350403,0,
00:07.6,0.001310349,0.017641068,0.001350403,0,
00:07.6,0.001327515,0.017635345,0.001361847,0,
00:07.6,0.001327515,0.017629623,0.001356125,0,
00:07.6,0.001321793,0.017641068,0.001338959,0,
00:07.6,0.001321793,0.017641068,0.001344681,0,
00:07.6,0.001327515,0.017635345,0.001356125,0,
00:07.6,0.001333237,0.017635345,0.001356125,0,
00:07.6,0.001327515,0.017635345,0.001361847,0,
00:07.6,0.001316071,0.017618179,0.001338959,0,
00:07.6,0.001304626,0.017629623,0.001350403,0,
00:07.6,0.001321793,0.017641068,0.001361847,0,
00:07.6,0.001333237,0.017629623,0.001356125,0,
00:07.7,0.001333237,0.017652512,0.001356125,0,
00:07.7,0.001310349,0.017652512,0.001350403,0,
00:07.7,0.001310349,0.01764679,0.001338959,0,
00:07.7,0.001298904,0.017635345,0.001338959,0,
00:07.7,0.001293182,0.017606735,0.001373291,0,
00:07.7,0.001338959,0.017629623,0.001350403,0,
00:07.7,0.001338959,0.017641068,0.001333237,0,
00:07.7,0.001304626,0.017629623,0.001350403,0,
00:07.7,0.001316071,0.017629623,0.001344681,0,
00:07.7,0.001321793,0.017629623,0.001333237,0,
00:07.7,0.001333237,0.01764679,0.001338959,0,
00:07.7,0.001316071,0.017663956,0.001361847,0,
00:07.7,0.001304626,0.017681122,0.001350403,0,
00:07.7,0.001338959,0.017641068,0.001304626,0,
00:07.7,0.001344681,0.017629623,0.001321793,0,
00:07.7,0.001350403,0.017652512,0.001333237,0,
00:07.7,0.001338959,0.017658234,0.001356125,0,
00:07.7,0.001327515,0.017658234,0.001344681,0,
00:07.7,0.001333237,0.017641068,0.001338959,0,
00:07.7,0.001344681,0.017652512,0.001338959,0,
00:07.7,0.001316071,0.017641068,0.001321793,0,
00:07.7,0.001327515,0.017658234,0.001333237,0,
00:07.7,0.001321793,0.017658234,0.001327515,0,
00:07.7,0.001321793,0.01764679,0.001327515,0,
00:07.7,0.001338959,0.017658234,0.001316071,0,
00:07.8,0.001338959,0.017663956,0.001321793,0,
00:07.8,0.001321793,0.017652512,0.001321793,0,
00:07.8,0.001316071,0.017658234,0.001333237,0,
00:07.8,0.001321793,0.017652512,0.001344681,0,
00:07.8,0.001316071,0.017652512,0.001338959,0,
00:07.8,0.001327515,0.017658234,0.001333237,0,
00:07.8,0.001327515,0.017658234,0.001321793,0,
00:07.8,0.001327515,0.017652512,0.001316071,0,
00:07.8,0.001327515,0.01764679,0.001327515,0,
00:07.8,0.001333237,0.0176754,0.001333237,0,
00:07.8,0.001327515,0.017681122,0.001310349,0,
00:07.8,0.001316071,0.017652512,0.001321793,0,
00:07.8,0.001321793,0.017663956,0.001333237,0,
00:07.8,0.001310349,0.0176754,0.001316071,0,
00:07.8,0.001350403,0.017692566,0.001316071,0,
00:07.8,0.001333237,0.017641068,0.001333237,0,
00:07.8,0.001316071,0.017652512,0.001333237,0,
00:07.8,0.001316071,0.0176754,0.001338959,0,
00:07.8,0.001316071,0.017663956,0.001333237,0,
00:07.8,0.001338959,0.017663956,0.001321793,0,
00:07.8,0.001356125,0.017681122,0.001316071,0,
00:07.8,0.001350403,0.017698288,0.001316071,0,
00:07.8,0.001321793,0.017663956,0.001316071,0,
00:07.8,0.001327515,0.017663956,0.001316071,0,
00:07.8,0.001333237,0.017669678,0.001321793,0,
00:07.9,0.001333237,0.017669678,0.001316071,0,
00:07.9,0.001338959,0.0176754,0.001327515,0,
00:07.9,0.001333237,0.0176754,0.001321793,0,
00:07.9,0.001327515,0.0176754,0.001316071,0,
00:07.9,0.001344681,0.017686844,0.001316071,0,
00:07.9,0.001338959,0.017692566,0.001316071,0,
00:07.9,0.001327515,0.0176754,0.001321793,0,
00:07.9,0.001333237,0.017669678,0.001316071,0,
00:07.9,0.001333237,0.017669678,0.001316071,0,
00:07.9,0.001338959,0.0176754,0.001327515,0,
00:07.9,0.001338959,0.017681122,0.001316071,0,
00:07.9,0.001350403,0.01770401,0.001310349,0,
00:07.9,0.001333237,0.017686844,0.001304626,0,
00:07.9,0.001338959,0.017681122,0.001298904,0,
00:07.9,0.001327515,0.017681122,0.001298904,0,
00:07.9,0.001327515,0.017692566,0.001310349,0,
00:07.9,0.001344681,0.017698288,0.001321793,0,
00:07.9,0.001344681,0.017715454,0.001304626,0,
00:07.9,0.001316071,0.017686844,0.001298904,0,
00:07.9,0.001333237,0.017669678,0.001304626,0,
00:07.9,0.001327515,0.017698288,0.001310349,0,
00:07.9,0.001316071,0.017681122,0.001327515,0,
00:07.9,0.001327515,0.017681122,0.001321793,0,
00:07.9,0.001356125,0.01770401,0.001276016,0,
00:07.9,0.001356125,0.017709732,0.001304626,0,
00:08.0,0.001344681,0.017698288,0.001304626,0,
00:08.0,0.001321793,0.017681122,0.001293182,0,
00:08.0,0.001338959,0.017692566,0.001316071,0,
00:08.0,0.001316071,0.01770401,0.001316071,0,
00:08.0,0.001327515,0.017709732,0.001298904,0,
00:08.0,0.001356125,0.017715454,0.00128746,0,
00:08.0,0.001344681,0.017709732,0.001298904,0,
00:08.0,0.001333237,0.017692566,0.001304626,0,
00:08.0,0.001338959,0.017686844,0.001304626,0,
00:08.0,0.001333237,0.017686844,0.001304626,0,
00:08.0,0.001321793,0.017692566,0.001304626,0,
00:08.0,0.001344681,0.017726898,0.001298904,0,
00:00:08,0.001327515,0.017686844,0.001293182,0,
00:08.0,0.001310349,0.017692566,0.001304626,0,
00:08.0,0.001333237,0.017709732,0.001298904,0,
00:08.0,0.001327515,0.017692566,0.001310349,0,
00:08.0,0.001310349,0.017681122,0.001310349,0,
00:08.0,0.001344681,0.017698288,0.001298904,0,
00:08.0,0.001350403,0.017692566,0.001304626,0,
00:08.0,0.001344681,0.01770401,0.001310349,0,
00:08.0,0.001350403,0.01773262,0.001298904,0,
00:08.0,0.001333237,0.017709732,0.00128746,0,
00:08.0,0.001321793,0.017692566,0.00128746,0,
00:08.0,0.001310349,0.017698288,0.001304626,0,
00:08.0,0.001310349,0.017681122,0.001316071,0,
00:08.1,0.001350403,0.017698288,0.001304626,0,
00:08.1,0.001361847,0.017715454,0.001293182,0,
00:08.1,0.001350403,0.017721176,0.001293182,0,
00:08.1,0.001350403,0.017715454,0.00128746,0,
00:08.1,0.001350403,0.017721176,0.001293182,0,
00:08.1,0.001350403,0.017709732,0.00128746,0,
00:08.1,0.001338959,0.017698288,0.001293182,0,
00:08.1,0.001327515,0.017698288,0.00128746,0,
00:08.1,0.001338959,0.017709732,0.00128746,0,
00:08.1,0.001338959,0.017698288,0.00128746,0,
00:08.1,0.001327515,0.01770401,0.001293182,0,
00:08.1,0.001327515,0.017709732,0.00128746,0,
00:08.1,0.001344681,0.017721176,0.001281738,0,
00:08.1,0.001350403,0.017726898,0.001276016,0,
00:08.1,0.001338959,0.017686844,0.00128746,0,
00:08.1,0.001333237,0.01770401,0.001327515,0,
00:08.1,0.001327515,0.017715454,0.001304626,0,
00:08.1,0.001350403,0.017726898,0.00125885,0,
00:08.1,0.001350403,0.017721176,0.001270294,0,
00:08.1,0.001344681,0.017721176,0.001281738,0,
00:08.1,0.001327515,0.01770401,0.00128746,0,
00:08.1,0.001310349,0.017698288,0.001298904,0,
00:08.1,0.001304626,0.017709732,0.00128746,0,
00:08.1,0.001344681,0.017721176,0.001270294,0,
00:08.1,0.001338959,0.017715454,0.001276016,0,
00:08.2,0.001344681,0.017726898,0.001281738,0,
00:08.2,0.001338959,0.017721176,0.001253128,0,
00:08.2,0.001327515,0.017715454,0.001276016,0,
00:08.2,0.001316071,0.017715454,0.001270294,0,
00:08.2,0.001321793,0.017721176,0.00128746,0,
00:08.2,0.001350403,0.017721176,0.001276016,0,
00:08.2,0.001373291,0.017738342,0.001281738,0,
00:08.2,0.001350403,0.01773262,0.00128746,0,
00:08.2,0.001327515,0.017715454,0.001270294,0,
00:08.2,0.001338959,0.017721176,0.00128746,0,
00:08.2,0.001350403,0.017726898,0.001270294,0,
00:08.2,0.001321793,0.017721176,0.001276016,0,
00:08.2,0.001338959,0.017721176,0.00128746,0,
00:08.2,0.001333237,0.017726898,0.00128746,0,
00:08.2,0.001344681,0.017726898,0.001270294,0,
00:08.2,0.001344681,0.01773262,0.001270294,0,
00:08.2,0.001350403,0.017749786,0.001281738,0,
00:08.2,0.001321793,0.01770401,0.001276016,0,
00:08.2,0.001333237,0.017715454,0.001276016,0,
00:08.2,0.001344681,0.017726898,0.001276016,0,
00:08.2,0.001338959,0.017715454,0.001281738,0,
00:08.2,0.001327515,0.017726898,0.00128746,0,
00:08.2,0.001338959,0.017726898,0.001276016,0,
00:08.2,0.001344681,0.017726898,0.001270294,0,
00:08.2,0.001338959,0.017726898,0.001270294,0,
00:08.3,0.001338959,0.017726898,0.001270294,0,
00:08.3,0.001344681,0.017749786,0.001264572,0,
00:08.3,0.001327515,0.01776123,0.001241684,0,
00:08.3,0.001298904,0.017715454,0.001253128,0,
00:08.3,0.001338959,0.017721176,0.001281738,0,
00:08.3,0.001361847,0.017726898,0.001270294,0,
00:08.3,0.001344681,0.017721176,0.001264572,0,
00:08.3,0.001350403,0.017744064,0.00125885,0,
00:08.3,0.001338959,0.017721176,0.00125885,0,
00:08.3,0.001321793,0.01770401,0.001264572,0,
00:08.3,0.001333237,0.017744064,0.001264572,0,
00:08.3,0.001327515,0.01776123,0.00125885,0,
00:08.3,0.001350403,0.017778397,0.001253128,0,
00:08.3,0.001333237,0.017726898,0.001264572,0,
00:08.3,0.001344681,0.017721176,0.001276016,0,
00:08.3,0.001338959,0.017726898,0.001264572,0,
00:08.3,0.001356125,0.017766953,0.001253128,0,
00:08.3,0.001361847,0.017772675,0.001247406,0,
00:08.3,0.001333237,0.017726898,0.00128746,0,
00:08.3,0.001327515,0.017709732,0.001264572,0,
00:08.3,0.001338959,0.017726898,0.001264572,0,
00:08.3,0.001333237,0.01773262,0.00125885,0,
00:08.3,0.001338959,0.017738342,0.001264572,0,
00:08.3,0.001338959,0.017738342,0.00125885,0,
00:08.3,0.001344681,0.017744064,0.001247406,0,
00:08.4,0.001344681,0.017738342,0.00125885,0,
00:08.4,0.001344681,0.017749786,0.001270294,0,
00:08.4,0.001338959,0.017744064,0.00125885,0,
00:08.4,0.001356125,0.017738342,0.00125885,0,
00:08.4,0.001379013,0.017772675,0.001253128,0,
00:08.4,0.001333237,0.01773262,0.001253128,0,
00:08.4,0.001327515,0.01773262,0.00125885,0,
00:08.4,0.001333237,0.017726898,0.00125885,0,
00:08.4,0.001338959,0.01773262,0.001247406,0,
00:08.4,0.001344681,0.017755508,0.001247406,0,
00:08.4,0.001338959,0.017744064,0.001253128,0,
00:08.4,0.001344681,0.017749786,0.00125885,0,
00:08.4,0.001356125,0.01776123,0.001253128,0,
00:08.4,0.001356125,0.017755508,0.001247406,0,
00:08.4,0.001333237,0.017749786,0.001247406,0,
00:08.4,0.001327515,0.017755508,0.00125885,0,
00:08.4,0.001321793,0.017755508,0.001264572,0,
00:08.4,0.001344681,0.017755508,0.001247406,0,
00:08.4,0.001356125,0.017744064,0.001247406,0,
00:08.4,0.001350403,0.017744064,0.001247406,0,
00:08.4,0.001344681,0.017744064,0.001235962,0,
00:08.4,0.001321793,0.017738342,0.001241684,0,
00:08.4,0.001327515,0.017755508,0.001247406,0,
00:08.4,0.001350403,0.01776123,0.001247406,0,
00:08.4,0.001373291,0.017755508,0.001247406,0,
00:08.5,0.001373291,0.017755508,0.001241684,0,
00:08.5,0.001338959,0.017749786,0.001235962,0,
00:08.5,0.001344681,0.017744064,0.001235962,0,
00:08.5,0.001350403,0.017755508,0.001241684,0,
00:08.5,0.001338959,0.017755508,0.00123024,0,
00:08.5,0.001350403,0.017778397,0.001253128,0,
00:08.5,0.001344681,0.017766953,0.001247406,0,
00:08.5,0.001338959,0.017755508,0.001241684,0,
00:08.5,0.001350403,0.017744064,0.001247406,0,
00:08.5,0.001379013,0.017784119,0.001235962,0,
00:08.5,0.001367569,0.017766953,0.00123024,0,
00:08.5,0.001321793,0.017738342,0.001247406,0,
00:08.5,0.001344681,0.017772675,0.001247406,0,
00:08.5,0.001344681,0.01776123,0.001241684,0,
00:08.5,0.001344681,0.01776123,0.001253128,0,
00:08.5,0.001356125,0.017778397,0.001241684,0,
00:08.5,0.001344681,0.017766953,0.001241684,0,
00:08.5,0.001338959,0.017755508,0.001253128,0,
00:08.5,0.001344681,0.017755508,0.001247406,0,
00:08.5,0.001350403,0.01776123,0.001241684,0,
00:08.5,0.001356125,0.017766953,0.001224518,0,
00:08.5,0.001350403,0.017778397,0.00123024,0,
00:08.5,0.001338959,0.01776123,0.001235962,0,
00:08.5,0.001344681,0.017755508,0.001235962,0,
00:08.5,0.001338959,0.017766953,0.001235962,0,
00:08.6,0.001350403,0.017772675,0.001241684,0,
00:08.6,0.001361847,0.017772675,0.001241684,0,
00:08.6,0.001350403,0.017766953,0.00123024,0,
00:08.6,0.001350403,0.01776123,0.001224518,0,
00:08.6,0.001338959,0.017766953,0.00123024,0,
00:08.6,0.001361847,0.017795563,0.001218796,0,
00:08.6,0.001356125,0.017772675,0.001218796,0,
00:08.6,0.001344681,0.017772675,0.001235962,0,
00:08.6,0.001356125,0.017766953,0.00123024,0,
00:08.6,0.001356125,0.017778397,0.00123024,0,
00:08.6,0.001361847,0.017778397,0.00123024,0,
00:08.6,0.001367569,0.017789841,0.001207352,0,
00:08.6,0.001361847,0.017778397,0.001207352,0,
00:08.6,0.001350403,0.017772675,0.001218796,0,
00:08.6,0.001344681,0.017778397,0.001241684,0,
00:08.6,0.001344681,0.017795563,0.001235962,0,
00:08.6,0.001356125,0.017801285,0.001218796,0,
00:08.6,0.001367569,0.017807007,0.001207352,0,
00:08.6,0.001344681,0.017772675,0.001224518,0,
00:08.6,0.001333237,0.01776123,0.00123024,0,
00:08.6,0.001333237,0.017772675,0.001218796,0,
00:08.6,0.001350403,0.017789841,0.001224518,0,
00:08.6,0.001356125,0.017789841,0.001224518,0,
00:08.6,0.001350403,0.017795563,0.001218796,0,
00:08.6,0.001338959,0.017784119,0.001218796,0,
00:08.7,0.001350403,0.017789841,0.001224518,0,
00:08.7,0.001356125,0.017795563,0.001218796,0,
00:08.7,0.001367569,0.017789841,0.001213074,0,
00:08.7,0.001373291,0.017784119,0.001213074,0,
00:08.7,0.001350403,0.017778397,0.001218796,0,
00:08.7,0.001350403,0.017789841,0.001207352,0,
00:08.7,0.001350403,0.017801285,0.001207352,0,
00:08.7,0.001356125,0.017801285,0.001207352,0,
00:08.7,0.001356125,0.017807007,0.001207352,0,
00:08.7,0.001344681,0.017766953,0.001224518,0,
00:08.7,0.001344681,0.017778397,0.001218796,0,
00:08.7,0.001356125,0.017801285,0.001213074,0,
00:08.7,0.001356125,0.017784119,0.001224518,0,
00:08.7,0.001350403,0.017772675,0.001213074,0,
00:08.7,0.001344681,0.017784119,0.001207352,0,
00:08.7,0.001356125,0.017795563,0.001213074,0,
00:08.7,0.001361847,0.017789841,0.00120163,0,
00:08.7,0.001361847,0.017801285,0.001207352,0,
00:08.7,0.001361847,0.017801285,0.00120163,0,
00:08.7,0.001344681,0.017789841,0.001190186,0,
00:08.7,0.001338959,0.017789841,0.001195908,0,
00:08.7,0.001350403,0.017789841,0.001190186,0,
00:08.7,0.001361847,0.017807007,0.001190186,0,
00:08.7,0.001373291,0.017807007,0.001184464,0,
00:08.7,0.001321793,0.017778397,0.001207352,0,
00:08.8,0.001316071,0.017789841,0.001224518,0,
00:08.8,0.001327515,0.017795563,0.00120163,0,
00:08.8,0.001350403,0.017795563,0.00120163,0,
00:08.8,0.001396179,0.017824173,0.00120163,0,
00:08.8,0.001367569,0.017818451,0.00120163,0,
00:08.8,0.001356125,0.017789841,0.00120163,0,
00:08.8,0.001361847,0.017789841,0.00120163,0,
00:08.8,0.001361847,0.017801285,0.001195908,0,
00:08.8,0.001361847,0.017801285,0.001190186,0,
00:08.8,0.001361847,0.017795563,0.001195908,0,
00:08.8,0.001350403,0.017789841,0.00120163,0,
00:08.8,0.001338959,0.017807007,0.001207352,0,
00:08.8,0.001327515,0.017807007,0.001190186,0,
00:08.8,0.001327515,0.017789841,0.00120163,0,
00:08.8,0.001361847,0.017801285,0.001195908,0,
00:08.8,0.001379013,0.017812729,0.001178741,0,
00:08.8,0.001356125,0.017801285,0.001178741,0,
00:08.8,0.001367569,0.017795563,0.001178741,0,
00:08.8,0.001350403,0.017807007,0.001184464,0,
00:08.8,0.001361847,0.017812729,0.001190186,0,
00:08.8,0.001373291,0.017801285,0.001190186,0,
00:08.8,0.001350403,0.017795563,0.001190186,0,
00:08.8,0.001361847,0.017812729,0.001184464,0,
00:08.8,0.001373291,0.017818451,0.001178741,0,
00:08.8,0.001356125,0.017807007,0.001178741,0,
00:08.9,0.001344681,0.017784119,0.001190186,0,
00:08.9,0.001344681,0.017795563,0.001195908,0,
00:08.9,0.001356125,0.017807007,0.001190186,0,
00:08.9,0.001367569,0.017824173,0.001190186,0,
00:08.9,0.001367569,0.017818451,0.001178741,0,
00:08.9,0.001344681,0.017789841,0.001190186,0,
00:08.9,0.001350403,0.017795563,0.001190186,0,
00:08.9,0.001350403,0.017795563,0.001184464,0,
00:08.9,0.001350403,0.017795563,0.001190186,0,
00:08.9,0.001361847,0.017818451,0.001184464,0,
00:08.9,0.001361847,0.017824173,0.001184464,0,
00:08.9,0.001350403,0.017812729,0.001178741,0,
00:08.9,0.001344681,0.017807007,0.001178741,0,
00:08.9,0.001356125,0.017801285,0.001184464,0,
00:08.9,0.001361847,0.017807007,0.001184464,0,
00:08.9,0.001361847,0.017818451,0.001173019,0,
00:08.9,0.001361847,0.017835617,0.001178741,0,
00:08.9,0.001356125,0.017829895,0.001178741,0,
00:08.9,0.001356125,0.017801285,0.001173019,0,
00:08.9,0.001361847,0.017812729,0.001178741,0,
00:08.9,0.001361847,0.017812729,0.001190186,0,
00:08.9,0.001356125,0.017812729,0.001190186,0,
00:08.9,0.001356125,0.017812729,0.001178741,0,
00:08.9,0.001361847,0.017807007,0.001178741,0,
00:08.9,0.001356125,0.017807007,0.001173019,0,
00:09.0,0.001356125,0.017807007,0.001184464,0,
00:09.0,0.001344681,0.017818451,0.001178741,0,
00:09.0,0.001356125,0.017818451,0.001167297,0,
00:09.0,0.001373291,0.017824173,0.001161575,0,
00:09.0,0.001361847,0.017829895,0.001167297,0,
00:09.0,0.001356125,0.017829895,0.001173019,0,
00:09.0,0.001344681,0.017824173,0.001150131,0,
00:09.0,0.001333237,0.017812729,0.001167297,0,
00:09.0,0.001379013,0.017818451,0.001167297,0,
00:09.0,0.001379013,0.017824173,0.001173019,0,
00:09.0,0.001367569,0.017824173,0.001178741,0,
00:09.0,0.001361847,0.017818451,0.001173019,0,
00:00:09,0.001373291,0.017818451,0.001173019,0,
00:09.0,0.001373291,0.017835617,0.001161575,0,
00:09.0,0.001344681,0.017824173,0.001155853,0,
00:09.0,0.001350403,0.017807007,0.001161575,0,
00:09.0,0.001361847,0.017812729,0.001155853,0,
00:09.0,0.001356125,0.017812729,0.001167297,0,
00:09.0,0.001356125,0.017824173,0.001167297,0,
00:09.0,0.001361847,0.017824173,0.001167297,0,
00:09.0,0.001367569,0.017835617,0.001155853,0,
00:09.0,0.001367569,0.017835617,0.001155853,0,
00:09.0,0.001361847,0.017824173,0.001144409,0,
00:09.0,0.001367569,0.017801285,0.001161575,0,
00:09.0,0.001367569,0.017818451,0.001161575,0,
00:09.1,0.001373291,0.017852783,0.001144409,0,
00:09.1,0.001373291,0.017852783,0.001161575,0,
00:09.1,0.001356125,0.017818451,0.001150131,0,
00:09.1,0.001338959,0.017795563,0.001155853,0,
00:09.1,0.001361847,0.017824173,0.001161575,0,
00:09.1,0.001361847,0.017835617,0.001150131,0,
00:09.1,0.001338959,0.017835617,0.001144409,0,
00:09.1,0.001356125,0.017835617,0.001144409,0,
00:09.1,0.001373291,0.017824173,0.001144409,0,
00:09.1,0.001379013,0.017829895,0.001144409,0,
00:09.1,0.001373291,0.017847061,0.001144409,0,
00:09.1,0.001356125,0.017829895,0.001144409,0,
00:09.1,0.001367569,0.017829895,0.001138687,0,
00:09.1,0.001361847,0.017847061,0.001138687,0,
00:09.1,0.001361847,0.017852783,0.001144409,0,
00:09.1,0.001356125,0.017835617,0.001138687,0,
00:09.1,0.001344681,0.017824173,0.001138687,0,
00:09.1,0.001373291,0.017835617,0.001132965,0,
00:09.1,0.001373291,0.017841339,0.001127243,0,
00:09.1,0.001373291,0.017841339,0.001138687,0,
00:09.1,0.001367569,0.017824173,0.001138687,0,
00:09.1,0.001344681,0.017824173,0.001138687,0,
00:09.1,0.001350403,0.017841339,0.001150131,0,
00:09.1,0.001367569,0.017835617,0.001138687,0,
00:09.1,0.001373291,0.017841339,0.001132965,0,
00:09.2,0.001367569,0.017847061,0.001132965,0,
00:09.2,0.001367569,0.017835617,0.001127243,0,
00:09.2,0.001356125,0.017841339,0.001127243,0,
00:09.2,0.001367569,0.017824173,0.001138687,0,
00:09.2,0.001361847,0.017824173,0.001138687,0,
00:09.2,0.001344681,0.017841339,0.001138687,0,
00:09.2,0.001356125,0.017835617,0.001127243,0,
00:09.2,0.001373291,0.017852783,0.001115799,0,
00:09.2,0.001373291,0.017852783,0.001132965,0,
00:09.2,0.001367569,0.017847061,0.001144409,0,
00:09.2,0.001356125,0.017841339,0.001127243,0,
00:09.2,0.001356125,0.017829895,0.001127243,0,
00:09.2,0.001356125,0.017829895,0.001132965,0,
00:09.2,0.001361847,0.017835617,0.001127243,0,
00:09.2,0.001361847,0.017835617,0.001127243,0,
00:09.2,0.001367569,0.017858505,0.001121521,0,
00:09.2,0.001373291,0.017864227,0.001121521,0,
00:09.2,0.001384735,0.017875671,0.001127243,0,
00:09.2,0.001367569,0.017829895,0.001132965,0,
00:09.2,0.001350403,0.017829895,0.001121521,0,
00:09.2,0.001361847,0.017852783,0.001121521,0,
00:09.2,0.001361847,0.017841339,0.001127243,0,
00:09.2,0.001356125,0.017829895,0.001127243,0,
00:09.2,0.001356125,0.017835617,0.001127243,0,
00:09.2,0.001367569,0.017847061,0.001121521,0,
00:09.3,0.001373291,0.017852783,0.001121521,0,
00:09.3,0.001367569,0.017864227,0.001115799,0,
00:09.3,0.001350403,0.017847061,0.001115799,0,
00:09.3,0.001356125,0.017841339,0.001121521,0,
00:09.3,0.001350403,0.017847061,0.001121521,0,
00:09.3,0.001361847,0.017864227,0.001121521,0,
00:09.3,0.001367569,0.017841339,0.001110077,0,
00:09.3,0.001361847,0.017835617,0.001110077,0,
00:09.3,0.001367569,0.017835617,0.001110077,0,
00:09.3,0.001361847,0.017841339,0.001121521,0,
00:09.3,0.001361847,0.017852783,0.001115799,0,
00:09.3,0.001367569,0.017858505,0.001104355,0,
00:09.3,0.001390457,0.017858505,0.001092911,0,
00:09.3,0.001384735,0.017852783,0.001098633,0,
00:09.3,0.001350403,0.017858505,0.001104355,0,
00:09.3,0.001350403,0.017852783,0.001121521,0,
00:09.3,0.001361847,0.017847061,0.001115799,0,
00:09.3,0.001373291,0.017858505,0.001104355,0,
00:09.3,0.001367569,0.017841339,0.001132965,0,
00:09.3,0.001367569,0.017858505,0.001115799,0,
00:09.3,0.001350403,0.017847061,0.001098633,0,
00:09.3,0.001350403,0.017852783,0.001104355,0,
00:09.3,0.001350403,0.017829895,0.001104355,0,
00:09.3,0.001356125,0.017841339,0.001098633,0,
00:09.3,0.001361847,0.017847061,0.001104355,0,
00:09.4,0.001361847,0.017852783,0.001092911,0,
00:09.4,0.001356125,0.017864227,0.001092911,0,
00:09.4,0.001361847,0.017864227,0.001098633,0,
00:09.4,0.001373291,0.017858505,0.001092911,0,
00:09.4,0.001367569,0.017864227,0.001098633,0,
00:09.4,0.001361847,0.017869949,0.001098633,0,
00:09.4,0.001367569,0.017852783,0.001092911,0,
00:09.4,0.001361847,0.017847061,0.001087189,0,
00:09.4,0.001350403,0.017852783,0.001098633,0,
00:09.4,0.001356125,0.017852783,0.001104355,0,
00:09.4,0.001361847,0.017858505,0.001098633,0,
00:09.4,0.001356125,0.017858505,0.001092911,0,
00:09.4,0.001379013,0.017875671,0.001087189,0,
00:09.4,0.001373291,0.017869949,0.001070023,0,
00:09.4,0.001356125,0.017858505,0.001087189,0,
00:09.4,0.001361847,0.017852783,0.001098633,0,
00:09.4,0.001367569,0.017858505,0.001092911,0,
00:09.4,0.001379013,0.017881393,0.001081467,0,
00:09.4,0.001373291,0.017858505,0.001087189,0,
00:09.4,0.001361847,0.017835617,0.001087189,0,
00:09.4,0.001356125,0.017852783,0.001087189,0,
00:09.4,0.001361847,0.017869949,0.001087189,0,
00:09.4,0.001367569,0.017869949,0.001087189,0,
00:09.4,0.001373291,0.017858505,0.001081467,0,
00:09.4,0.001367569,0.017858505,0.001087189,0,
00:09.5,0.001367569,0.017864227,0.001081467,0,
00:09.5,0.001361847,0.017864227,0.001075745,0,
00:09.5,0.001361847,0.017864227,0.001075745,0,
00:09.5,0.001356125,0.017858505,0.001075745,0,
00:09.5,0.001361847,0.017858505,0.001070023,0,
00:09.5,0.001379013,0.017858505,0.001070023,0,
00:09.5,0.001367569,0.017864227,0.001081467,0,
00:09.5,0.001350403,0.017881393,0.001081467,0,
00:09.5,0.001361847,0.017881393,0.001087189,0,
00:09.5,0.001379013,0.017881393,0.001070023,0,
00:09.5,0.001361847,0.017864227,0.001070023,0,
00:09.5,0.001361847,0.017864227,0.001075745,0,
00:09.5,0.001379013,0.017881393,0.001064301,0,
00:09.5,0.001367569,0.017869949,0.001070023,0,
00:09.5,0.001373291,0.017869949,0.001075745,0,
00:09.5,0.001367569,0.017869949,0.001070023,0,
00:09.5,0.001356125,0.017858505,0.001081467,0,
00:09.5,0.001356125,0.017858505,0.001075745,0,
00:09.5,0.001379013,0.017864227,0.001075745,0,
00:09.5,0.001379013,0.017887115,0.001075745,0,
00:09.5,0.001367569,0.017887115,0.001064301,0,
00:09.5,0.001356125,0.017875671,0.001064301,0,
00:09.5,0.001361847,0.017864227,0.001064301,0,
00:09.5,0.001373291,0.017852783,0.001064301,0,
00:09.5,0.001379013,0.017869949,0.001064301,0,
00:09.6,0.001373291,0.017869949,0.001070023,0,
00:09.6,0.001373291,0.017881393,0.001052856,0,
00:09.6,0.001367569,0.017864227,0.001047134,0,
00:09.6,0.001379013,0.017864227,0.001058578,0,
00:09.6,0.001384735,0.017881393,0.001064301,0,
00:09.6,0.001361847,0.017869949,0.001058578,0,
00:09.6,0.001356125,0.017875671,0.001058578,0,
00:09.6,0.001367569,0.017881393,0.001058578,0,
00:09.6,0.001361847,0.017875671,0.001058578,0,
00:09.6,0.001367569,0.017869949,0.001058578,0,
00:09.6,0.001379013,0.017887115,0.001052856,0,
00:09.6,0.001379013,0.017887115,0.001047134,0,
00:09.6,0.001390457,0.017892838,0.001041412,0,
00:09.6,0.001390457,0.017875671,0.001052856,0,
00:09.6,0.001361847,0.017869949,0.001052856,0,
00:09.6,0.001344681,0.017881393,0.001064301,0,
00:09.6,0.001373291,0.017881393,0.001041412,0,
00:09.6,0.001390457,0.017892838,0.001041412,0,
00:09.6,0.001373291,0.017875671,0.001029968,0,
00:09.6,0.001356125,0.017835617,0.001041412,0,
00:09.6,0.001361847,0.017812729,0.001047134,0,
00:09.6,0.001373291,0.017807007,0.001052856,0,
00:09.6,0.001367569,0.017812729,0.001047134,0,
00:09.6,0.001361847,0.017858505,0.00103569,0,
00:09.6,0.001373291,0.01789856,0.001041412,0,
00:09.7,0.001373291,0.017915726,0.001041412,0,
00:09.7,0.001373291,0.017875671,0.001041412,0,
00:09.7,0.001367569,0.017852783,0.00103569,0,
00:09.7,0.001379013,0.017869949,0.00103569,0,
00:09.7,0.001379013,0.017887115,0.001041412,0,
00:09.7,0.001373291,0.017910004,0.00103569,0,
00:09.7,0.001384735,0.017938614,0.00103569,0,
00:09.7,0.001390457,0.017904282,0.00103569,0,
00:09.7,0.001384735,0.01789856,0.001029968,0,
00:09.7,0.001396179,0.017915726,0.00103569,0,
00:09.7,0.001379013,0.01789856,0.001024246,0,
00:09.7,0.001361847,0.017881393,0.001029968,0,
00:09.7,0.001384735,0.017875671,0.00103569,0,
00:09.7,0.001390457,0.017881393,0.001041412,0,
00:09.7,0.001384735,0.017887115,0.00103569,0,
00:09.7,0.001384735,0.01789856,0.001029968,0,
00:09.7,0.001384735,0.017881393,0.001041412,0,
00:09.7,0.001379013,0.017875671,0.001041412,0,
00:09.7,0.001373291,0.017875671,0.001029968,0,
00:09.7,0.001396179,0.017881393,0.00103569,0,
00:09.7,0.001396179,0.017881393,0.00103569,0,
00:09.7,0.001390457,0.017892838,0.00103569,0,
00:09.7,0.001384735,0.017869949,0.00103569,0,
00:09.7,0.001384735,0.017864227,0.00103569,0,
00:09.7,0.001401901,0.017887115,0.001029968,0,
00:09.8,0.001379013,0.017887115,0.001024246,0,
00:09.8,0.001379013,0.017858505,0.00103569,0,
00:09.8,0.001396179,0.017881393,0.001024246,0,
00:09.8,0.001384735,0.01789856,0.001029968,0,
00:09.8,0.001384735,0.017881393,0.001041412,0,
00:09.8,0.001379013,0.017875671,0.001029968,0,
00:09.8,0.001396179,0.01789856,0.001024246,0,
00:09.8,0.001401901,0.017887115,0.001029968,0,
00:09.8,0.001390457,0.017881393,0.001029968,0,
00:09.8,0.001379013,0.017881393,0.001018524,0,
00:09.8,0.001384735,0.017887115,0.001018524,0,
00:09.8,0.001390457,0.017887115,0.001024246,0,
00:09.8,0.001396179,0.017875671,0.001029968,0,
00:09.8,0.001390457,0.017875671,0.001029968,0,
00:09.8,0.001396179,0.017881393,0.00100708,0,
00:09.8,0.001384735,0.017887115,0.001012802,0,
00:09.8,0.001384735,0.017887115,0.001024246,0,
00:09.8,0.001390457,0.017887115,0.001018524,0,
00:09.8,0.001384735,0.017881393,0.001012802,0,
00:09.8,0.001373291,0.017881393,0.001018524,0,
00:09.8,0.001396179,0.017892838,0.001018524,0,
00:09.8,0.001407623,0.017904282,0.001012802,0,
00:09.8,0.001379013,0.017881393,0.001018524,0,
00:09.8,0.001361847,0.017881393,0.001012802,0,
00:09.8,0.001390457,0.017887115,0.001012802,0,
00:09.9,0.001407623,0.017910004,0.00100708,0,
00:09.9,0.001407623,0.017915726,0.000995636,0,
00:09.9,0.001384735,0.017869949,0.000995636,0,
00:09.9,0.001379013,0.017864227,0.001018524,0,
00:09.9,0.001384735,0.017875671,0.001024246,0,
00:09.9,0.001390457,0.017887115,0.001029968,0,
00:09.9,0.001396179,0.017887115,0.001024246,0,
00:09.9,0.001413345,0.017904282,0.001001358,0,
00:09.9,0.001396179,0.017892838,0.00100708,0,
00:09.9,0.001379013,0.017881393,0.00100708,0,
00:09.9,0.001373291,0.017881393,0.001001358,0,
00:09.9,0.001384735,0.017881393,0.001001358,0,
00:09.9,0.001396179,0.01789856,0.001018524,0,
00:09.9,0.001401901,0.017910004,0.001012802,0,
00:09.9,0.001396179,0.01789856,0.001012802,0,
00:09.9,0.001396179,0.017904282,0.00100708,0,
00:09.9,0.001384735,0.017869949,0.001001358,0,
00:09.9,0.001390457,0.017881393,0.00100708,0,
00:09.9,0.001396179,0.017904282,0.00100708,0,
00:09.9,0.001390457,0.017915726,0.000995636,0,
00:09.9,0.001390457,0.01789856,0.00100708,0,
00:09.9,0.001396179,0.01789856,0.001001358,0,
00:09.9,0.001407623,0.017915726,0.000984192,0,
00:09.9,0.001407623,0.017904282,0.00097847,0,
00:09.9,0.001384735,0.017875671,0.001001358,0,
00:10.0,0.001373291,0.01789856,0.00100708,0,
00:10.0,0.001373291,0.017892838,0.001001358,0,
00:10.0,0.001396179,0.01789856,0.001001358,0,
00:10.0,0.001413345,0.017910004,0.001001358,0,
00:10.0,0.001396179,0.017904282,0.000995636,0,
00:10.0,0.001373291,0.01789856,0.000995636,0,
00:10.0,0.001384735,0.017892838,0.000995636,0,
00:10.0,0.001407623,0.017887115,0.000995636,0,
00:10.0,0.001407623,0.017904282,0.000995636,0,
00:10.0,0.001390457,0.01789856,0.000989914,0,
00:10.0,0.001390457,0.017910004,0.000984192,0,
00:10.0,0.001384735,0.017904282,0.000989914,0,
00:00:10,0.001384735,0.017887115,0.000989914,0,
00:10.0,0.001401901,0.017887115,0.000989914,0,
00:10.0,0.001390457,0.01789856,0.000989914,0,
00:10.0,0.001390457,0.017910004,0.000984192,0,
00:10.0,0.001396179,0.017904282,0.000989914,0,
00:10.0,0.001396179,0.01789856,0.000989914,0,
00:10.0,0.001390457,0.017904282,0.000984192,0,
00:10.0,0.001390457,0.017910004,0.00097847,0,
00:10.0,0.001396179,0.017915726,0.00097847,0,
00:10.0,0.001401901,0.017910004,0.00097847,0,
00:10.0,0.001390457,0.017887115,0.00097847,0,
00:10.0,0.001384735,0.017887115,0.00097847,0,
00:10.0,0.001384735,0.017910004,0.000972748,0,
00:10.1,0.001379013,0.017910004,0.00097847,0,
00:10.1,0.001396179,0.017904282,0.000972748,0,
00:10.1,0.001396179,0.01789856,0.00097847,0,
00:10.1,0.001390457,0.017892838,0.000961304,0,
00:10.1,0.001373291,0.017892838,0.000972748,0,
00:10.1,0.001384735,0.01789856,0.000967026,0,
00:10.1,0.001396179,0.01789856,0.000967026,0,
00:10.1,0.001401901,0.017904282,0.000961304,0,
00:10.1,0.001384735,0.017921448,0.000967026,0,
00:10.1,0.001379013,0.017921448,0.000972748,0,
00:10.1,0.001384735,0.017904282,0.000972748,0,
00:10.1,0.001384735,0.017910004,0.000961304,0,
00:10.1,0.001396179,0.017904282,0.000967026,0,
00:10.1,0.001396179,0.017910004,0.000955582,0,
00:10.1,0.001401901,0.017921448,0.000961304,0,
00:10.1,0.001390457,0.017915726,0.000961304,0,
00:10.1,0.001373291,0.01789856,0.00094986,0,
00:10.1,0.001401901,0.017915726,0.000955582,0,
00:10.1,0.001401901,0.017921448,0.000955582,0,
00:10.1,0.001396179,0.01792717,0.00094986,0,
00:10.1,0.001396179,0.017904282,0.000938416,0,
00:10.1,0.001396179,0.017910004,0.00094986,0,
00:10.1,0.001396179,0.017915726,0.00094986,0,
00:10.1,0.001384735,0.017910004,0.000955582,0,
00:10.1,0.001390457,0.017910004,0.00094986,0,
00:10.2,0.001384735,0.01789856,0.000944138,0,
00:10.2,0.001384735,0.017910004,0.000944138,0,
00:10.2,0.001401901,0.017921448,0.000938416,0,
00:10.2,0.001390457,0.017910004,0.00094986,0,
00:10.2,0.001396179,0.017915726,0.00094986,0,
00:10.2,0.001390457,0.01792717,0.000938416,0,
00:10.2,0.001390457,0.017904282,0.00094986,0,
00:10.2,0.001396179,0.017915726,0.000944138,0,
00:10.2,0.001401901,0.017921448,0.000932693,0,
00:10.2,0.001390457,0.017910004,0.000932693,0,
00:10.2,0.001390457,0.017915726,0.000944138,0,
00:10.2,0.001396179,0.017915726,0.000938416,0,
00:10.2,0.001401901,0.017921448,0.00094986,0,
00:10.2,0.001396179,0.017921448,0.000944138,0,
00:10.2,0.001384735,0.017915726,0.000938416,0,
00:10.2,0.001384735,0.017921448,0.000932693,0,
00:10.2,0.001413345,0.017932892,0.000938416,0,
00:10.2,0.001407623,0.017910004,0.000938416,0,
00:10.2,0.001379013,0.017881393,0.000932693,0,
00:10.2,0.001396179,0.017915726,0.000932693,0,
00:10.2,0.001401901,0.01792717,0.000932693,0,
00:10.2,0.001390457,0.017910004,0.000938416,0,
00:10.2,0.001390457,0.017910004,0.000938416,0,
00:10.2,0.001396179,0.017915726,0.000926971,0,
00:10.2,0.001390457,0.017921448,0.000932693,0,
00:10.3,0.001401901,0.017932892,0.000932693,0,
00:10.3,0.001407623,0.017932892,0.000926971,0,
00:10.3,0.001396179,0.017915726,0.000926971,0,
00:10.3,0.001390457,0.017910004,0.000932693,0,
00:10.3,0.001390457,0.017932892,0.000926971,0,
