Elapsed_Time,EMG1,EMG2,EMG3,BioRadio Event,Unnamed: 5
00:00:00,0.001688004,-0.004159927,0.01071167,0,
00:00.0,0.001682281,-0.004171371,0.010705948,0,
00:00.0,0.001688004,-0.004165649,0.010705948,0,
00:00.0,0.001682281,-0.004159927,0.010705948,0,
00:00.0,0.001688004,-0.004154205,0.010705948,0,
00:00.0,0.001688004,-0.004165649,0.01071167,0,
00:00.0,0.001676559,-0.004177094,0.01071167,0,
00:00.0,0.001659393,-0.004188538,0.010705948,0,
00:00.0,0.001665115,-0.004177094,0.010705948,0,
00:00.0,0.001693726,-0.004154205,0.010705948,0,
00:00.0,0.001693726,-0.004142761,0.01071167,0,
00:00.0,0.001693726,-0.004142761,0.01071167,0,
00:00.0,0.001693726,-0.004154205,0.010700226,0,
00:00.1,0.001682281,-0.004171371,0.010700226,0,
00:00.1,0.001688004,-0.004182816,0.010705948,0,
00:00.1,0.001676559,-0.004177094,0.01071167,0,
00:00.1,0.001676559,-0.004177094,0.01071167,0,
00:00.1,0.001676559,-0.004165649,0.010700226,0,
00:00.1,0.001688004,-0.004148483,0.010694504,0,
00:00.1,0.001693726,-0.004148483,0.010705948,0,
00:00.1,0.001676559,-0.004165649,0.01071167,0,
00:00.1,0.001670837,-0.004177094,0.01071167,0,
00:00.1,0.001682281,-0.00419426,0.010705948,0,
00:00.1,0.001676559,-0.004188538,0.010700226,0,
00:00.1,0.001682281,-0.004159927,0.010705948,0,
00:00.1,0.001688004,-0.004148483,0.010705948,0,
00:00.1,0.001693726,-0.004142761,0.010705948,0,
00:00.1,0.001688004,-0.004159927,0.010700226,0,
00:00.1,0.001676559,-0.004165649,0.010700226,0,
00:00.1,0.001676559,-0.004171371,0.010705948,0,
00:00.1,0.001676559,-0.004177094,0.010705948,0,
00:00.1,0.001676559,-0.004171371,0.01071167,0,
00:00.1,0.001670837,-0.004165649,0.010705948,0,
00:00.1,0.001688004,-0.004159927,0.010700226,0,
00:00.1,0.001693726,-0.004148483,0.010700226,0,
00:00.1,0.001688004,-0.004154205,0.010705948,0,
00:00.1,0.001676559,-0.004165649,0.010705948,0,
00:00.1,0.001676559,-0.004171371,0.010694504,0,
00:00.2,0.001676559,-0.004177094,0.010694504,0,
00:00.2,0.001682281,-0.004182816,0.010700226,0,
00:00.2,0.001670837,-0.004177094,0.010700226,0,
00:00.2,0.001688004,-0.004159927,0.010700226,0,
00:00.2,0.001688004,-0.004142761,0.010694504,0,
00:00.2,0.001682281,-0.004154205,0.010700226,0,
00:00.2,0.001682281,-0.004159927,0.010705948,0,
00:00.2,0.001676559,-0.004154205,0.010705948,0,
00:00.2,0.001676559,-0.004159927,0.010700226,0,
00:00.2,0.001665115,-0.004188538,0.010700226,0,
00:00.2,0.001653671,-0.004199982,0.010694504,0,
00:00.2,0.001665115,-0.004177094,0.010700226,0,
00:00.2,0.001682281,-0.004159927,0.010700226,0,
00:00.2,0.001688004,-0.004159927,0.010694504,0,
00:00.2,0.001682281,-0.004154205,0.010694504,0,
00:00.2,0.001682281,-0.004159927,0.010694504,0,
00:00.2,0.001676559,-0.004165649,0.010700226,0,
00:00.2,0.001682281,-0.004165649,0.010700226,0,
00:00.2,0.001682281,-0.004171371,0.010694504,0,
00:00.2,0.001670837,-0.004188538,0.010688782,0,
00:00.2,0.001665115,-0.004182816,0.010694504,0,
00:00.2,0.001676559,-0.004182816,0.010694504,0,
00:00.2,0.001699448,-0.004165649,0.010694504,0,
00:00.2,0.001693726,-0.004148483,0.010694504,0,
00:00.2,0.001682281,-0.004148483,0.010688782,0,
00:00.3,0.001688004,-0.004154205,0.010688782,0,
00:00.3,0.001676559,-0.004165649,0.010694504,0,
00:00.3,0.001670837,-0.004177094,0.010694504,0,
00:00.3,0.001676559,-0.004177094,0.010694504,0,
00:00.3,0.001682281,-0.004165649,0.010688782,0,
00:00.3,0.001682281,-0.004159927,0.010688782,0,
00:00.3,0.001688004,-0.004154205,0.010694504,0,
00:00.3,0.001682281,-0.004171371,0.010694504,0,
00:00.3,0.001670837,-0.004182816,0.010694504,0,
00:00.3,0.001665115,-0.004177094,0.010688782,0,
00:00.3,0.001676559,-0.004165649,0.010688782,0,
00:00.3,0.001670837,-0.004171371,0.010688782,0,
00:00.3,0.001670837,-0.004171371,0.010694504,0,
00:00.3,0.001670837,-0.004171371,0.010694504,0,
00:00.3,0.001670837,-0.004182816,0.010688782,0,
00:00.3,0.001676559,-0.004182816,0.01068306,0,
00:00.3,0.001688004,-0.004165649,0.010688782,0,
00:00.3,0.001688004,-0.004148483,0.010694504,0,
00:00.3,0.001682281,-0.004154205,0.010694504,0,
00:00.3,0.001682281,-0.004165649,0.01068306,0,
00:00.3,0.001682281,-0.004171371,0.01068306,0,
00:00.3,0.001682281,-0.004171371,0.010688782,0,
00:00.3,0.001688004,-0.004159927,0.010694504,0,
00:00.3,0.001688004,-0.004159927,0.010688782,0,
00:00.3,0.001682281,-0.004159927,0.01068306,0,
00:00.4,0.001682281,-0.004159927,0.01068306,0,
00:00.4,0.001682281,-0.004171371,0.01068306,0,
00:00.4,0.001682281,-0.004171371,0.010688782,0,
00:00.4,0.001676559,-0.004171371,0.01068306,0,
00:00.4,0.001676559,-0.004177094,0.010677338,0,
00:00.4,0.001682281,-0.004177094,0.010677338,0,
00:00.4,0.001682281,-0.004171371,0.01068306,0,
00:00.4,0.001676559,-0.004165649,0.010688782,0,
00:00.4,0.001665115,-0.004177094,0.010688782,0,
00:00.4,0.001665115,-0.004182816,0.01068306,0,
00:00.4,0.001676559,-0.004182816,0.010677338,0,
00:00.4,0.001676559,-0.004177094,0.01068306,0,
00:00.4,0.001682281,-0.004165649,0.01068306,0,
00:00.4,0.001676559,-0.004165649,0.01068306,0,
00:00.4,0.001676559,-0.004159927,0.010677338,0,
00:00.4,0.001688004,-0.004159927,0.010677338,0,
00:00.4,0.001670837,-0.00419426,0.01068306,0,
00:00.4,0.001653671,-0.004199982,0.01068306,0,
00:00.4,0.001676559,-0.004159927,0.01068306,0,
00:00.4,0.001699448,-0.004142761,0.010671616,0,
00:00.4,0.001688004,-0.004148483,0.010677338,0,
00:00.4,0.001688004,-0.004148483,0.010677338,0,
00:00.4,0.001682281,-0.004154205,0.01068306,0,
00:00.4,0.001682281,-0.004159927,0.01068306,0,
00:00.4,0.001670837,-0.004177094,0.010677338,0,
00:00.5,0.001670837,-0.004171371,0.010677338,0,
00:00.5,0.001670837,-0.004159927,0.01068306,0,
00:00.5,0.001670837,-0.004165649,0.01068306,0,
00:00.5,0.001676559,-0.004165649,0.01068306,0,
00:00.5,0.001670837,-0.004159927,0.010677338,0,
00:00.5,0.001676559,-0.004165649,0.010677338,0,
00:00.5,0.001682281,-0.004165649,0.010677338,0,
00:00.5,0.001676559,-0.004171371,0.01068306,0,
00:00.5,0.001682281,-0.004171371,0.01068306,0,
00:00.5,0.001665115,-0.004182816,0.010671616,0,
00:00.5,0.001659393,-0.004188538,0.010677338,0,
00:00.5,0.001670837,-0.004182816,0.01068306,0,
00:00.5,0.001682281,-0.004154205,0.01068306,0,
00:00.5,0.001682281,-0.004148483,0.010677338,0,
00:00.5,0.001676559,-0.004159927,0.010671616,0,
00:00.5,0.001670837,-0.004177094,0.010671616,0,
00:00.5,0.001670837,-0.004165649,0.010677338,0,
00:00.5,0.001682281,-0.004148483,0.01068306,0,
00:00.5,0.001682281,-0.004154205,0.01068306,0,
00:00.5,0.001676559,-0.004165649,0.010677338,0,
00:00.5,0.001670837,-0.004171371,0.01068306,0,
00:00.5,0.001670837,-0.004165649,0.01068306,0,
00:00.5,0.001665115,-0.004171371,0.01068306,0,
00:00.5,0.001676559,-0.004171371,0.01068306,0,
00:00.5,0.001682281,-0.004159927,0.010677338,0,
00:00.6,0.001670837,-0.004159927,0.010671616,0,
00:00.6,0.001670837,-0.004165649,0.010677338,0,
00:00.6,0.001688004,-0.004171371,0.010677338,0,
00:00.6,0.001682281,-0.004177094,0.010677338,0,
00:00.6,0.001670837,-0.004188538,0.010677338,0,
00:00.6,0.001665115,-0.004188538,0.010677338,0,
00:00.6,0.001670837,-0.004159927,0.010677338,0,
00:00.6,0.001688004,-0.004137039,0.01068306,0,
00:00.6,0.001693726,-0.004131317,0.01068306,0,
00:00.6,0.001682281,-0.004148483,0.010677338,0,
00:00.6,0.001676559,-0.004177094,0.010677338,0,
00:00.6,0.001670837,-0.004199982,0.010677338,0,
00:00.6,0.001665115,-0.004199982,0.01068306,0,
00:00.6,0.001676559,-0.004159927,0.01068306,0,
00:00.6,0.001688004,-0.004137039,0.010677338,0,
00:00.6,0.001688004,-0.004148483,0.010677338,0,
00:00.6,0.001682281,-0.004159927,0.010677338,0,
00:00.6,0.001665115,-0.004171371,0.01068306,0,
00:00.6,0.001659393,-0.004182816,0.01068306,0,
00:00.6,0.001676559,-0.004182816,0.010677338,0,
00:00.6,0.001682281,-0.004165649,0.010677338,0,
00:00.6,0.001688004,-0.004154205,0.010677338,0,
00:00.6,0.001682281,-0.004165649,0.01068306,0,
00:00.6,0.001670837,-0.004171371,0.01068306,0,
00:00.6,0.001670837,-0.004171371,0.010677338,0,
00:00.7,0.001676559,-0.004182816,0.010677338,0,
00:00.7,0.001676559,-0.004188538,0.010677338,0,
00:00.7,0.001665115,-0.004159927,0.01068306,0,
00:00.7,0.001676559,-0.004142761,0.01068306,0,
00:00.7,0.001682281,-0.004154205,0.01068306,0,
00:00.7,0.001682281,-0.004159927,0.010677338,0,
00:00.7,0.001682281,-0.004154205,0.01068306,0,
00:00.7,0.001682281,-0.004165649,0.010688782,0,
00:00.7,0.001670837,-0.004182816,0.01068306,0,
00:00.7,0.001676559,-0.004171371,0.010677338,0,
00:00.7,0.001676559,-0.004159927,0.010677338,0,
00:00.7,0.001682281,-0.004142761,0.010677338,0,
00:00.7,0.001682281,-0.004154205,0.010688782,0,
00:00.7,0.001659393,-0.004177094,0.010688782,0,
00:00.7,0.001653671,-0.004188538,0.01068306,0,
00:00.7,0.001682281,-0.004177094,0.01068306,0,
00:00.7,0.001688004,-0.004159927,0.010688782,0,
00:00.7,0.001688004,-0.004154205,0.010688782,0,
00:00.7,0.001688004,-0.004148483,0.010688782,0,
00:00.7,0.001682281,-0.004159927,0.01068306,0,
00:00.7,0.001670837,-0.004182816,0.01068306,0,
00:00.7,0.001659393,-0.004188538,0.010688782,0,
00:00.7,0.001670837,-0.004159927,0.010694504,0,
00:00.7,0.001682281,-0.004148483,0.010688782,0,
00:00.7,0.001682281,-0.004159927,0.01068306,0,
00:00.8,0.001676559,-0.004165649,0.01068306,0,
00:00.8,0.001665115,-0.004165649,0.010688782,0,
00:00.8,0.001670837,-0.004165649,0.010694504,0,
00:00.8,0.001670837,-0.004177094,0.010688782,0,
00:00.8,0.001670837,-0.004177094,0.010688782,0,
00:00.8,0.001676559,-0.004154205,0.01068306,0,
00:00.8,0.001693726,-0.004137039,0.010688782,0,
00:00.8,0.001682281,-0.004142761,0.010688782,0,
00:00.8,0.001676559,-0.004148483,0.010688782,0,
00:00.8,0.001676559,-0.004159927,0.010688782,0,
00:00.8,0.001682281,-0.004165649,0.01068306,0,
00:00.8,0.001665115,-0.004171371,0.010688782,0,
00:00.8,0.001659393,-0.004182816,0.010688782,0,
00:00.8,0.001665115,-0.004182816,0.010694504,0,
00:00.8,0.001676559,-0.004171371,0.010688782,0,
00:00.8,0.001676559,-0.004159927,0.01068306,0,
00:00.8,0.001676559,-0.004159927,0.010688782,0,
00:00.8,0.001676559,-0.004154205,0.010694504,0,
00:00.8,0.001682281,-0.004154205,0.010688782,0,
00:00.8,0.001676559,-0.004148483,0.010694504,0,
00:00.8,0.001665115,-0.004148483,0.010694504,0,
00:00.8,0.001676559,-0.004159927,0.010694504,0,
00:00.8,0.001670837,-0.004177094,0.010694504,0,
00:00.8,0.001665115,-0.004177094,0.010694504,0,
00:00.8,0.001676559,-0.004159927,0.010688782,0,
00:00.9,0.001676559,-0.004148483,0.010688782,0,
00:00.9,0.001665115,-0.004154205,0.010694504,0,
00:00.9,0.001670837,-0.004159927,0.010694504,0,
00:00.9,0.001688004,-0.004154205,0.010694504,0,
00:00.9,0.001676559,-0.004171371,0.010688782,0,
00:00.9,0.001665115,-0.004165649,0.010694504,0,
00:00.9,0.001665115,-0.004154205,0.010694504,0,
00:00.9,0.001676559,-0.004154205,0.010694504,0,
00:00.9,0.001682281,-0.004171371,0.010694504,0,
00:00.9,0.001676559,-0.004177094,0.010688782,0,
00:00.9,0.001670837,-0.004159927,0.010688782,0,
00:00.9,0.001676559,-0.004142761,0.010688782,0,
00:00.9,0.001676559,-0.004148483,0.010694504,0,
00:00.9,0.001670837,-0.004154205,0.010694504,0,
00:00.9,0.001665115,-0.004171371,0.010694504,0,
00:00.9,0.001659393,-0.004165649,0.010694504,0,
00:00.9,0.001670837,-0.004159927,0.010694504,0,
00:00.9,0.001676559,-0.004154205,0.010700226,0,
00:00.9,0.001665115,-0.004171371,0.010694504,0,
00:00.9,0.001670837,-0.004177094,0.010688782,0,
00:00.9,0.001665115,-0.004171371,0.010688782,0,
00:00.9,0.001670837,-0.004154205,0.010694504,0,
00:00.9,0.001676559,-0.004142761,0.010700226,0,
00:00.9,0.001682281,-0.004142761,0.010694504,0,
00:00.9,0.001676559,-0.004159927,0.010688782,0,
00:01.0,0.001670837,-0.004171371,0.010688782,0,
00:01.0,0.001676559,-0.004171371,0.010694504,0,
00:01.0,0.001670837,-0.004177094,0.010700226,0,
00:01.0,0.001659393,-0.004177094,0.010700226,0,
00:01.0,0.001670837,-0.004171371,0.010694504,0,
00:01.0,0.001676559,-0.004154205,0.010694504,0,
00:01.0,0.001676559,-0.004142761,0.010700226,0,
00:01.0,0.001676559,-0.004142761,0.010700226,0,
00:01.0,0.001676559,-0.004148483,0.010700226,0,
00:01.0,0.001665115,-0.004171371,0.010694504,0,
00:01.0,0.001647949,-0.00419426,0.010694504,0,
00:01.0,0.001665115,-0.004171371,0.010700226,0,
00:00:01,0.001670837,-0.004137039,0.010700226,0,
00:01.0,0.001688004,-0.004131317,0.010700226,0,
00:01.0,0.001688004,-0.004131317,0.010694504,0,
00:01.0,0.001682281,-0.004137039,0.010694504,0,
00:01.0,0.001670837,-0.004154205,0.010700226,0,
00:01.0,0.001659393,-0.004177094,0.010705948,0,
00:01.0,0.001653671,-0.004188538,0.010700226,0,
00:01.0,0.001659393,-0.004171371,0.010694504,0,
00:01.0,0.001665115,-0.004148483,0.010694504,0,
00:01.0,0.001682281,-0.004137039,0.010694504,0,
00:01.0,0.001676559,-0.004148483,0.010700226,0,
00:01.0,0.001676559,-0.004154205,0.010700226,0,
00:01.0,0.001676559,-0.004159927,0.010700226,0,
00:01.1,0.001670837,-0.004154205,0.010694504,0,
00:01.1,0.001659393,-0.004148483,0.010705948,0,
00:01.1,0.001670837,-0.004137039,0.010705948,0,
00:01.1,0.001676559,-0.004142761,0.010705948,0,
00:01.1,0.001676559,-0.004159927,0.010700226,0,
00:01.1,0.001665115,-0.004159927,0.010700226,0,
00:01.1,0.001670837,-0.004148483,0.010700226,0,
00:01.1,0.001676559,-0.004154205,0.010705948,0,
00:01.1,0.001670837,-0.004159927,0.010705948,0,
00:01.1,0.001665115,-0.004159927,0.010700226,0,
00:01.1,0.001665115,-0.004171371,0.010700226,0,
00:01.1,0.001653671,-0.004165649,0.010700226,0,
00:01.1,0.001682281,-0.004142761,0.010705948,0,
00:01.1,0.001676559,-0.004137039,0.010705948,0,
00:01.1,0.001670837,-0.004142761,0.010705948,0,
00:01.1,0.001676559,-0.004154205,0.010700226,0,
00:01.1,0.001676559,-0.004154205,0.010705948,0,
00:01.1,0.001665115,-0.004165649,0.01071167,0,
00:01.1,0.001659393,-0.004171371,0.01071167,0,
00:01.1,0.001665115,-0.004165649,0.010700226,0,
00:01.1,0.001676559,-0.004148483,0.010700226,0,
00:01.1,0.001682281,-0.004142761,0.010700226,0,
00:01.1,0.001665115,-0.004154205,0.010705948,0,
00:01.1,0.001670837,-0.004154205,0.010705948,0,
00:01.1,0.001665115,-0.004154205,0.010705948,0,
00:01.2,0.001665115,-0.004148483,0.010700226,0,
00:01.2,0.001670837,-0.004159927,0.010705948,0,
00:01.2,0.001665115,-0.004154205,0.01071167,0,
00:01.2,0.001659393,-0.004142761,0.01071167,0,
00:01.2,0.001676559,-0.004125595,0.010705948,0,
00:01.2,0.001682281,-0.004114151,0.010700226,0,
00:01.2,0.001670837,-0.004137039,0.010705948,0,
00:01.2,0.001665115,-0.004154205,0.01071167,0,
00:01.2,0.001665115,-0.004165649,0.01071167,0,
00:01.2,0.001659393,-0.004165649,0.010705948,0,
00:01.2,0.001665115,-0.004154205,0.010705948,0,
00:01.2,0.001682281,-0.004142761,0.01071167,0,
00:01.2,0.001670837,-0.004142761,0.010717392,0,
00:01.2,0.001665115,-0.004159927,0.010717392,0,
00:01.2,0.001659393,-0.004159927,0.010705948,0,
00:01.2,0.001670837,-0.004142761,0.010705948,0,
00:01.2,0.001682281,-0.004142761,0.010705948,0,
00:01.2,0.001670837,-0.004154205,0.01071167,0,
00:01.2,0.001665115,-0.004165649,0.010717392,0,
00:01.2,0.001665115,-0.004159927,0.01071167,0,
00:01.2,0.001670837,-0.004148483,0.010705948,0,
00:01.2,0.001670837,-0.004148483,0.01071167,0,
00:01.2,0.001665115,-0.004142761,0.010717392,0,
00:01.2,0.001670837,-0.004142761,0.010717392,0,
00:01.2,0.001665115,-0.004148483,0.01071167,0,
00:01.3,0.001665115,-0.004154205,0.010705948,0,
00:01.3,0.001665115,-0.004154205,0.01071167,0,
00:01.3,0.001682281,-0.004131317,0.010717392,0,
00:01.3,0.001676559,-0.004131317,0.010717392,0,
00:01.3,0.001676559,-0.004142761,0.01071167,0,
00:01.3,0.001676559,-0.004154205,0.01071167,0,
00:01.3,0.001665115,-0.004148483,0.01071167,0,
00:01.3,0.001670837,-0.004148483,0.010717392,0,
00:01.3,0.001670837,-0.004154205,0.010717392,0,
00:01.3,0.001665115,-0.004159927,0.01071167,0,
00:01.3,0.001665115,-0.004154205,0.01071167,0,
00:01.3,0.001665115,-0.004148483,0.01071167,0,
00:01.3,0.001670837,-0.004142761,0.010717392,0,
00:01.3,0.001670837,-0.004148483,0.010717392,0,
00:01.3,0.001670837,-0.004159927,0.01071167,0,
00:01.3,0.001676559,-0.004159927,0.010705948,0,
00:01.3,0.001670837,-0.004159927,0.010717392,0,
00:01.3,0.001676559,-0.004159927,0.010723114,0,
00:01.3,0.001670837,-0.004154205,0.010723114,0,
00:01.3,0.001665115,-0.004142761,0.010717392,0,
00:01.3,0.001665115,-0.004142761,0.01071167,0,
00:01.3,0.001676559,-0.004142761,0.010717392,0,
00:01.3,0.001665115,-0.004154205,0.010717392,0,
00:01.3,0.001670837,-0.004154205,0.010717392,0,
00:01.3,0.001676559,-0.004148483,0.01071167,0,
00:01.4,0.001670837,-0.004154205,0.01071167,0,
00:01.4,0.001659393,-0.004159927,0.010717392,0,
00:01.4,0.001659393,-0.004171371,0.010723114,0,
00:01.4,0.001659393,-0.004159927,0.010723114,0,
00:01.4,0.001682281,-0.004131317,0.010717392,0,
00:01.4,0.001688004,-0.004137039,0.010717392,0,
00:01.4,0.001670837,-0.004148483,0.010717392,0,
00:01.4,0.001665115,-0.004171371,0.010728836,0,
00:01.4,0.001670837,-0.004165649,0.010723114,0,
00:01.4,0.001676559,-0.004142761,0.010717392,0,
00:01.4,0.001676559,-0.004142761,0.010717392,0,
00:01.4,0.001659393,-0.004154205,0.010723114,0,
00:01.4,0.001676559,-0.004137039,0.010723114,0,
00:01.4,0.001670837,-0.004125595,0.010723114,0,
00:01.4,0.001665115,-0.004142761,0.010717392,0,
00:01.4,0.001659393,-0.004165649,0.010717392,0,
00:01.4,0.001653671,-0.004171371,0.010717392,0,
00:01.4,0.001676559,-0.004142761,0.010723114,0,
00:01.4,0.001670837,-0.004142761,0.010723114,0,
00:01.4,0.001665115,-0.004148483,0.010717392,0,
00:01.4,0.001670837,-0.004148483,0.01071167,0,
00:01.4,0.001665115,-0.004159927,0.010717392,0,
00:01.4,0.001659393,-0.004171371,0.010723114,0,
00:01.4,0.001659393,-0.004171371,0.010723114,0,
00:01.4,0.001665115,-0.004177094,0.010717392,0,
00:01.5,0.001670837,-0.004165649,0.01071167,0,
00:01.5,0.001676559,-0.004137039,0.010717392,0,
00:01.5,0.001670837,-0.004131317,0.010723114,0,
00:01.5,0.001665115,-0.004142761,0.010723114,0,
00:01.5,0.001665115,-0.004159927,0.010717392,0,
00:01.5,0.001665115,-0.004165649,0.01071167,0,
00:01.5,0.001665115,-0.004159927,0.010717392,0,
00:01.5,0.001670837,-0.004148483,0.010723114,0,
00:01.5,0.001665115,-0.004154205,0.010723114,0,
00:01.5,0.001665115,-0.004159927,0.010717392,0,
00:01.5,0.001665115,-0.004148483,0.010717392,0,
00:01.5,0.001670837,-0.004137039,0.010717392,0,
00:01.5,0.001670837,-0.004131317,0.010723114,0,
00:01.5,0.001659393,-0.004148483,0.010723114,0,
00:01.5,0.001665115,-0.004159927,0.01071167,0,
00:01.5,0.001665115,-0.004159927,0.010717392,0,
00:01.5,0.001659393,-0.004148483,0.010723114,0,
00:01.5,0.001659393,-0.004148483,0.010723114,0,
00:01.5,0.001659393,-0.004148483,0.010723114,0,
00:01.5,0.001682281,-0.004148483,0.010717392,0,
00:01.5,0.001682281,-0.004154205,0.010717392,0,
00:01.5,0.001670837,-0.004165649,0.010717392,0,
00:01.5,0.001670837,-0.004159927,0.010723114,0,
00:01.5,0.001670837,-0.004148483,0.010723114,0,
00:01.5,0.001670837,-0.004148483,0.010717392,0,
00:01.6,0.001670837,-0.004148483,0.01071167,0,
00:01.6,0.001670837,-0.004154205,0.010717392,0,
00:01.6,0.001665115,-0.004171371,0.010723114,0,
00:01.6,0.001653671,-0.004177094,0.010723114,0,
00:01.6,0.001659393,-0.004165649,0.010717392,0,
00:01.6,0.001659393,-0.004159927,0.01071167,0,
00:01.6,0.001665115,-0.004159927,0.010717392,0,
00:01.6,0.001665115,-0.004148483,0.010723114,0,
00:01.6,0.001659393,-0.004131317,0.010723114,0,
00:01.6,0.001670837,-0.004131317,0.010717392,0,
00:01.6,0.001676559,-0.004137039,0.01071167,0,
00:01.6,0.001665115,-0.004142761,0.010717392,0,
00:01.6,0.001665115,-0.004159927,0.010723114,0,
00:01.6,0.001659393,-0.004177094,0.010723114,0,
00:01.6,0.001647949,-0.004182816,0.010717392,0,
00:01.6,0.001647949,-0.004159927,0.010717392,0,
00:01.6,0.001676559,-0.004137039,0.010717392,0,
00:01.6,0.001676559,-0.004137039,0.010723114,0,
00:01.6,0.001676559,-0.004142761,0.010723114,0,
00:01.6,0.001676559,-0.004148483,0.010717392,0,
00:01.6,0.001670837,-0.004154205,0.01071167,0,
00:01.6,0.001670837,-0.004154205,0.01071167,0,
00:01.6,0.001670837,-0.004154205,0.010717392,0,
00:01.6,0.001665115,-0.004165649,0.010717392,0,
00:01.6,0.001659393,-0.004165649,0.01071167,0,
00:01.7,0.001653671,-0.004171371,0.01071167,0,
00:01.7,0.001665115,-0.004159927,0.010717392,0,
00:01.7,0.001670837,-0.004148483,0.010717392,0,
00:01.7,0.001676559,-0.004148483,0.01071167,0,
00:01.7,0.001665115,-0.004159927,0.01071167,0,
00:01.7,0.001659393,-0.004165649,0.01071167,0,
00:01.7,0.001659393,-0.004154205,0.010717392,0,
00:01.7,0.001659393,-0.004159927,0.010723114,0,
00:01.7,0.001670837,-0.004165649,0.010717392,0,
00:01.7,0.001665115,-0.004171371,0.01071167,0,
00:01.7,0.001670837,-0.004148483,0.01071167,0,
00:01.7,0.001676559,-0.004125595,0.01071167,0,
00:01.7,0.001676559,-0.004142761,0.010717392,0,
00:01.7,0.001665115,-0.004148483,0.010717392,0,
00:01.7,0.001653671,-0.004171371,0.01071167,0,
00:01.7,0.001653671,-0.004188538,0.01071167,0,
00:01.7,0.001659393,-0.004154205,0.010717392,0,
00:01.7,0.001682281,-0.004125595,0.010717392,0,
00:01.7,0.001688004,-0.004131317,0.010717392,0,
00:01.7,0.001676559,-0.004148483,0.01071167,0,
00:01.7,0.001665115,-0.004165649,0.01071167,0,
00:01.7,0.001659393,-0.004177094,0.010717392,0,
00:01.7,0.001659393,-0.004177094,0.010723114,0,
00:01.7,0.001659393,-0.004171371,0.010717392,0,
00:01.7,0.001659393,-0.004154205,0.01071167,0,
00:01.8,0.001670837,-0.004137039,0.010705948,0,
00:01.8,0.001670837,-0.004142761,0.01071167,0,
00:01.8,0.001653671,-0.004154205,0.010717392,0,
00:01.8,0.001665115,-0.004154205,0.01071167,0,
00:01.8,0.001676559,-0.004148483,0.01071167,0,
00:01.8,0.001670837,-0.004142761,0.010705948,0,
00:01.8,0.001670837,-0.004154205,0.01071167,0,
00:01.8,0.001665115,-0.004165649,0.010717392,0,
00:01.8,0.001670837,-0.004171371,0.01071167,0,
00:01.8,0.001665115,-0.004154205,0.010700226,0,
00:01.8,0.001665115,-0.004148483,0.010700226,0,
00:01.8,0.001670837,-0.004142761,0.01071167,0,
00:01.8,0.001659393,-0.004154205,0.010717392,0,
00:01.8,0.001665115,-0.004159927,0.01071167,0,
00:01.8,0.001682281,-0.004159927,0.010705948,0,
00:01.8,0.001670837,-0.004171371,0.010705948,0,
00:01.8,0.001670837,-0.004165649,0.010705948,0,
00:01.8,0.001670837,-0.004165649,0.01071167,0,
00:01.8,0.001659393,-0.004177094,0.01071167,0,
00:01.8,0.001670837,-0.004171371,0.010705948,0,
00:01.8,0.001665115,-0.004159927,0.010705948,0,
00:01.8,0.001670837,-0.004142761,0.010705948,0,
00:01.8,0.001676559,-0.004137039,0.01071167,0,
00:01.8,0.001670837,-0.004137039,0.01071167,0,
00:01.8,0.001670837,-0.004148483,0.010705948,0,
00:01.9,0.001659393,-0.004159927,0.010705948,0,
00:01.9,0.001665115,-0.004165649,0.01071167,0,
00:01.9,0.001676559,-0.004148483,0.010717392,0,
00:01.9,0.001670837,-0.004142761,0.010717392,0,
00:01.9,0.001665115,-0.004159927,0.01071167,0,
00:01.9,0.001665115,-0.004165649,0.010705948,0,
00:01.9,0.001665115,-0.004148483,0.01071167,0,
00:01.9,0.001676559,-0.004131317,0.01071167,0,
00:01.9,0.001676559,-0.004148483,0.010717392,0,
00:01.9,0.001665115,-0.004171371,0.01071167,0,
00:01.9,0.001665115,-0.004171371,0.01071167,0,
00:01.9,0.001659393,-0.004159927,0.01071167,0,
00:01.9,0.001659393,-0.004159927,0.010717392,0,
00:01.9,0.001665115,-0.004154205,0.010717392,0,
00:01.9,0.001670837,-0.004142761,0.010705948,0,
00:01.9,0.001670837,-0.004154205,0.010705948,0,
00:01.9,0.001665115,-0.004154205,0.01071167,0,
00:01.9,0.001676559,-0.004148483,0.01071167,0,
00:01.9,0.001659393,-0.004154205,0.010717392,0,
00:01.9,0.001665115,-0.004159927,0.01071167,0,
00:01.9,0.001670837,-0.004154205,0.010705948,0,
00:01.9,0.001665115,-0.004154205,0.010705948,0,
00:01.9,0.001653671,-0.004154205,0.01071167,0,
00:01.9,0.001659393,-0.004142761,0.01071167,0,
00:01.9,0.001665115,-0.004137039,0.010705948,0,
00:02.0,0.001670837,-0.004159927,0.010705948,0,
00:02.0,0.001665115,-0.004171371,0.010705948,0,
00:02.0,0.001665115,-0.004159927,0.010705948,0,
00:02.0,0.001670837,-0.004148483,0.010705948,0,
00:02.0,0.001670837,-0.004142761,0.010700226,0,
00:02.0,0.001665115,-0.004154205,0.010700226,0,
00:02.0,0.001665115,-0.004148483,0.010705948,0,
00:02.0,0.001665115,-0.004154205,0.01071167,0,
00:02.0,0.001659393,-0.004171371,0.010705948,0,
00:02.0,0.001653671,-0.004171371,0.010700226,0,
00:02.0,0.001659393,-0.004154205,0.010700226,0,
00:02.0,0.001665115,-0.004148483,0.010705948,0,
00:00:02,0.001665115,-0.004159927,0.01071167,0,
00:02.0,0.001665115,-0.004159927,0.010705948,0,
00:02.0,0.001665115,-0.004148483,0.010700226,0,
00:02.0,0.001665115,-0.004137039,0.010700226,0,
00:02.0,0.001676559,-0.004142761,0.010705948,0,
00:02.0,0.001665115,-0.004159927,0.010705948,0,
00:02.0,0.001659393,-0.004177094,0.010705948,0,
00:02.0,0.001659393,-0.004171371,0.010700226,0,
00:02.0,0.001676559,-0.004154205,0.010700226,0,
00:02.0,0.001670837,-0.004159927,0.010700226,0,
00:02.0,0.001665115,-0.004159927,0.010705948,0,
00:02.0,0.001659393,-0.004159927,0.010705948,0,
00:02.0,0.001653671,-0.004171371,0.010700226,0,
00:02.1,0.001665115,-0.004148483,0.010700226,0,
00:02.1,0.001688004,-0.004137039,0.010700226,0,
00:02.1,0.001676559,-0.004142761,0.010705948,0,
00:02.1,0.001665115,-0.004159927,0.010705948,0,
00:02.1,0.001653671,-0.004171371,0.010700226,0,
00:02.1,0.001682281,-0.004165649,0.010700226,0,
00:02.1,0.001670837,-0.004154205,0.010700226,0,
00:02.1,0.001676559,-0.004137039,0.010705948,0,
00:02.1,0.001670837,-0.004137039,0.010705948,0,
00:02.1,0.001670837,-0.004148483,0.010700226,0,
00:02.1,0.001670837,-0.004159927,0.010694504,0,
00:02.1,0.001670837,-0.004154205,0.010700226,0,
00:02.1,0.001665115,-0.004154205,0.010705948,0,
00:02.1,0.001670837,-0.004171371,0.010705948,0,
00:02.1,0.001659393,-0.004177094,0.010694504,0,
00:02.1,0.001670837,-0.004148483,0.010694504,0,
00:02.1,0.001670837,-0.004131317,0.010700226,0,
00:02.1,0.001670837,-0.004142761,0.010700226,0,
00:02.1,0.001670837,-0.004159927,0.010700226,0,
00:02.1,0.001659393,-0.004165649,0.010700226,0,
00:02.1,0.001659393,-0.004159927,0.010694504,0,
00:02.1,0.001670837,-0.004154205,0.010700226,0,
00:02.1,0.001676559,-0.004148483,0.010700226,0,
00:02.1,0.001670837,-0.004148483,0.010700226,0,
00:02.1,0.001670837,-0.004148483,0.010694504,0,
00:02.2,0.001670837,-0.004148483,0.010694504,0,
00:02.2,0.001670837,-0.004148483,0.010700226,0,
00:02.2,0.001676559,-0.004148483,0.010705948,0,
00:02.2,0.001670837,-0.004148483,0.010700226,0,
00:02.2,0.001653671,-0.004159927,0.010700226,0,
00:02.2,0.001665115,-0.004154205,0.010694504,0,
00:02.2,0.001682281,-0.004142761,0.010700226,0,
00:02.2,0.001682281,-0.004142761,0.010705948,0,
00:02.2,0.001676559,-0.004142761,0.010700226,0,
00:02.2,0.001665115,-0.004148483,0.010694504,0,
00:02.2,0.001682281,-0.004142761,0.010694504,0,
00:02.2,0.001670837,-0.004148483,0.010694504,0,
00:02.2,0.001670837,-0.004159927,0.010705948,0,
00:02.2,0.001670837,-0.004165649,0.010700226,0,
00:02.2,0.001670837,-0.004165649,0.010694504,0,
00:02.2,0.001670837,-0.004159927,0.010694504,0,
00:02.2,0.001659393,-0.004148483,0.010700226,0,
00:02.2,0.001670837,-0.004137039,0.010705948,0,
00:02.2,0.001682281,-0.004142761,0.010705948,0,
00:02.2,0.001682281,-0.004159927,0.010700226,0,
00:02.2,0.001676559,-0.004165649,0.010688782,0,
00:02.2,0.001659393,-0.004165649,0.010700226,0,
00:02.2,0.001659393,-0.004177094,0.010700226,0,
00:02.2,0.001665115,-0.004171371,0.010700226,0,
00:02.2,0.001670837,-0.004154205,0.010694504,0,
00:02.3,0.001670837,-0.004148483,0.010688782,0,
00:02.3,0.001659393,-0.004148483,0.010694504,0,
00:02.3,0.001676559,-0.004137039,0.010700226,0,
00:02.3,0.001676559,-0.004125595,0.010694504,0,
00:02.3,0.001665115,-0.004142761,0.010694504,0,
00:02.3,0.001665115,-0.004154205,0.010694504,0,
00:02.3,0.001670837,-0.004159927,0.010694504,0,
00:02.3,0.001665115,-0.004148483,0.010700226,0,
00:02.3,0.001676559,-0.004137039,0.010694504,0,
00:02.3,0.001670837,-0.004142761,0.010688782,0,
00:02.3,0.001665115,-0.004148483,0.010688782,0,
00:02.3,0.001670837,-0.004159927,0.010694504,0,
00:02.3,0.001676559,-0.004159927,0.010700226,0,
00:02.3,0.001670837,-0.004148483,0.010694504,0,
00:02.3,0.001670837,-0.004142761,0.010688782,0,
00:02.3,0.001670837,-0.004148483,0.010688782,0,
00:02.3,0.001670837,-0.004159927,0.010694504,0,
00:02.3,0.001665115,-0.004165649,0.010694504,0,
00:02.3,0.001670837,-0.004159927,0.010688782,0,
00:02.3,0.001659393,-0.004159927,0.010688782,0,
00:02.3,0.001665115,-0.004154205,0.01068306,0,
00:02.3,0.001676559,-0.004154205,0.010688782,0,
00:02.3,0.001670837,-0.004148483,0.010688782,0,
00:02.3,0.001670837,-0.004148483,0.010688782,0,
00:02.3,0.001676559,-0.004148483,0.01068306,0,
00:02.4,0.001670837,-0.004154205,0.010688782,0,
00:02.4,0.001665115,-0.004154205,0.010694504,0,
00:02.4,0.001665115,-0.004154205,0.010694504,0,
00:02.4,0.001665115,-0.004148483,0.010694504,0,
00:02.4,0.001665115,-0.004148483,0.01068306,0,
00:02.4,0.001659393,-0.004154205,0.01068306,0,
00:02.4,0.001665115,-0.004159927,0.010688782,0,
00:02.4,0.001665115,-0.004159927,0.010694504,0,
00:02.4,0.001653671,-0.004171371,0.010688782,0,
00:02.4,0.001653671,-0.004165649,0.01068306,0,
00:02.4,0.001659393,-0.004148483,0.01068306,0,
00:02.4,0.001653671,-0.004148483,0.010688782,0,
00:02.4,0.001665115,-0.004148483,0.010688782,0,
00:02.4,0.001676559,-0.004142761,0.010688782,0,
00:02.4,0.001670837,-0.004142761,0.01068306,0,
00:02.4,0.001665115,-0.004142761,0.010677338,0,
00:02.4,0.001659393,-0.004154205,0.01068306,0,
00:02.4,0.001670837,-0.004165649,0.01068306,0,
00:02.4,0.001665115,-0.004159927,0.01068306,0,
00:02.4,0.001665115,-0.004142761,0.010677338,0,
00:02.4,0.001665115,-0.004137039,0.010677338,0,
00:02.4,0.001653671,-0.004142761,0.01068306,0,
00:02.4,0.001659393,-0.004159927,0.010688782,0,
00:02.4,0.001653671,-0.004182816,0.01068306,0,
00:02.4,0.001653671,-0.004177094,0.010677338,0,
00:02.5,0.001659393,-0.004148483,0.010677338,0,
00:02.5,0.001670837,-0.004119873,0.010677338,0,
00:02.5,0.001665115,-0.004131317,0.01068306,0,
00:02.5,0.001665115,-0.004142761,0.010677338,0,
00:02.5,0.001653671,-0.004148483,0.010677338,0,
00:02.5,0.001665115,-0.004165649,0.010677338,0,
00:02.5,0.001665115,-0.004165649,0.01068306,0,
00:02.5,0.001670837,-0.004154205,0.010677338,0,
00:02.5,0.001670837,-0.004148483,0.010677338,0,
00:02.5,0.001670837,-0.004148483,0.010671616,0,
00:02.5,0.001665115,-0.004148483,0.010671616,0,
00:02.5,0.001659393,-0.004148483,0.010677338,0,
00:02.5,0.001670837,-0.004142761,0.010677338,0,
00:02.5,0.001665115,-0.004142761,0.010677338,0,
00:02.5,0.001670837,-0.004142761,0.010671616,0,
00:02.5,0.001665115,-0.004142761,0.010671616,0,
00:02.5,0.001670837,-0.004148483,0.010677338,0,
00:02.5,0.001665115,-0.004159927,0.01068306,0,
00:02.5,0.001665115,-0.004165649,0.010677338,0,
00:02.5,0.001659393,-0.004154205,0.010671616,0,
00:02.5,0.001665115,-0.004154205,0.010671616,0,
00:02.5,0.001665115,-0.004142761,0.010671616,0,
00:02.5,0.001676559,-0.004125595,0.010677338,0,
00:02.5,0.001670837,-0.004131317,0.010671616,0,
00:02.5,0.001670837,-0.004142761,0.010665894,0,
00:02.6,0.001659393,-0.004165649,0.010665894,0,
00:02.6,0.001653671,-0.004171371,0.010671616,0,
00:02.6,0.001670837,-0.004148483,0.010677338,0,
00:02.6,0.001682281,-0.004125595,0.010677338,0,
00:02.6,0.001676559,-0.004125595,0.010665894,0,
00:02.6,0.001670837,-0.004142761,0.010665894,0,
00:02.6,0.001659393,-0.004148483,0.010671616,0,
00:02.6,0.001659393,-0.004148483,0.010671616,0,
00:02.6,0.001665115,-0.004148483,0.010671616,0,
00:02.6,0.001665115,-0.004159927,0.010660172,0,
00:02.6,0.001665115,-0.004165649,0.010660172,0,
00:02.6,0.001670837,-0.004154205,0.010665894,0,
00:02.6,0.001670837,-0.004137039,0.010671616,0,
00:02.6,0.001670837,-0.004137039,0.010671616,0,
00:02.6,0.001659393,-0.004154205,0.010665894,0,
00:02.6,0.001659393,-0.004154205,0.010665894,0,
00:02.6,0.001676559,-0.004137039,0.010665894,0,
00:02.6,0.001676559,-0.004137039,0.010671616,0,
00:02.6,0.001665115,-0.004148483,0.010671616,0,
00:02.6,0.001659393,-0.004148483,0.010665894,0,
00:02.6,0.001665115,-0.004148483,0.010660172,0,
00:02.6,0.001665115,-0.004148483,0.010665894,0,
00:02.6,0.001659393,-0.004148483,0.010665894,0,
00:02.6,0.001659393,-0.004137039,0.010665894,0,
00:02.6,0.001659393,-0.004137039,0.010660172,0,
00:02.7,0.001676559,-0.004142761,0.010654449,0,
00:02.7,0.001676559,-0.004148483,0.010660172,0,
00:02.7,0.001665115,-0.004159927,0.010665894,0,
00:02.7,0.001665115,-0.004148483,0.010665894,0,
00:02.7,0.001665115,-0.004142761,0.010660172,0,
00:02.7,0.001659393,-0.004148483,0.010654449,0,
00:02.7,0.001642227,-0.004159927,0.010660172,0,
00:02.7,0.001659393,-0.004177094,0.010665894,0,
00:02.7,0.001665115,-0.004159927,0.010660172,0,
00:02.7,0.001670837,-0.004137039,0.010654449,0,
00:02.7,0.001676559,-0.004131317,0.010654449,0,
00:02.7,0.001682281,-0.004131317,0.010654449,0,
00:02.7,0.001682281,-0.004142761,0.010660172,0,
00:02.7,0.001659393,-0.004165649,0.010654449,0,
00:02.7,0.001659393,-0.004171371,0.010654449,0,
00:02.7,0.001665115,-0.004154205,0.010654449,0,
00:02.7,0.001665115,-0.004159927,0.010654449,0,
00:02.7,0.001670837,-0.004159927,0.010660172,0,
00:02.7,0.001676559,-0.004159927,0.010660172,0,
00:02.7,0.001676559,-0.004137039,0.010654449,0,
00:02.7,0.001676559,-0.004131317,0.010648727,0,
00:02.7,0.001659393,-0.004137039,0.010654449,0,
00:02.7,0.001665115,-0.004142761,0.010660172,0,
00:02.7,0.001665115,-0.004148483,0.010660172,0,
00:02.7,0.001676559,-0.004154205,0.010648727,0,
00:02.8,0.001676559,-0.004154205,0.010648727,0,
00:02.8,0.001670837,-0.004142761,0.010654449,0,
00:02.8,0.001676559,-0.004137039,0.010660172,0,
00:02.8,0.001676559,-0.004131317,0.010654449,0,
00:02.8,0.001676559,-0.004137039,0.010648727,0,
00:02.8,0.001670837,-0.004148483,0.010648727,0,
00:02.8,0.001665115,-0.004142761,0.010648727,0,
00:02.8,0.001665115,-0.004137039,0.010654449,0,
00:02.8,0.001659393,-0.004148483,0.010654449,0,
00:02.8,0.001676559,-0.004159927,0.010648727,0,
00:02.8,0.001676559,-0.004154205,0.010643005,0,
00:02.8,0.001659393,-0.004171371,0.010648727,0,
00:02.8,0.001642227,-0.004165649,0.010654449,0,
00:02.8,0.001670837,-0.004137039,0.010648727,0,
00:02.8,0.001693726,-0.004131317,0.010643005,0,
00:02.8,0.001682281,-0.004137039,0.010643005,0,
00:02.8,0.001665115,-0.004137039,0.010648727,0,
00:02.8,0.001670837,-0.004137039,0.010654449,0,
00:02.8,0.001682281,-0.004137039,0.010648727,0,
00:02.8,0.001676559,-0.004142761,0.010643005,0,
00:02.8,0.001676559,-0.004154205,0.010648727,0,
00:02.8,0.001676559,-0.004159927,0.010643005,0,
00:02.8,0.001665115,-0.004165649,0.010648727,0,
00:02.8,0.001670837,-0.004165649,0.010648727,0,
00:02.8,0.001670837,-0.004159927,0.010643005,0,
00:02.9,0.001665115,-0.004148483,0.010637283,0,
00:02.9,0.001659393,-0.004137039,0.010643005,0,
00:02.9,0.001659393,-0.004137039,0.010648727,0,
00:02.9,0.001665115,-0.004165649,0.010648727,0,
00:02.9,0.001665115,-0.004171371,0.010643005,0,
00:02.9,0.001670837,-0.004148483,0.010637283,0,
00:02.9,0.001676559,-0.004137039,0.010643005,0,
00:02.9,0.001665115,-0.004159927,0.010643005,0,
00:02.9,0.001670837,-0.004159927,0.010643005,0,
00:02.9,0.001676559,-0.004148483,0.010637283,0,
00:02.9,0.001665115,-0.004142761,0.010643005,0,
00:02.9,0.001659393,-0.004142761,0.010643005,0,
00:02.9,0.001676559,-0.004142761,0.010648727,0,
00:02.9,0.001676559,-0.004148483,0.010643005,0,
00:02.9,0.001670837,-0.004142761,0.010637283,0,
00:02.9,0.001676559,-0.004137039,0.010637283,0,
00:02.9,0.001670837,-0.004137039,0.010643005,0,
00:02.9,0.001670837,-0.004154205,0.010643005,0,
00:02.9,0.001659393,-0.004165649,0.010643005,0,
00:02.9,0.001670837,-0.004154205,0.010637283,0,
00:02.9,0.001670837,-0.004142761,0.010637283,0,
00:02.9,0.001670837,-0.004148483,0.010643005,0,
00:02.9,0.001670837,-0.004142761,0.010643005,0,
00:02.9,0.001665115,-0.004142761,0.010648727,0,
00:02.9,0.001665115,-0.004148483,0.010643005,0,
00:03.0,0.001665115,-0.004148483,0.010643005,0,
00:03.0,0.001665115,-0.004159927,0.010648727,0,
00:03.0,0.001665115,-0.004165649,0.010643005,0,
00:03.0,0.001665115,-0.004148483,0.010643005,0,
00:03.0,0.001670837,-0.004137039,0.010637283,0,
00:03.0,0.001665115,-0.004148483,0.010637283,0,
00:03.0,0.001653671,-0.004148483,0.010643005,0,
00:03.0,0.001659393,-0.004154205,0.010643005,0,
00:03.0,0.001676559,-0.004142761,0.010643005,0,
00:03.0,0.001688004,-0.004131317,0.010637283,0,
00:03.0,0.001676559,-0.004137039,0.010637283,0,
00:03.0,0.001665115,-0.004159927,0.010643005,0,
00:00:03,0.001659393,-0.004171371,0.010648727,0,
00:03.0,0.001653671,-0.004154205,0.010648727,0,
00:03.0,0.001659393,-0.004131317,0.010637283,0,
00:03.0,0.001670837,-0.004125595,0.010637283,0,
00:03.0,0.001676559,-0.004142761,0.010643005,0,
00:03.0,0.001670837,-0.004137039,0.010648727,0,
00:03.0,0.001665115,-0.004148483,0.010643005,0,
00:03.0,0.001665115,-0.004159927,0.010637283,0,
00:03.0,0.001653671,-0.004154205,0.010637283,0,
00:03.0,0.001653671,-0.004142761,0.010648727,0,
00:03.0,0.001670837,-0.004131317,0.010648727,0,
00:03.0,0.001670837,-0.004137039,0.010648727,0,
00:03.0,0.001665115,-0.004154205,0.010643005,0,
00:03.1,0.001665115,-0.004159927,0.010643005,0,
00:03.1,0.001665115,-0.004148483,0.010648727,0,
00:03.1,0.001665115,-0.004131317,0.010648727,0,
00:03.1,0.001665115,-0.004142761,0.010648727,0,
00:03.1,0.001659393,-0.004154205,0.010643005,0,
00:03.1,0.001659393,-0.004159927,0.010643005,0,
00:03.1,0.001665115,-0.004154205,0.010648727,0,
00:03.1,0.001659393,-0.004142761,0.010654449,0,
00:03.1,0.001653671,-0.004142761,0.010648727,0,
00:03.1,0.001670837,-0.004159927,0.010648727,0,
00:03.1,0.001665115,-0.004159927,0.010643005,0,
00:03.1,0.001665115,-0.004137039,0.010648727,0,
00:03.1,0.001670837,-0.004131317,0.010654449,0,
00:03.1,0.001670837,-0.004125595,0.010648727,0,
00:03.1,0.001670837,-0.004131317,0.010648727,0,
00:03.1,0.001665115,-0.004142761,0.010648727,0,
00:03.1,0.001659393,-0.004148483,0.010648727,0,
00:03.1,0.001653671,-0.004148483,0.010654449,0,
00:03.1,0.001659393,-0.004148483,0.010654449,0,
00:03.1,0.001659393,-0.004148483,0.010654449,0,
00:03.1,0.001659393,-0.004148483,0.010654449,0,
00:03.1,0.001659393,-0.004148483,0.010654449,0,
00:03.1,0.001665115,-0.004154205,0.010660172,0,
00:03.1,0.001653671,-0.004148483,0.010660172,0,
00:03.1,0.001659393,-0.004142761,0.010654449,0,
00:03.2,0.001659393,-0.004148483,0.010654449,0,
00:03.2,0.001636505,-0.004148483,0.010654449,0,
00:03.2,0.001659393,-0.004154205,0.010665894,0,
00:03.2,0.001665115,-0.004148483,0.010660172,0,
00:03.2,0.001665115,-0.004142761,0.010654449,0,
00:03.2,0.001665115,-0.004137039,0.010654449,0,
00:03.2,0.001653671,-0.004142761,0.010660172,0,
00:03.2,0.001636505,-0.004165649,0.010665894,0,
00:03.2,0.001653671,-0.004159927,0.010665894,0,
00:03.2,0.001665115,-0.004137039,0.010660172,0,
00:03.2,0.001665115,-0.004142761,0.010660172,0,
00:03.2,0.001653671,-0.004142761,0.010665894,0,
00:03.2,0.001647949,-0.004148483,0.010671616,0,
00:03.2,0.001659393,-0.004159927,0.010671616,0,
00:03.2,0.001665115,-0.004142761,0.010665894,0,
00:03.2,0.001665115,-0.004131317,0.010665894,0,
00:03.2,0.001665115,-0.004131317,0.010671616,0,
00:03.2,0.001653671,-0.004131317,0.010677338,0,
00:03.2,0.001647949,-0.004148483,0.010677338,0,
00:03.2,0.001653671,-0.004171371,0.010671616,0,
00:03.2,0.001653671,-0.004154205,0.010665894,0,
00:03.2,0.001659393,-0.004148483,0.010671616,0,
00:03.2,0.001659393,-0.004148483,0.010677338,0,
00:03.2,0.001653671,-0.004142761,0.010677338,0,
00:03.2,0.001653671,-0.004148483,0.010671616,0,
00:03.3,0.001653671,-0.004148483,0.010671616,0,
00:03.3,0.001659393,-0.004142761,0.010677338,0,
00:03.3,0.001647949,-0.004142761,0.01068306,0,
00:03.3,0.001653671,-0.004142761,0.010677338,0,
00:03.3,0.001659393,-0.004148483,0.010677338,0,
00:03.3,0.001659393,-0.004154205,0.010677338,0,
00:03.3,0.001647949,-0.004154205,0.01068306,0,
00:03.3,0.001653671,-0.004142761,0.010688782,0,
00:03.3,0.001665115,-0.004125595,0.01068306,0,
00:03.3,0.001659393,-0.004125595,0.01068306,0,
00:03.3,0.001653671,-0.004131317,0.01068306,0,
00:03.3,0.001659393,-0.004142761,0.010688782,0,
00:03.3,0.001653671,-0.004148483,0.010688782,0,
00:03.3,0.001636505,-0.004154205,0.010694504,0,
00:03.3,0.001647949,-0.004165649,0.010688782,0,
00:03.3,0.001653671,-0.004165649,0.010688782,0,
00:03.3,0.001653671,-0.004148483,0.010688782,0,
00:03.3,0.001653671,-0.004131317,0.010694504,0,
00:03.3,0.001659393,-0.004125595,0.010694504,0,
00:03.3,0.001659393,-0.004131317,0.010688782,0,
00:03.3,0.001647949,-0.004142761,0.010688782,0,
00:03.3,0.001647949,-0.004148483,0.010700226,0,
00:03.3,0.001653671,-0.004159927,0.010700226,0,
00:03.3,0.001653671,-0.004159927,0.010700226,0,
00:03.3,0.001642227,-0.004165649,0.010700226,0,
00:03.4,0.001636505,-0.004165649,0.010700226,0,
00:03.4,0.001647949,-0.004159927,0.010705948,0,
00:03.4,0.001647949,-0.004148483,0.010705948,0,
00:03.4,0.001653671,-0.004137039,0.010705948,0,
00:03.4,0.001647949,-0.004137039,0.010700226,0,
00:03.4,0.001642227,-0.004137039,0.010705948,0,
00:03.4,0.001659393,-0.004142761,0.01071167,0,
00:03.4,0.001653671,-0.004131317,0.01071167,0,
00:03.4,0.001642227,-0.004137039,0.01071167,0,
00:03.4,0.001665115,-0.004148483,0.01071167,0,
00:03.4,0.001653671,-0.004142761,0.01071167,0,
00:03.4,0.001647949,-0.004148483,0.010717392,0,
00:03.4,0.001647949,-0.004165649,0.010717392,0,
00:03.4,0.001647949,-0.004159927,0.010717392,0,
00:03.4,0.001653671,-0.004131317,0.01071167,0,
00:03.4,0.001659393,-0.004131317,0.010717392,0,
00:03.4,0.001647949,-0.004131317,0.010723114,0,
00:03.4,0.001642227,-0.004142761,0.010723114,0,
00:03.4,0.001636505,-0.004159927,0.010723114,0,
00:03.4,0.001630783,-0.004177094,0.010723114,0,
00:03.4,0.001642227,-0.004165649,0.010723114,0,
00:03.4,0.001653671,-0.004137039,0.010728836,0,
00:03.4,0.001642227,-0.004142761,0.010728836,0,
00:03.4,0.001630783,-0.004171371,0.010728836,0,
00:03.4,0.001642227,-0.004177094,0.010723114,0,
00:03.5,0.001665115,-0.004131317,0.010728836,0,
00:03.5,0.001665115,-0.004119873,0.010734558,0,
00:03.5,0.001653671,-0.004125595,0.010734558,0,
00:03.5,0.001653671,-0.004131317,0.010734558,0,
00:03.5,0.001647949,-0.004137039,0.010728836,0,
00:03.5,0.001647949,-0.004154205,0.010734558,0,
00:03.5,0.001647949,-0.004159927,0.01074028,0,
00:03.5,0.001642227,-0.004159927,0.01074028,0,
00:03.5,0.001642227,-0.004154205,0.01074028,0,
00:03.5,0.001647949,-0.004148483,0.010734558,0,
00:03.5,0.001647949,-0.004159927,0.01074028,0,
00:03.5,0.001647949,-0.004159927,0.010746002,0,
00:03.5,0.001647949,-0.004148483,0.010746002,0,
00:03.5,0.001642227,-0.004148483,0.010746002,0,
00:03.5,0.001642227,-0.004148483,0.010746002,0,
00:03.5,0.001642227,-0.004148483,0.010746002,0,
00:03.5,0.001647949,-0.004148483,0.010751724,0,
00:03.5,0.001642227,-0.004142761,0.010757446,0,
00:03.5,0.001636505,-0.004142761,0.010751724,0,
00:03.5,0.001642227,-0.004159927,0.010751724,0,
00:03.5,0.001636505,-0.004177094,0.010751724,0,
00:03.5,0.001630783,-0.00419426,0.010757446,0,
00:03.5,0.001636505,-0.004177094,0.010763168,0,
00:03.5,0.001653671,-0.004131317,0.010757446,0,
00:03.5,0.001653671,-0.004114151,0.010751724,0,
00:03.6,0.001642227,-0.004137039,0.010757446,0,
00:03.6,0.001630783,-0.004154205,0.010763168,0,
00:03.6,0.001642227,-0.004159927,0.01076889,0,
00:03.6,0.001653671,-0.004148483,0.01076889,0,
00:03.6,0.001653671,-0.004137039,0.010763168,0,
00:03.6,0.001647949,-0.004142761,0.010763168,0,
00:03.6,0.001647949,-0.004148483,0.01076889,0,
00:03.6,0.001642227,-0.004148483,0.010774612,0,
00:03.6,0.001636505,-0.004154205,0.010774612,0,
00:03.6,0.001642227,-0.004159927,0.01076889,0,
00:03.6,0.001636505,-0.004159927,0.01076889,0,
00:03.6,0.001636505,-0.004159927,0.010774612,0,
00:03.6,0.001642227,-0.004148483,0.010780334,0,
00:03.6,0.001636505,-0.004148483,0.010774612,0,
00:03.6,0.001625061,-0.004165649,0.010774612,0,
00:03.6,0.001625061,-0.004165649,0.010774612,0,
00:03.6,0.001647949,-0.004154205,0.010780334,0,
00:03.6,0.001647949,-0.004148483,0.010786057,0,
00:03.6,0.001636505,-0.004154205,0.010786057,0,
00:03.6,0.001630783,-0.004165649,0.010780334,0,
00:03.6,0.001625061,-0.004171371,0.010780334,0,
00:03.6,0.001625061,-0.004159927,0.010786057,0,
00:03.6,0.001642227,-0.004131317,0.010791779,0,
00:03.6,0.001647949,-0.004137039,0.010786057,0,
00:03.6,0.001647949,-0.004148483,0.010786057,0,
00:03.7,0.001642227,-0.004142761,0.010786057,0,
00:03.7,0.001647949,-0.004137039,0.010791779,0,
00:03.7,0.001647949,-0.004131317,0.010797501,0,
00:03.7,0.001642227,-0.004148483,0.010797501,0,
00:03.7,0.001642227,-0.004154205,0.010791779,0,
00:03.7,0.001636505,-0.004171371,0.010797501,0,
00:03.7,0.001625061,-0.004182816,0.010803223,0,
00:03.7,0.001636505,-0.004159927,0.010803223,0,
00:03.7,0.001642227,-0.004137039,0.010797501,0,
00:03.7,0.001642227,-0.004142761,0.010797501,0,
00:03.7,0.001642227,-0.004142761,0.010803223,0,
00:03.7,0.001636505,-0.004142761,0.010808945,0,
00:03.7,0.001630783,-0.004154205,0.010814667,0,
00:03.7,0.001619339,-0.004177094,0.010808945,0,
00:03.7,0.001636505,-0.004165649,0.010803223,0,
00:03.7,0.001642227,-0.004142761,0.010808945,0,
00:03.7,0.001636505,-0.004142761,0.010808945,0,
00:03.7,0.001625061,-0.004165649,0.010814667,0,
00:03.7,0.001630783,-0.004165649,0.010814667,0,
00:03.7,0.001636505,-0.004142761,0.010808945,0,
00:03.7,0.001647949,-0.004125595,0.010808945,0,
00:03.7,0.001647949,-0.004137039,0.010820389,0,
00:03.7,0.001642227,-0.004142761,0.010820389,0,
00:03.7,0.001647949,-0.004137039,0.010820389,0,
00:03.7,0.001647949,-0.004131317,0.010814667,0,
00:03.8,0.001647949,-0.004131317,0.010820389,0,
00:03.8,0.001630783,-0.004148483,0.010826111,0,
00:03.8,0.001619339,-0.004171371,0.010831833,0,
00:03.8,0.001630783,-0.004165649,0.010826111,0,
00:03.8,0.001630783,-0.004148483,0.010820389,0,
00:03.8,0.001636505,-0.004142761,0.010826111,0,
00:03.8,0.001642227,-0.004142761,0.010831833,0,
00:03.8,0.001642227,-0.004142761,0.010831833,0,
00:03.8,0.001636505,-0.004148483,0.010831833,0,
00:03.8,0.001636505,-0.004148483,0.010826111,0,
00:03.8,0.001630783,-0.004154205,0.010826111,0,
00:03.8,0.001630783,-0.004148483,0.010831833,0,
00:03.8,0.001625061,-0.004165649,0.010837555,0,
00:03.8,0.001619339,-0.004171371,0.010837555,0,
00:03.8,0.001630783,-0.004154205,0.010831833,0,
00:03.8,0.001630783,-0.004148483,0.010831833,0,
00:03.8,0.001636505,-0.004148483,0.010837555,0,
00:03.8,0.001647949,-0.004131317,0.010837555,0,
00:03.8,0.001642227,-0.004125595,0.010837555,0,
00:03.8,0.001642227,-0.004131317,0.010831833,0,
00:03.8,0.001636505,-0.004142761,0.010831833,0,
00:03.8,0.001625061,-0.004148483,0.010837555,0,
00:03.8,0.001630783,-0.004154205,0.010843277,0,
00:03.8,0.001619339,-0.004159927,0.010843277,0,
00:03.8,0.001630783,-0.004154205,0.010837555,0,
00:03.9,0.001630783,-0.004154205,0.010837555,0,
00:03.9,0.001636505,-0.004142761,0.010843277,0,
00:03.9,0.001636505,-0.004137039,0.010848999,0,
00:03.9,0.001642227,-0.004148483,0.010848999,0,
00:03.9,0.001630783,-0.004154205,0.010843277,0,
00:03.9,0.001630783,-0.004148483,0.010843277,0,
00:03.9,0.001630783,-0.004148483,0.010848999,0,
00:03.9,0.001636505,-0.004137039,0.010854721,0,
00:03.9,0.001636505,-0.004137039,0.010848999,0,
00:03.9,0.001636505,-0.004154205,0.010848999,0,
00:03.9,0.001619339,-0.004159927,0.010843277,0,
00:03.9,0.001613617,-0.004154205,0.010854721,0,
00:03.9,0.001625061,-0.004148483,0.010854721,0,
00:03.9,0.001642227,-0.004142761,0.010848999,0,
00:03.9,0.001636505,-0.004142761,0.010848999,0,
00:03.9,0.001630783,-0.004142761,0.010848999,0,
00:03.9,0.001642227,-0.004137039,0.010854721,0,
00:03.9,0.001625061,-0.004137039,0.010860443,0,
00:03.9,0.001630783,-0.004137039,0.010860443,0,
00:03.9,0.001625061,-0.004148483,0.010854721,0,
00:03.9,0.001636505,-0.004142761,0.010860443,0,
00:03.9,0.001630783,-0.004148483,0.010860443,0,
00:03.9,0.001625061,-0.004154205,0.010866165,0,
00:03.9,0.001636505,-0.004154205,0.010866165,0,
00:03.9,0.001630783,-0.004154205,0.010860443,0,
00:04.0,0.001625061,-0.004148483,0.010860443,0,
00:04.0,0.001630783,-0.004137039,0.010866165,0,
00:04.0,0.001630783,-0.004137039,0.010866165,0,
00:04.0,0.001636505,-0.004125595,0.010866165,0,
00:04.0,0.001636505,-0.004131317,0.010866165,0,
00:04.0,0.001630783,-0.004148483,0.010866165,0,
00:04.0,0.001613617,-0.004154205,0.010871887,0,
00:04.0,0.001613617,-0.004148483,0.010871887,0,
00:04.0,0.001630783,-0.004137039,0.010866165,0,
00:04.0,0.001636505,-0.004131317,0.010860443,0,
00:04.0,0.001636505,-0.004137039,0.010866165,0,
00:04.0,0.001636505,-0.004142761,0.010866165,0,
00:00:04,0.001625061,-0.004142761,0.010871887,0,
00:04.0,0.001619339,-0.004125595,0.010871887,0,
00:04.0,0.001642227,-0.004137039,0.010866165,0,
00:04.0,0.001636505,-0.004148483,0.010866165,0,
00:04.0,0.001630783,-0.004142761,0.010871887,0,
00:04.0,0.001613617,-0.004142761,0.010877609,0,
00:04.0,0.001636505,-0.004137039,0.010871887,0,
00:04.0,0.001636505,-0.004142761,0.010866165,0,
00:04.0,0.001630783,-0.004154205,0.010871887,0,
00:04.0,0.001630783,-0.004154205,0.010877609,0,
00:04.0,0.001619339,-0.004154205,0.010877609,0,
00:04.0,0.001625061,-0.004148483,0.010877609,0,
00:04.0,0.001625061,-0.004137039,0.010871887,0,
00:04.1,0.001630783,-0.004131317,0.010871887,0,
00:04.1,0.001630783,-0.004142761,0.010877609,0,
00:04.1,0.001619339,-0.004142761,0.010883331,0,
00:04.1,0.001619339,-0.004142761,0.010883331,0,
00:04.1,0.001625061,-0.004148483,0.010883331,0,
00:04.1,0.001619339,-0.004148483,0.010883331,0,
00:04.1,0.001636505,-0.004137039,0.010883331,0,
00:04.1,0.001636505,-0.004119873,0.010889053,0,
00:04.1,0.001636505,-0.004114151,0.010883331,0,
00:04.1,0.001619339,-0.004137039,0.010883331,0,
00:04.1,0.001613617,-0.004165649,0.010883331,0,
00:04.1,0.001619339,-0.004165649,0.010889053,0,
00:04.1,0.001630783,-0.004142761,0.010883331,0,
00:04.1,0.001630783,-0.004131317,0.010889053,0,
00:04.1,0.001636505,-0.004137039,0.010889053,0,
00:04.1,0.001630783,-0.004142761,0.010889053,0,
00:04.1,0.001630783,-0.004148483,0.010894775,0,
00:04.1,0.001619339,-0.004165649,0.010889053,0,
00:04.1,0.001625061,-0.004165649,0.010889053,0,
00:04.1,0.001630783,-0.004148483,0.010889053,0,
00:04.1,0.001630783,-0.004131317,0.010889053,0,
00:04.1,0.001630783,-0.004137039,0.010894775,0,
00:04.1,0.001625061,-0.004154205,0.010894775,0,
00:04.1,0.001625061,-0.004148483,0.010894775,0,
00:04.1,0.001625061,-0.004142761,0.010883331,0,
00:04.2,0.001630783,-0.004137039,0.010889053,0,
00:04.2,0.001630783,-0.004137039,0.010894775,0,
00:04.2,0.001625061,-0.004131317,0.010894775,0,
00:04.2,0.001619339,-0.004137039,0.010894775,0,
00:04.2,0.001625061,-0.004142761,0.010889053,0,
00:04.2,0.001619339,-0.004154205,0.010894775,0,
00:04.2,0.001619339,-0.004171371,0.010900497,0,
00:04.2,0.001613617,-0.004171371,0.010900497,0,
00:04.2,0.001625061,-0.004154205,0.010894775,0,
00:04.2,0.001625061,-0.004125595,0.010894775,0,
00:04.2,0.001619339,-0.004125595,0.010894775,0,
00:04.2,0.001619339,-0.004131317,0.010900497,0,
00:04.2,0.001636505,-0.004137039,0.010906219,0,
00:04.2,0.001625061,-0.004148483,0.010900497,0,
00:04.2,0.001619339,-0.004159927,0.010900497,0,
00:04.2,0.001619339,-0.004171371,0.010900497,0,
00:04.2,0.001607895,-0.004182816,0.010900497,0,
00:04.2,0.001619339,-0.004154205,0.010906219,0,
00:04.2,0.001625061,-0.004142761,0.010900497,0,
00:04.2,0.001625061,-0.004148483,0.010894775,0,
00:04.2,0.001625061,-0.004142761,0.010900497,0,
00:04.2,0.001630783,-0.004131317,0.010906219,0,
00:04.2,0.001619339,-0.004137039,0.010906219,0,
00:04.2,0.001613617,-0.004154205,0.010900497,0,
00:04.2,0.001596451,-0.004171371,0.010900497,0,
00:04.3,0.001619339,-0.004137039,0.010900497,0,
00:04.3,0.001625061,-0.004119873,0.010906219,0,
00:04.3,0.001630783,-0.004125595,0.010906219,0,
00:04.3,0.001619339,-0.004142761,0.010900497,0,
00:04.3,0.001625061,-0.004142761,0.010894775,0,
00:04.3,0.001625061,-0.004131317,0.010900497,0,
00:04.3,0.001625061,-0.004142761,0.010906219,0,
00:04.3,0.001613617,-0.004154205,0.010906219,0,
00:04.3,0.001613617,-0.004154205,0.010906219,0,
00:04.3,0.001625061,-0.004148483,0.010906219,0,
00:04.3,0.001619339,-0.004159927,0.010906219,0,
00:04.3,0.001619339,-0.004159927,0.010906219,0,
00:04.3,0.001630783,-0.004142761,0.010911942,0,
00:04.3,0.001630783,-0.004137039,0.010911942,0,
00:04.3,0.001613617,-0.004154205,0.010906219,0,
00:04.3,0.001613617,-0.004165649,0.010906219,0,
00:04.3,0.001619339,-0.004159927,0.010911942,0,
00:04.3,0.001613617,-0.004142761,0.010911942,0,
00:04.3,0.001625061,-0.004131317,0.010911942,0,
00:04.3,0.001619339,-0.004142761,0.010906219,0,
00:04.3,0.001613617,-0.004148483,0.010911942,0,
00:04.3,0.001619339,-0.004137039,0.010911942,0,
00:04.3,0.001636505,-0.004137039,0.010911942,0,
00:04.3,0.001630783,-0.004142761,0.010911942,0,
00:04.3,0.001630783,-0.004148483,0.010906219,0,
00:04.4,0.001607895,-0.004148483,0.010906219,0,
00:04.4,0.001607895,-0.004142761,0.010911942,0,
00:04.4,0.001625061,-0.004148483,0.010911942,0,
00:04.4,0.001619339,-0.004159927,0.010906219,0,
00:04.4,0.001613617,-0.004154205,0.010906219,0,
00:04.4,0.001613617,-0.004148483,0.010906219,0,
00:04.4,0.001613617,-0.004148483,0.010911942,0,
00:04.4,0.001602173,-0.004154205,0.010917664,0,
00:04.4,0.001602173,-0.004148483,0.010911942,0,
00:04.4,0.001625061,-0.004131317,0.010906219,0,
00:04.4,0.001630783,-0.004137039,0.010906219,0,
00:04.4,0.001625061,-0.004148483,0.010911942,0,
00:04.4,0.001613617,-0.004148483,0.010911942,0,
00:04.4,0.001607895,-0.004137039,0.010911942,0,
00:04.4,0.001619339,-0.004131317,0.010906219,0,
00:04.4,0.001613617,-0.004137039,0.010906219,0,
00:04.4,0.001607895,-0.004148483,0.010911942,0,
00:04.4,0.001613617,-0.004165649,0.010911942,0,
00:04.4,0.001619339,-0.004159927,0.010906219,0,
00:04.4,0.001625061,-0.004131317,0.010906219,0,
00:04.4,0.001625061,-0.004125595,0.010906219,0,
00:04.4,0.001619339,-0.004137039,0.010911942,0,
00:04.4,0.001607895,-0.004154205,0.010917664,0,
00:04.4,0.001602173,-0.004177094,0.010911942,0,
00:04.4,0.001607895,-0.004171371,0.010911942,0,
00:04.5,0.001619339,-0.004142761,0.010906219,0,
00:04.5,0.001619339,-0.004125595,0.010911942,0,
00:04.5,0.001630783,-0.004131317,0.010911942,0,
00:04.5,0.001619339,-0.004137039,0.010911942,0,
00:04.5,0.001613617,-0.004131317,0.010906219,0,
00:04.5,0.001602173,-0.004142761,0.010911942,0,
00:04.5,0.001602173,-0.004148483,0.010911942,0,
00:04.5,0.001613617,-0.004142761,0.010911942,0,
00:04.5,0.001625061,-0.004137039,0.010906219,0,
00:04.5,0.001619339,-0.004119873,0.010906219,0,
00:04.5,0.001619339,-0.004114151,0.010911942,0,
00:04.5,0.001619339,-0.004125595,0.010911942,0,
00:04.5,0.001619339,-0.004142761,0.010911942,0,
00:04.5,0.001602173,-0.004154205,0.010911942,0,
00:04.5,0.001613617,-0.004154205,0.010911942,0,
00:04.5,0.001607895,-0.004142761,0.010911942,0,
00:04.5,0.001619339,-0.004137039,0.010917664,0,
00:04.5,0.001625061,-0.004131317,0.010917664,0,
00:04.5,0.001613617,-0.004131317,0.010911942,0,
00:04.5,0.001619339,-0.004125595,0.010906219,0,
00:04.5,0.001619339,-0.004137039,0.010911942,0,
00:04.5,0.001613617,-0.004148483,0.010911942,0,
00:04.5,0.001613617,-0.004142761,0.010917664,0,
00:04.5,0.001613617,-0.004131317,0.010911942,0,
00:04.5,0.001613617,-0.004125595,0.010911942,0,
00:04.6,0.001607895,-0.004137039,0.010911942,0,
00:04.6,0.001613617,-0.004148483,0.010911942,0,
00:04.6,0.001607895,-0.004148483,0.010917664,0,
00:04.6,0.001602173,-0.004159927,0.010917664,0,
00:04.6,0.001613617,-0.004148483,0.010911942,0,
00:04.6,0.001613617,-0.004125595,0.010911942,0,
00:04.6,0.001613617,-0.004114151,0.010917664,0,
00:04.6,0.001619339,-0.004119873,0.010917664,0,
00:04.6,0.001619339,-0.004131317,0.010911942,0,
00:04.6,0.001613617,-0.004137039,0.010906219,0,
00:04.6,0.001619339,-0.004142761,0.010906219,0,
00:04.6,0.001619339,-0.004148483,0.010911942,0,
00:04.6,0.001619339,-0.004148483,0.010917664,0,
00:04.6,0.001607895,-0.004159927,0.010917664,0,
00:04.6,0.001607895,-0.004154205,0.010911942,0,
00:04.6,0.001619339,-0.004131317,0.010911942,0,
00:04.6,0.001625061,-0.004119873,0.010917664,0,
00:04.6,0.001613617,-0.004142761,0.010917664,0,
00:04.6,0.001613617,-0.004148483,0.010911942,0,
00:04.6,0.001613617,-0.004137039,0.010911942,0,
00:04.6,0.001619339,-0.004131317,0.010917664,0,
00:04.6,0.001602173,-0.004137039,0.010917664,0,
00:04.6,0.001607895,-0.004131317,0.010923386,0,
00:04.6,0.001625061,-0.004114151,0.010917664,0,
00:04.6,0.001625061,-0.004119873,0.010906219,0,
00:04.7,0.001607895,-0.004131317,0.010911942,0,
00:04.7,0.001607895,-0.004154205,0.010917664,0,
00:04.7,0.001607895,-0.004148483,0.010917664,0,
00:04.7,0.001619339,-0.004131317,0.010911942,0,
00:04.7,0.001625061,-0.004108429,0.010906219,0,
00:04.7,0.001625061,-0.004114151,0.010911942,0,
00:04.7,0.001625061,-0.004119873,0.010917664,0,
00:04.7,0.001619339,-0.004125595,0.010917664,0,
00:04.7,0.001619339,-0.004137039,0.010911942,0,
00:04.7,0.001619339,-0.004142761,0.010906219,0,
00:04.7,0.001602173,-0.004148483,0.010911942,0,
00:04.7,0.001613617,-0.004148483,0.010917664,0,
00:04.7,0.001619339,-0.004131317,0.010917664,0,
00:04.7,0.001602173,-0.004131317,0.010911942,0,
00:04.7,0.001625061,-0.004137039,0.010911942,0,
00:04.7,0.001630783,-0.004137039,0.010911942,0,
00:04.7,0.001625061,-0.004125595,0.010911942,0,
00:04.7,0.001613617,-0.004131317,0.010911942,0,
00:04.7,0.001590729,-0.004154205,0.010911942,0,
00:04.7,0.001590729,-0.004165649,0.010906219,0,
00:04.7,0.001625061,-0.004142761,0.010911942,0,
00:04.7,0.001630783,-0.004114151,0.010917664,0,
00:04.7,0.001619339,-0.004108429,0.010911942,0,
00:04.7,0.001613617,-0.004131317,0.010911942,0,
00:04.7,0.001619339,-0.004142761,0.010906219,0,
00:04.8,0.001619339,-0.004137039,0.010906219,0,
00:04.8,0.001619339,-0.004114151,0.010911942,0,
00:04.8,0.001619339,-0.004102707,0.010917664,0,
00:04.8,0.001625061,-0.004119873,0.010911942,0,
00:04.8,0.001625061,-0.004137039,0.010906219,0,
00:04.8,0.001613617,-0.004148483,0.010906219,0,
00:04.8,0.001613617,-0.004131317,0.010917664,0,
00:04.8,0.001619339,-0.004114151,0.010917664,0,
00:04.8,0.001619339,-0.004114151,0.010911942,0,
00:04.8,0.001619339,-0.004125595,0.010906219,0,
00:04.8,0.001613617,-0.004142761,0.010906219,0,
00:04.8,0.001596451,-0.004154205,0.010911942,0,
00:04.8,0.001602173,-0.004154205,0.010911942,0,
00:04.8,0.001630783,-0.004131317,0.010911942,0,
00:04.8,0.001636505,-0.004114151,0.010906219,0,
00:04.8,0.001625061,-0.004125595,0.010906219,0,
00:04.8,0.001625061,-0.004137039,0.010911942,0,
00:04.8,0.001619339,-0.004142761,0.010911942,0,
00:04.8,0.001619339,-0.004131317,0.010906219,0,
00:04.8,0.001613617,-0.004125595,0.010900497,0,
00:04.8,0.001630783,-0.004142761,0.010900497,0,
00:04.8,0.001630783,-0.004148483,0.010906219,0,
00:04.8,0.001625061,-0.004125595,0.010906219,0,
00:04.8,0.001636505,-0.004108429,0.010906219,0,
00:04.8,0.001625061,-0.004114151,0.010900497,0,
00:04.9,0.001625061,-0.004125595,0.010900497,0,
00:04.9,0.001630783,-0.004125595,0.010911942,0,
00:04.9,0.001613617,-0.004142761,0.010911942,0,
00:04.9,0.001613617,-0.004159927,0.010906219,0,
00:04.9,0.001630783,-0.004131317,0.010900497,0,
00:04.9,0.001642227,-0.004108429,0.010900497,0,
00:04.9,0.001642227,-0.004119873,0.010906219,0,
00:04.9,0.001630783,-0.004131317,0.010911942,0,
00:04.9,0.001619339,-0.004142761,0.010906219,0,
00:04.9,0.001619339,-0.004137039,0.010906219,0,
00:04.9,0.001619339,-0.004142761,0.010906219,0,
00:04.9,0.001619339,-0.004131317,0.010906219,0,
00:04.9,0.001625061,-0.004125595,0.010906219,0,
00:04.9,0.001625061,-0.004125595,0.010900497,0,
00:04.9,0.001630783,-0.004119873,0.010900497,0,
00:04.9,0.001630783,-0.004114151,0.010900497,0,
00:04.9,0.001630783,-0.004114151,0.010906219,0,
00:04.9,0.001625061,-0.004125595,0.010906219,0,
00:04.9,0.001619339,-0.004142761,0.010906219,0,
00:04.9,0.001619339,-0.004154205,0.010900497,0,
00:04.9,0.001619339,-0.004159927,0.010900497,0,
00:04.9,0.001625061,-0.004142761,0.010906219,0,
00:04.9,0.001630783,-0.004114151,0.010906219,0,
00:04.9,0.001630783,-0.004102707,0.010900497,0,
00:04.9,0.001636505,-0.004114151,0.010900497,0,
00:05.0,0.001630783,-0.004131317,0.010900497,0,
00:05.0,0.001619339,-0.004142761,0.010906219,0,
00:05.0,0.001625061,-0.004137039,0.010906219,0,
00:05.0,0.001625061,-0.004137039,0.010900497,0,
00:05.0,0.001625061,-0.004142761,0.010894775,0,
00:05.0,0.001625061,-0.004142761,0.010894775,0,
00:05.0,0.001607895,-0.004142761,0.010906219,0,
00:05.0,0.001596451,-0.004159927,0.010906219,0,
00:05.0,0.001642227,-0.004137039,0.010894775,0,
00:05.0,0.001647949,-0.004119873,0.010889053,0,
00:05.0,0.001630783,-0.004125595,0.010894775,0,
00:05.0,0.001642227,-0.004108429,0.010900497,0,
00:00:05,0.001630783,-0.004119873,0.010900497,0,
00:05.0,0.001630783,-0.004137039,0.010894775,0,
00:05.0,0.001625061,-0.004131317,0.010894775,0,
00:05.0,0.001630783,-0.004114151,0.010894775,0,
00:05.0,0.001647949,-0.004108429,0.010894775,0,
00:05.0,0.001642227,-0.004125595,0.010894775,0,
00:05.0,0.001625061,-0.004148483,0.010894775,0,
00:05.0,0.001613617,-0.004171371,0.010889053,0,
00:05.0,0.001625061,-0.004148483,0.010889053,0,
00:05.0,0.001625061,-0.004114151,0.010894775,0,
00:05.0,0.001625061,-0.004125595,0.010900497,0,
00:05.0,0.001636505,-0.004131317,0.010894775,0,
00:05.0,0.001630783,-0.004125595,0.010889053,0,
00:05.1,0.001642227,-0.004119873,0.010889053,0,
00:05.1,0.001636505,-0.004131317,0.010894775,0,
00:05.1,0.001636505,-0.004131317,0.010894775,0,
00:05.1,0.001636505,-0.004119873,0.010889053,0,
00:05.1,0.001636505,-0.004119873,0.010889053,0,
00:05.1,0.001630783,-0.004131317,0.010889053,0,
00:05.1,0.001619339,-0.004148483,0.010894775,0,
00:05.1,0.001619339,-0.004159927,0.010894775,0,
00:05.1,0.001619339,-0.004154205,0.010889053,0,
00:05.1,0.001619339,-0.004148483,0.010883331,0,
00:05.1,0.001625061,-0.004125595,0.010889053,0,
00:05.1,0.001625061,-0.004114151,0.010894775,0,
00:05.1,0.001625061,-0.004114151,0.010889053,0,
00:05.1,0.001625061,-0.004125595,0.010883331,0,
00:05.1,0.001630783,-0.004137039,0.010883331,0,
00:05.1,0.001619339,-0.004137039,0.010883331,0,
00:05.1,0.001625061,-0.004131317,0.010889053,0,
00:05.1,0.001630783,-0.004131317,0.010889053,0,
00:05.1,0.001613617,-0.004137039,0.010889053,0,
00:05.1,0.001625061,-0.004131317,0.010889053,0,
00:05.1,0.001630783,-0.004125595,0.010889053,0,
00:05.1,0.001630783,-0.004125595,0.010889053,0,
00:05.1,0.001630783,-0.004131317,0.010889053,0,
00:05.1,0.001619339,-0.004119873,0.010883331,0,
00:05.1,0.001625061,-0.004114151,0.010883331,0,
00:05.2,0.001636505,-0.004119873,0.010883331,0,
00:05.2,0.001630783,-0.004131317,0.010883331,0,
00:05.2,0.001625061,-0.004131317,0.010889053,0,
00:05.2,0.001625061,-0.004119873,0.010883331,0,
00:05.2,0.001613617,-0.004125595,0.010883331,0,
00:05.2,0.001619339,-0.004131317,0.010883331,0,
00:05.2,0.001625061,-0.004148483,0.010889053,0,
00:05.2,0.001613617,-0.004154205,0.010889053,0,
00:05.2,0.001619339,-0.004142761,0.010883331,0,
00:05.2,0.001630783,-0.004125595,0.010877609,0,
00:05.2,0.001636505,-0.004108429,0.010877609,0,
00:05.2,0.001625061,-0.004114151,0.010889053,0,
00:05.2,0.001613617,-0.004137039,0.010889053,0,
00:05.2,0.001613617,-0.004159927,0.010883331,0,
00:05.2,0.001619339,-0.004137039,0.010877609,0,
00:05.2,0.001636505,-0.004108429,0.010877609,0,
00:05.2,0.001619339,-0.004119873,0.010877609,0,
00:05.2,0.001630783,-0.004125595,0.010877609,0,
00:05.2,0.001642227,-0.004125595,0.010877609,0,
00:05.2,0.001630783,-0.004137039,0.010871887,0,
00:05.2,0.001613617,-0.004159927,0.010877609,0,
00:05.2,0.001613617,-0.004142761,0.010883331,0,
00:05.2,0.001636505,-0.004119873,0.010883331,0,
00:05.2,0.001630783,-0.004119873,0.010877609,0,
00:05.2,0.001630783,-0.004125595,0.010871887,0,
00:05.3,0.001630783,-0.004119873,0.010877609,0,
00:05.3,0.001625061,-0.004125595,0.010883331,0,
00:05.3,0.001630783,-0.004131317,0.010877609,0,
00:05.3,0.001630783,-0.004119873,0.010871887,0,
00:05.3,0.001636505,-0.004114151,0.010871887,0,
00:05.3,0.001630783,-0.004114151,0.010877609,0,
00:05.3,0.001630783,-0.004114151,0.010877609,0,
00:05.3,0.001636505,-0.004119873,0.010877609,0,
00:05.3,0.001630783,-0.004131317,0.010871887,0,
00:05.3,0.001619339,-0.004137039,0.010866165,0,
00:05.3,0.001625061,-0.004142761,0.010866165,0,
00:05.3,0.001619339,-0.004137039,0.010871887,0,
00:05.3,0.001630783,-0.004125595,0.010871887,0,
00:05.3,0.001625061,-0.004119873,0.010866165,0,
00:05.3,0.001613617,-0.004125595,0.010866165,0,
00:05.3,0.001625061,-0.004154205,0.010866165,0,
00:05.3,0.001619339,-0.004142761,0.010871887,0,
00:05.3,0.001636505,-0.004114151,0.010871887,0,
00:05.3,0.001642227,-0.004102707,0.010866165,0,
00:05.3,0.001630783,-0.004114151,0.010866165,0,
00:05.3,0.001619339,-0.004137039,0.010866165,0,
00:05.3,0.001619339,-0.004137039,0.010866165,0,
00:05.3,0.001625061,-0.004137039,0.010871887,0,
00:05.3,0.001619339,-0.004142761,0.010866165,0,
00:05.3,0.001613617,-0.004148483,0.010860443,0,
00:05.4,0.001613617,-0.004148483,0.010860443,0,
00:05.4,0.001625061,-0.004125595,0.010866165,0,
00:05.4,0.001630783,-0.004114151,0.010871887,0,
00:05.4,0.001636505,-0.004108429,0.010866165,0,
00:05.4,0.001630783,-0.004108429,0.010860443,0,
00:05.4,0.001625061,-0.004125595,0.010860443,0,
00:05.4,0.001630783,-0.004131317,0.010866165,0,
00:05.4,0.001625061,-0.004137039,0.010866165,0,
00:05.4,0.001625061,-0.004142761,0.010860443,0,
00:05.4,0.001625061,-0.004142761,0.010860443,0,
00:05.4,0.001625061,-0.004125595,0.010860443,0,
00:05.4,0.001636505,-0.004119873,0.010866165,0,
00:05.4,0.001630783,-0.004131317,0.010866165,0,
00:05.4,0.001630783,-0.004119873,0.010860443,0,
00:05.4,0.001636505,-0.004114151,0.010860443,0,
00:05.4,0.001636505,-0.004114151,0.010860443,0,
00:05.4,0.001630783,-0.004125595,0.010866165,0,
00:05.4,0.001619339,-0.004137039,0.010866165,0,
00:05.4,0.001619339,-0.004148483,0.010860443,0,
00:05.4,0.001613617,-0.004148483,0.010860443,0,
00:05.4,0.001630783,-0.004137039,0.010860443,0,
00:05.4,0.001642227,-0.004114151,0.010860443,0,
00:05.4,0.001636505,-0.004114151,0.010860443,0,
00:05.4,0.001630783,-0.004119873,0.010860443,0,
00:05.4,0.001625061,-0.004131317,0.010854721,0,
00:05.5,0.001625061,-0.004137039,0.010854721,0,
00:05.5,0.001625061,-0.004137039,0.010854721,0,
00:05.5,0.001625061,-0.004131317,0.010860443,0,
00:05.5,0.001636505,-0.004119873,0.010854721,0,
00:05.5,0.001630783,-0.004125595,0.010848999,0,
00:05.5,0.001613617,-0.004148483,0.010854721,0,
00:05.5,0.001619339,-0.004142761,0.010860443,0,
00:05.5,0.001630783,-0.004114151,0.010860443,0,
00:05.5,0.001642227,-0.004102707,0.010854721,0,
00:05.5,0.001636505,-0.004119873,0.010848999,0,
00:05.5,0.001625061,-0.004137039,0.010854721,0,
00:05.5,0.001613617,-0.004131317,0.010860443,0,
00:05.5,0.001625061,-0.004114151,0.010860443,0,
00:05.5,0.001625061,-0.004125595,0.010854721,0,
00:05.5,0.001630783,-0.004137039,0.010848999,0,
00:05.5,0.001619339,-0.004148483,0.010848999,0,
00:05.5,0.001630783,-0.004137039,0.010854721,0,
00:05.5,0.001636505,-0.004119873,0.010854721,0,
00:05.5,0.001642227,-0.004102707,0.010848999,0,
00:05.5,0.001642227,-0.004102707,0.010848999,0,
00:05.5,0.001630783,-0.004108429,0.010848999,0,
00:05.5,0.001625061,-0.004125595,0.010854721,0,
00:05.5,0.001630783,-0.004119873,0.010854721,0,
00:05.5,0.001630783,-0.004131317,0.010848999,0,
00:05.5,0.001630783,-0.004142761,0.010848999,0,
00:05.6,0.001619339,-0.004154205,0.010848999,0,
00:05.6,0.001625061,-0.004148483,0.010854721,0,
00:05.6,0.001625061,-0.004142761,0.010854721,0,
00:05.6,0.001630783,-0.004137039,0.010848999,0,
00:05.6,0.001630783,-0.004125595,0.010843277,0,
00:05.6,0.001636505,-0.004114151,0.010843277,0,
00:05.6,0.001630783,-0.004114151,0.010848999,0,
00:05.6,0.001630783,-0.004125595,0.010848999,0,
00:05.6,0.001625061,-0.004137039,0.010843277,0,
00:05.6,0.001619339,-0.004142761,0.010843277,0,
00:05.6,0.001625061,-0.004142761,0.010843277,0,
00:05.6,0.001636505,-0.004137039,0.010848999,0,
00:05.6,0.001636505,-0.004131317,0.010848999,0,
00:05.6,0.001636505,-0.004131317,0.010843277,0,
00:05.6,0.001625061,-0.004142761,0.010843277,0,
00:05.6,0.001636505,-0.004119873,0.010843277,0,
00:05.6,0.001642227,-0.004091263,0.010848999,0,
00:05.6,0.001636505,-0.004102707,0.010848999,0,
00:05.6,0.001636505,-0.004119873,0.010843277,0,
00:05.6,0.001630783,-0.004137039,0.010843277,0,
00:05.6,0.001625061,-0.004148483,0.010837555,0,
00:05.6,0.001636505,-0.004137039,0.010843277,0,
00:05.6,0.001619339,-0.004137039,0.010848999,0,
00:05.6,0.001619339,-0.004142761,0.010843277,0,
00:05.6,0.001625061,-0.004125595,0.010837555,0,
00:05.7,0.001636505,-0.004108429,0.010843277,0,
00:05.7,0.001630783,-0.004114151,0.010843277,0,
00:05.7,0.001630783,-0.004119873,0.010843277,0,
00:05.7,0.001630783,-0.004125595,0.010837555,0,
00:05.7,0.001625061,-0.004125595,0.010831833,0,
00:05.7,0.001625061,-0.004137039,0.010837555,0,
00:05.7,0.001619339,-0.004148483,0.010848999,0,
00:05.7,0.001625061,-0.004137039,0.010848999,0,
00:05.7,0.001625061,-0.004125595,0.010843277,0,
00:05.7,0.001619339,-0.004114151,0.010837555,0,
00:05.7,0.001619339,-0.004114151,0.010837555,0,
00:05.7,0.001630783,-0.004108429,0.010843277,0,
00:05.7,0.001642227,-0.004102707,0.010843277,0,
00:05.7,0.001636505,-0.004114151,0.010837555,0,
00:05.7,0.001630783,-0.004142761,0.010837555,0,
00:05.7,0.001630783,-0.004137039,0.010837555,0,
00:05.7,0.001619339,-0.004125595,0.010837555,0,
00:05.7,0.001630783,-0.004125595,0.010837555,0,
00:05.7,0.001630783,-0.004131317,0.010837555,0,
00:05.7,0.001625061,-0.004131317,0.010831833,0,
00:05.7,0.001625061,-0.004131317,0.010831833,0,
00:05.7,0.001625061,-0.004131317,0.010837555,0,
00:05.7,0.001636505,-0.004125595,0.010837555,0,
00:05.7,0.001630783,-0.004131317,0.010831833,0,
00:05.7,0.001619339,-0.004131317,0.010831833,0,
00:05.8,0.001619339,-0.004137039,0.010831833,0,
00:05.8,0.001619339,-0.004125595,0.010837555,0,
00:05.8,0.001636505,-0.004125595,0.010837555,0,
00:05.8,0.001636505,-0.004125595,0.010831833,0,
00:05.8,0.001630783,-0.004125595,0.010826111,0,
00:05.8,0.001636505,-0.004142761,0.010826111,0,
00:05.8,0.001625061,-0.004148483,0.010837555,0,
00:05.8,0.001625061,-0.004142761,0.010837555,0,
00:05.8,0.001630783,-0.004125595,0.010831833,0,
00:05.8,0.001625061,-0.004119873,0.010831833,0,
00:05.8,0.001625061,-0.004137039,0.010831833,0,
00:05.8,0.001625061,-0.004131317,0.010837555,0,
00:05.8,0.001625061,-0.004114151,0.010831833,0,
00:05.8,0.001636505,-0.004119873,0.010831833,0,
00:05.8,0.001642227,-0.004142761,0.010831833,0,
00:05.8,0.001613617,-0.004159927,0.010837555,0,
00:05.8,0.001619339,-0.004148483,0.010837555,0,
00:05.8,0.001636505,-0.004125595,0.010831833,0,
00:05.8,0.001636505,-0.004108429,0.010826111,0,
00:05.8,0.001636505,-0.004119873,0.010826111,0,
00:05.8,0.001630783,-0.004119873,0.010826111,0,
00:05.8,0.001642227,-0.004108429,0.010826111,0,
00:05.8,0.001642227,-0.004114151,0.010826111,0,
00:05.8,0.001636505,-0.004125595,0.010826111,0,
00:05.8,0.001630783,-0.004137039,0.010820389,0,
00:05.9,0.001625061,-0.004137039,0.010826111,0,
00:05.9,0.001619339,-0.004131317,0.010831833,0,
00:05.9,0.001619339,-0.004131317,0.010831833,0,
00:05.9,0.001625061,-0.004148483,0.010820389,0,
00:05.9,0.001625061,-0.004131317,0.010814667,0,
00:05.9,0.001630783,-0.004131317,0.010820389,0,
00:05.9,0.001619339,-0.004125595,0.010826111,0,
00:05.9,0.001625061,-0.004108429,0.010826111,0,
00:05.9,0.001642227,-0.004102707,0.010820389,0,
00:05.9,0.001636505,-0.004114151,0.010820389,0,
00:05.9,0.001636505,-0.004114151,0.010820389,0,
00:05.9,0.001630783,-0.004125595,0.010820389,0,
00:05.9,0.001630783,-0.004131317,0.010826111,0,
00:05.9,0.001625061,-0.004137039,0.010826111,0,
00:05.9,0.001630783,-0.004137039,0.010820389,0,
00:05.9,0.001630783,-0.004125595,0.010820389,0,
00:05.9,0.001630783,-0.004114151,0.010826111,0,
00:05.9,0.001636505,-0.004108429,0.010826111,0,
00:05.9,0.001625061,-0.004119873,0.010820389,0,
00:05.9,0.001613617,-0.004142761,0.010820389,0,
00:05.9,0.001630783,-0.004131317,0.010820389,0,
00:05.9,0.001642227,-0.004108429,0.010826111,0,
00:05.9,0.001636505,-0.004108429,0.010826111,0,
00:05.9,0.001630783,-0.004119873,0.010820389,0,
00:05.9,0.001619339,-0.004131317,0.010814667,0,
00:06.0,0.001619339,-0.004125595,0.010820389,0,
00:06.0,0.001630783,-0.004119873,0.010826111,0,
00:06.0,0.001630783,-0.004119873,0.010820389,0,
00:06.0,0.001625061,-0.004131317,0.010814667,0,
00:06.0,0.001630783,-0.004119873,0.010808945,0,
00:06.0,0.001636505,-0.004114151,0.010814667,0,
00:06.0,0.001630783,-0.004102707,0.010826111,0,
00:06.0,0.001625061,-0.004119873,0.010820389,0,
00:06.0,0.001619339,-0.004142761,0.010814667,0,
00:06.0,0.001619339,-0.004142761,0.010814667,0,
00:06.0,0.001636505,-0.004102707,0.010814667,0,
00:06.0,0.001642227,-0.004096985,0.010820389,0,
00:00:06,0.001630783,-0.004119873,0.010820389,0,
00:06.0,0.001625061,-0.004125595,0.010814667,0,
00:06.0,0.001613617,-0.004125595,0.010808945,0,
00:06.0,0.001630783,-0.004131317,0.010814667,0,
00:06.0,0.001636505,-0.004125595,0.010820389,0,
00:06.0,0.001630783,-0.004131317,0.010814667,0,
00:06.0,0.001625061,-0.004137039,0.010808945,0,
00:06.0,0.001625061,-0.004125595,0.010814667,0,
00:06.0,0.001630783,-0.004125595,0.010814667,0,
00:06.0,0.001642227,-0.004114151,0.010820389,0,
00:06.0,0.001636505,-0.004108429,0.010814667,0,
00:06.0,0.001630783,-0.004108429,0.010808945,0,
00:06.0,0.001636505,-0.004108429,0.010808945,0,
00:06.1,0.001636505,-0.004119873,0.010808945,0,
00:06.1,0.001625061,-0.004131317,0.010814667,0,
00:06.1,0.001625061,-0.004131317,0.010814667,0,
00:06.1,0.001619339,-0.004125595,0.010808945,0,
00:06.1,0.001630783,-0.004114151,0.010808945,0,
00:06.1,0.001625061,-0.004114151,0.010808945,0,
00:06.1,0.001625061,-0.004114151,0.010814667,0,
00:06.1,0.001630783,-0.004119873,0.010808945,0,
00:06.1,0.001630783,-0.004114151,0.010808945,0,
00:06.1,0.001630783,-0.004114151,0.010803223,0,
00:06.1,0.001636505,-0.004108429,0.010808945,0,
00:06.1,0.001630783,-0.004119873,0.010808945,0,
00:06.1,0.001625061,-0.004125595,0.010808945,0,
00:06.1,0.001625061,-0.004137039,0.010808945,0,
00:06.1,0.001625061,-0.004142761,0.010803223,0,
00:06.1,0.001625061,-0.004125595,0.010808945,0,
00:06.1,0.001642227,-0.004102707,0.010814667,0,
00:06.1,0.001636505,-0.004102707,0.010808945,0,
00:06.1,0.001642227,-0.004108429,0.010803223,0,
00:06.1,0.001630783,-0.004119873,0.010803223,0,
00:06.1,0.001619339,-0.004125595,0.010808945,0,
00:06.1,0.001625061,-0.004119873,0.010814667,0,
00:06.1,0.001642227,-0.004119873,0.010808945,0,
00:06.1,0.001636505,-0.004119873,0.010803223,0,
00:06.1,0.001619339,-0.004119873,0.010803223,0,
00:06.2,0.001636505,-0.004114151,0.010808945,0,
00:06.2,0.001647949,-0.004108429,0.010808945,0,
00:06.2,0.001642227,-0.004119873,0.010808945,0,
00:06.2,0.001636505,-0.004119873,0.010803223,0,
00:06.2,0.001619339,-0.004114151,0.010797501,0,
00:06.2,0.001642227,-0.004119873,0.010803223,0,
00:06.2,0.001636505,-0.004131317,0.010808945,0,
00:06.2,0.001630783,-0.004131317,0.010808945,0,
00:06.2,0.001636505,-0.004119873,0.010803223,0,
00:06.2,0.001636505,-0.004108429,0.010797501,0,
00:06.2,0.001630783,-0.004119873,0.010803223,0,
00:06.2,0.001630783,-0.004125595,0.010803223,0,
00:06.2,0.001642227,-0.004114151,0.010803223,0,
00:06.2,0.001642227,-0.004102707,0.010797501,0,
00:06.2,0.001642227,-0.004102707,0.010797501,0,
00:06.2,0.001636505,-0.004114151,0.010803223,0,
00:06.2,0.001636505,-0.004125595,0.010808945,0,
00:06.2,0.001619339,-0.004137039,0.010803223,0,
00:06.2,0.001625061,-0.004142761,0.010797501,0,
00:06.2,0.001636505,-0.004125595,0.010797501,0,
00:06.2,0.001642227,-0.004102707,0.010803223,0,
00:06.2,0.001630783,-0.004114151,0.010803223,0,
00:06.2,0.001619339,-0.004125595,0.010808945,0,
00:06.2,0.001630783,-0.004114151,0.010803223,0,
00:06.2,0.001636505,-0.004119873,0.010791779,0,
00:06.3,0.001642227,-0.004125595,0.010791779,0,
00:06.3,0.001636505,-0.004137039,0.010803223,0,
00:06.3,0.001630783,-0.004154205,0.010803223,0,
00:06.3,0.001619339,-0.004154205,0.010797501,0,
00:06.3,0.001625061,-0.004131317,0.010797501,0,
00:06.3,0.001642227,-0.004102707,0.010797501,0,
00:06.3,0.001647949,-0.004096985,0.010797501,0,
00:06.3,0.001647949,-0.004091263,0.010797501,0,
00:06.3,0.001642227,-0.004096985,0.010797501,0,
00:06.3,0.001636505,-0.004096985,0.010791779,0,
00:06.3,0.001642227,-0.004108429,0.010791779,0,
00:06.3,0.001636505,-0.004125595,0.010797501,0,
00:06.3,0.001625061,-0.004142761,0.010797501,0,
00:06.3,0.001625061,-0.004131317,0.010791779,0,
00:06.3,0.001630783,-0.004119873,0.010786057,0,
00:06.3,0.001625061,-0.004125595,0.010791779,0,
00:06.3,0.001636505,-0.004125595,0.010791779,0,
00:06.3,0.001647949,-0.004114151,0.010797501,0,
00:06.3,0.001642227,-0.004119873,0.010791779,0,
00:06.3,0.001625061,-0.004148483,0.010786057,0,
00:06.3,0.001613617,-0.004159927,0.010791779,0,
00:06.3,0.001613617,-0.004154205,0.010797501,0,
00:06.3,0.001625061,-0.004119873,0.010797501,0,
00:06.3,0.001647949,-0.004102707,0.010786057,0,
00:06.3,0.001647949,-0.004108429,0.010786057,0,
00:06.4,0.001636505,-0.004114151,0.010791779,0,
00:06.4,0.001630783,-0.004131317,0.010791779,0,
00:06.4,0.001642227,-0.004125595,0.010791779,0,
00:06.4,0.001630783,-0.004119873,0.010786057,0,
00:06.4,0.001630783,-0.004119873,0.010780334,0,
00:06.4,0.001630783,-0.004119873,0.010786057,0,
00:06.4,0.001636505,-0.004102707,0.010791779,0,
00:06.4,0.001636505,-0.004108429,0.010791779,0,
00:06.4,0.001642227,-0.004114151,0.010786057,0,
00:06.4,0.001642227,-0.004119873,0.010786057,0,
00:06.4,0.001636505,-0.004119873,0.010786057,0,
00:06.4,0.001636505,-0.004119873,0.010786057,0,
00:06.4,0.001642227,-0.004119873,0.010791779,0,
00:06.4,0.001636505,-0.004114151,0.010786057,0,
00:06.4,0.001630783,-0.004131317,0.010786057,0,
00:06.4,0.001630783,-0.004137039,0.010786057,0,
00:06.4,0.001630783,-0.004142761,0.010791779,0,
00:06.4,0.001636505,-0.004137039,0.010791779,0,
00:06.4,0.001636505,-0.004119873,0.010786057,0,
00:06.4,0.001642227,-0.004102707,0.010780334,0,
00:06.4,0.001642227,-0.004102707,0.010786057,0,
00:06.4,0.001647949,-0.004102707,0.010786057,0,
00:06.4,0.001636505,-0.004114151,0.010786057,0,
00:06.4,0.001636505,-0.004114151,0.010780334,0,
00:06.4,0.001642227,-0.004125595,0.010774612,0,
00:06.5,0.001630783,-0.004142761,0.010780334,0,
00:06.5,0.001625061,-0.004148483,0.010786057,0,
00:06.5,0.001619339,-0.004148483,0.010786057,0,
00:06.5,0.001636505,-0.004114151,0.010780334,0,
00:06.5,0.001653671,-0.004079819,0.010774612,0,
00:06.5,0.001647949,-0.004102707,0.010774612,0,
00:06.5,0.001636505,-0.004114151,0.010780334,0,
00:06.5,0.001642227,-0.004108429,0.010780334,0,
00:06.5,0.001642227,-0.004114151,0.010774612,0,
00:06.5,0.001636505,-0.004131317,0.010774612,0,
00:06.5,0.001636505,-0.004125595,0.010780334,0,
00:06.5,0.001642227,-0.004119873,0.010780334,0,
00:06.5,0.001642227,-0.004125595,0.010780334,0,
00:06.5,0.001647949,-0.004114151,0.010780334,0,
00:06.5,0.001647949,-0.004108429,0.010774612,0,
00:06.5,0.001647949,-0.004119873,0.010780334,0,
00:06.5,0.001636505,-0.004125595,0.010780334,0,
00:06.5,0.001636505,-0.004119873,0.010780334,0,
00:06.5,0.001636505,-0.004119873,0.010774612,0,
00:06.5,0.001647949,-0.004114151,0.010774612,0,
00:06.5,0.001642227,-0.004114151,0.010774612,0,
00:06.5,0.001636505,-0.004131317,0.010780334,0,
00:06.5,0.001647949,-0.004137039,0.010780334,0,
00:06.5,0.001636505,-0.004131317,0.010774612,0,
00:06.5,0.001647949,-0.004096985,0.010774612,0,
00:06.6,0.001653671,-0.004085541,0.010774612,0,
00:06.6,0.001647949,-0.004102707,0.010780334,0,
00:06.6,0.001642227,-0.004119873,0.010780334,0,
00:06.6,0.001642227,-0.004125595,0.010774612,0,
00:06.6,0.001647949,-0.004125595,0.01076889,0,
00:06.6,0.001636505,-0.004131317,0.010774612,0,
00:06.6,0.001642227,-0.004125595,0.010780334,0,
00:06.6,0.001642227,-0.004131317,0.010780334,0,
00:06.6,0.001636505,-0.004137039,0.01076889,0,
00:06.6,0.001636505,-0.004125595,0.01076889,0,
00:06.6,0.001653671,-0.004096985,0.010774612,0,
00:06.6,0.001659393,-0.004096985,0.010780334,0,
00:06.6,0.001647949,-0.004108429,0.010780334,0,
00:06.6,0.001636505,-0.004119873,0.010774612,0,
00:06.6,0.001642227,-0.004119873,0.010774612,0,
00:06.6,0.001653671,-0.004114151,0.010774612,0,
00:06.6,0.001647949,-0.004119873,0.010780334,0,
00:06.6,0.001636505,-0.004125595,0.010774612,0,
00:06.6,0.001636505,-0.004125595,0.01076889,0,
00:06.6,0.001636505,-0.004131317,0.010774612,0,
00:06.6,0.001636505,-0.004142761,0.010780334,0,
00:06.6,0.001642227,-0.004125595,0.010780334,0,
00:06.6,0.001647949,-0.004108429,0.010780334,0,
00:06.6,0.001647949,-0.004102707,0.010774612,0,
00:06.6,0.001653671,-0.004108429,0.010774612,0,
00:06.7,0.001636505,-0.004114151,0.010780334,0,
00:06.7,0.001642227,-0.004119873,0.010786057,0,
00:06.7,0.001647949,-0.004119873,0.010780334,0,
00:06.7,0.001642227,-0.004119873,0.010780334,0,
00:06.7,0.001636505,-0.004137039,0.010780334,0,
00:06.7,0.001636505,-0.004148483,0.010780334,0,
00:06.7,0.001642227,-0.004119873,0.010780334,0,
00:06.7,0.001653671,-0.004091263,0.010786057,0,
00:06.7,0.001647949,-0.004096985,0.010780334,0,
00:06.7,0.001636505,-0.004114151,0.010780334,0,
00:06.7,0.001630783,-0.004131317,0.010786057,0,
00:06.7,0.001636505,-0.004131317,0.010786057,0,
00:06.7,0.001630783,-0.004125595,0.010786057,0,
00:06.7,0.001636505,-0.004119873,0.010780334,0,
00:06.7,0.001665115,-0.004102707,0.010780334,0,
00:06.7,0.001665115,-0.004102707,0.010786057,0,
00:06.7,0.001659393,-0.004096985,0.010786057,0,
00:06.7,0.001642227,-0.004114151,0.010791779,0,
00:06.7,0.001630783,-0.004142761,0.010786057,0,
00:06.7,0.001636505,-0.004131317,0.010786057,0,
00:06.7,0.001647949,-0.004102707,0.010786057,0,
00:06.7,0.001642227,-0.004096985,0.010791779,0,
00:06.7,0.001642227,-0.004096985,0.010791779,0,
00:06.7,0.001647949,-0.004091263,0.010791779,0,
00:06.7,0.001636505,-0.004108429,0.010786057,0,
00:06.8,0.001642227,-0.004131317,0.010791779,0,
00:06.8,0.001642227,-0.004119873,0.010797501,0,
00:06.8,0.001642227,-0.004102707,0.010797501,0,
00:06.8,0.001636505,-0.004108429,0.010791779,0,
00:06.8,0.001642227,-0.004108429,0.010786057,0,
00:06.8,0.001653671,-0.004102707,0.010791779,0,
00:06.8,0.001653671,-0.004102707,0.010797501,0,
00:06.8,0.001636505,-0.004114151,0.010797501,0,
00:06.8,0.001619339,-0.004131317,0.010791779,0,
00:06.8,0.001625061,-0.004137039,0.010791779,0,
00:06.8,0.001642227,-0.004125595,0.010797501,0,
00:06.8,0.001653671,-0.004119873,0.010797501,0,
00:06.8,0.001647949,-0.004114151,0.010791779,0,
00:06.8,0.001647949,-0.004102707,0.010791779,0,
00:06.8,0.001653671,-0.004102707,0.010791779,0,
00:06.8,0.001653671,-0.004102707,0.010797501,0,
00:06.8,0.001647949,-0.004102707,0.010797501,0,
00:06.8,0.001636505,-0.004119873,0.010797501,0,
00:06.8,0.001636505,-0.004131317,0.010797501,0,
00:06.8,0.001630783,-0.004148483,0.010791779,0,
00:06.8,0.001630783,-0.004137039,0.010791779,0,
00:06.8,0.001636505,-0.004102707,0.010797501,0,
00:06.8,0.001653671,-0.004091263,0.010797501,0,
00:06.8,0.001647949,-0.004091263,0.010797501,0,
00:06.8,0.001647949,-0.004091263,0.010791779,0,
00:06.9,0.001636505,-0.004114151,0.010797501,0,
00:06.9,0.001630783,-0.004131317,0.010803223,0,
00:06.9,0.001630783,-0.004148483,0.010803223,0,
00:06.9,0.001636505,-0.004125595,0.010797501,0,
00:06.9,0.001653671,-0.004102707,0.010797501,0,
00:06.9,0.001653671,-0.004102707,0.010803223,0,
00:06.9,0.001636505,-0.004119873,0.010808945,0,
00:06.9,0.001636505,-0.004137039,0.010808945,0,
00:06.9,0.001647949,-0.004125595,0.010797501,0,
00:06.9,0.001647949,-0.004114151,0.010797501,0,
00:06.9,0.001642227,-0.004119873,0.010808945,0,
00:06.9,0.001636505,-0.004114151,0.010808945,0,
00:06.9,0.001636505,-0.004119873,0.010808945,0,
00:06.9,0.001630783,-0.004131317,0.010803223,0,
00:06.9,0.001630783,-0.004119873,0.010797501,0,
00:06.9,0.001642227,-0.004102707,0.010808945,0,
00:06.9,0.001642227,-0.004108429,0.010808945,0,
00:06.9,0.001642227,-0.004108429,0.010808945,0,
00:06.9,0.001642227,-0.004108429,0.010808945,0,
00:06.9,0.001636505,-0.004114151,0.010803223,0,
00:06.9,0.001636505,-0.004125595,0.010808945,0,
00:06.9,0.001636505,-0.004125595,0.010814667,0,
00:06.9,0.001630783,-0.004119873,0.010814667,0,
00:06.9,0.001636505,-0.004119873,0.010808945,0,
00:06.9,0.001642227,-0.004114151,0.010808945,0,
00:07.0,0.001630783,-0.004114151,0.010808945,0,
00:07.0,0.001636505,-0.004108429,0.010814667,0,
00:07.0,0.001642227,-0.004114151,0.010814667,0,
00:07.0,0.001636505,-0.004119873,0.010808945,0,
00:07.0,0.001642227,-0.004119873,0.010808945,0,
00:07.0,0.001642227,-0.004114151,0.010808945,0,
00:07.0,0.001636505,-0.004119873,0.010814667,0,
00:07.0,0.001636505,-0.004125595,0.010814667,0,
00:07.0,0.001642227,-0.004125595,0.010814667,0,
00:07.0,0.001647949,-0.004114151,0.010808945,0,
00:07.0,0.001636505,-0.004108429,0.010814667,0,
00:07.0,0.001630783,-0.004119873,0.010820389,0,
00:00:07,0.001630783,-0.004125595,0.010820389,0,
00:07.0,0.001636505,-0.004119873,0.010820389,0,
00:07.0,0.001642227,-0.004114151,0.010814667,0,
00:07.0,0.001630783,-0.004108429,0.010820389,0,
00:07.0,0.001636505,-0.004108429,0.010826111,0,
00:07.0,0.001647949,-0.004108429,0.010820389,0,
00:07.0,0.001647949,-0.004114151,0.010820389,0,
00:07.0,0.001636505,-0.004131317,0.010820389,0,
00:07.0,0.001625061,-0.004142761,0.010826111,0,
00:07.0,0.001630783,-0.004119873,0.010826111,0,
00:07.0,0.001630783,-0.004114151,0.010831833,0,
00:07.0,0.001625061,-0.004125595,0.010831833,0,
00:07.0,0.001625061,-0.004125595,0.010826111,0,
00:07.1,0.001630783,-0.004114151,0.010831833,0,
00:07.1,0.001647949,-0.004108429,0.010831833,0,
00:07.1,0.001642227,-0.004114151,0.010831833,0,
00:07.1,0.001630783,-0.004108429,0.010826111,0,
00:07.1,0.001642227,-0.004108429,0.010826111,0,
00:07.1,0.001636505,-0.004125595,0.010831833,0,
00:07.1,0.001630783,-0.004125595,0.010837555,0,
00:07.1,0.001636505,-0.004114151,0.010837555,0,
00:07.1,0.001642227,-0.004108429,0.010831833,0,
00:07.1,0.001642227,-0.004091263,0.010831833,0,
00:07.1,0.001636505,-0.004096985,0.010837555,0,
00:07.1,0.001636505,-0.004108429,0.010837555,0,
00:07.1,0.001642227,-0.004108429,0.010837555,0,
00:07.1,0.001630783,-0.004119873,0.010837555,0,
00:07.1,0.001625061,-0.004125595,0.010831833,0,
00:07.1,0.001642227,-0.004114151,0.010837555,0,
00:07.1,0.001642227,-0.004108429,0.010843277,0,
00:07.1,0.001630783,-0.004114151,0.010843277,0,
00:07.1,0.001625061,-0.004125595,0.010843277,0,
00:07.1,0.001636505,-0.004137039,0.010843277,0,
00:07.1,0.001630783,-0.004137039,0.010843277,0,
00:07.1,0.001636505,-0.004119873,0.010843277,0,
00:07.1,0.001642227,-0.004102707,0.010843277,0,
00:07.1,0.001636505,-0.004096985,0.010837555,0,
00:07.1,0.001642227,-0.004091263,0.010843277,0,
00:07.2,0.001647949,-0.004108429,0.010848999,0,
00:07.2,0.001630783,-0.004137039,0.010848999,0,
00:07.2,0.001625061,-0.004137039,0.010848999,0,
00:07.2,0.001636505,-0.004108429,0.010843277,0,
00:07.2,0.001642227,-0.004114151,0.010843277,0,
00:07.2,0.001636505,-0.004114151,0.010848999,0,
00:07.2,0.001642227,-0.004108429,0.010854721,0,
00:07.2,0.001642227,-0.004114151,0.010854721,0,
00:07.2,0.001642227,-0.004108429,0.010848999,0,
00:07.2,0.001647949,-0.004102707,0.010848999,0,
00:07.2,0.001642227,-0.004114151,0.010854721,0,
00:07.2,0.001630783,-0.004131317,0.010860443,0,
00:07.2,0.001630783,-0.004137039,0.010854721,0,
00:07.2,0.001630783,-0.004125595,0.010854721,0,
00:07.2,0.001636505,-0.004108429,0.010848999,0,
00:07.2,0.001642227,-0.004114151,0.010854721,0,
00:07.2,0.001630783,-0.004119873,0.010860443,0,
00:07.2,0.001642227,-0.004102707,0.010860443,0,
00:07.2,0.001647949,-0.004102707,0.010854721,0,
00:07.2,0.001642227,-0.004108429,0.010854721,0,
00:07.2,0.001642227,-0.004102707,0.010860443,0,
00:07.2,0.001630783,-0.004119873,0.010866165,0,
00:07.2,0.001625061,-0.004131317,0.010866165,0,
00:07.2,0.001630783,-0.004119873,0.010854721,0,
00:07.2,0.001647949,-0.004091263,0.010854721,0,
00:07.3,0.001653671,-0.004085541,0.010860443,0,
00:07.3,0.001647949,-0.004102707,0.010860443,0,
00:07.3,0.001636505,-0.004108429,0.010860443,0,
00:07.3,0.001625061,-0.004114151,0.010854721,0,
00:07.3,0.001636505,-0.004114151,0.010860443,0,
00:07.3,0.001636505,-0.004114151,0.010866165,0,
00:07.3,0.001630783,-0.004114151,0.010866165,0,
00:07.3,0.001636505,-0.004119873,0.010866165,0,
00:07.3,0.001642227,-0.004119873,0.010860443,0,
00:07.3,0.001636505,-0.004114151,0.010860443,0,
00:07.3,0.001642227,-0.004108429,0.010866165,0,
00:07.3,0.001630783,-0.004096985,0.010866165,0,
00:07.3,0.001636505,-0.004096985,0.010866165,0,
00:07.3,0.001642227,-0.004108429,0.010866165,0,
00:07.3,0.001642227,-0.004102707,0.010866165,0,
00:07.3,0.001630783,-0.004108429,0.010871887,0,
00:07.3,0.001619339,-0.004131317,0.010871887,0,
00:07.3,0.001636505,-0.004119873,0.010871887,0,
00:07.3,0.001630783,-0.004125595,0.010860443,0,
00:07.3,0.001625061,-0.004119873,0.010866165,0,
00:07.3,0.001636505,-0.004096985,0.010871887,0,
00:07.3,0.001636505,-0.004079819,0.010877609,0,
00:07.3,0.001647949,-0.004096985,0.010871887,0,
00:07.3,0.001647949,-0.004119873,0.010866165,0,
00:07.3,0.001636505,-0.004119873,0.010866165,0,
00:07.4,0.001630783,-0.004108429,0.010871887,0,
00:07.4,0.001630783,-0.004096985,0.010883331,0,
00:07.4,0.001630783,-0.004108429,0.010877609,0,
00:07.4,0.001619339,-0.004114151,0.010871887,0,
00:07.4,0.001625061,-0.004114151,0.010871887,0,
00:07.4,0.001636505,-0.004119873,0.010877609,0,
00:07.4,0.001625061,-0.004125595,0.010883331,0,
00:07.4,0.001625061,-0.004131317,0.010883331,0,
00:07.4,0.001630783,-0.004114151,0.010877609,0,
00:07.4,0.001630783,-0.004096985,0.010877609,0,
00:07.4,0.001625061,-0.004102707,0.010877609,0,
00:07.4,0.001625061,-0.004096985,0.010883331,0,
00:07.4,0.001636505,-0.004085541,0.010883331,0,
00:07.4,0.001642227,-0.004102707,0.010877609,0,
00:07.4,0.001619339,-0.004114151,0.010877609,0,
00:07.4,0.001625061,-0.004108429,0.010883331,0,
00:07.4,0.001636505,-0.004108429,0.010889053,0,
00:07.4,0.001630783,-0.004119873,0.010883331,0,
00:07.4,0.001619339,-0.004108429,0.010883331,0,
00:07.4,0.001625061,-0.004108429,0.010883331,0,
00:07.4,0.001636505,-0.004108429,0.010889053,0,
00:07.4,0.001636505,-0.004102707,0.010894775,0,
00:07.4,0.001636505,-0.004102707,0.010889053,0,
00:07.4,0.001630783,-0.004096985,0.010883331,0,
00:07.4,0.001619339,-0.004114151,0.010889053,0,
00:07.5,0.001630783,-0.004114151,0.010889053,0,
00:07.5,0.001630783,-0.004119873,0.010894775,0,
00:07.5,0.001613617,-0.004142761,0.010889053,0,
00:07.5,0.001607895,-0.004159927,0.010889053,0,
00:07.5,0.001619339,-0.004137039,0.010889053,0,
00:07.5,0.001630783,-0.004096985,0.010894775,0,
00:07.5,0.001642227,-0.004085541,0.010894775,0,
00:07.5,0.001642227,-0.004079819,0.010894775,0,
00:07.5,0.001630783,-0.004096985,0.010889053,0,
00:07.5,0.001630783,-0.004119873,0.010889053,0,
00:07.5,0.001619339,-0.004125595,0.010894775,0,
00:07.5,0.001625061,-0.004102707,0.010894775,0,
00:07.5,0.001630783,-0.004102707,0.010894775,0,
00:07.5,0.001636505,-0.004091263,0.010889053,0,
00:07.5,0.001636505,-0.004096985,0.010894775,0,
00:07.5,0.001619339,-0.004108429,0.010900497,0,
00:07.5,0.001619339,-0.004114151,0.010900497,0,
00:07.5,0.001619339,-0.004114151,0.010900497,0,
00:07.5,0.001625061,-0.004119873,0.010894775,0,
00:07.5,0.001625061,-0.004119873,0.010894775,0,
00:07.5,0.001630783,-0.004114151,0.010894775,0,
00:07.5,0.001630783,-0.004114151,0.010900497,0,
00:07.5,0.001630783,-0.004102707,0.010900497,0,
00:07.5,0.001630783,-0.004096985,0.010894775,0,
00:07.5,0.001619339,-0.004108429,0.010894775,0,
00:07.6,0.001619339,-0.004119873,0.010906219,0,
00:07.6,0.001607895,-0.004148483,0.010906219,0,
00:07.6,0.001607895,-0.004142761,0.010906219,0,
00:07.6,0.001625061,-0.004096985,0.010900497,0,
00:07.6,0.001636505,-0.004079819,0.010900497,0,
00:07.6,0.001630783,-0.004085541,0.010906219,0,
00:07.6,0.001630783,-0.004096985,0.010911942,0,
00:07.6,0.001619339,-0.004119873,0.010906219,0,
00:07.6,0.001613617,-0.004125595,0.010906219,0,
00:07.6,0.001619339,-0.004114151,0.010906219,0,
00:07.6,0.001625061,-0.004102707,0.010911942,0,
00:07.6,0.001625061,-0.004102707,0.010911942,0,
00:07.6,0.001613617,-0.004108429,0.010906219,0,
00:07.6,0.001607895,-0.004119873,0.010906219,0,
00:07.6,0.001619339,-0.004114151,0.010906219,0,
00:07.6,0.001625061,-0.004102707,0.010911942,0,
00:07.6,0.001630783,-0.004102707,0.010911942,0,
00:07.6,0.001625061,-0.004114151,0.010911942,0,
00:07.6,0.001625061,-0.004125595,0.010911942,0,
00:07.6,0.001619339,-0.004114151,0.010906219,0,
00:07.6,0.001613617,-0.004108429,0.010911942,0,
00:07.6,0.001619339,-0.004096985,0.010917664,0,
00:07.6,0.001619339,-0.004096985,0.010911942,0,
00:07.6,0.001619339,-0.004119873,0.010911942,0,
00:07.6,0.001613617,-0.004119873,0.010911942,0,
00:07.7,0.001613617,-0.004108429,0.010911942,0,
00:07.7,0.001625061,-0.004096985,0.010917664,0,
00:07.7,0.001613617,-0.004102707,0.010917664,0,
00:07.7,0.001607895,-0.004131317,0.010911942,0,
00:07.7,0.001607895,-0.004131317,0.010917664,0,
00:07.7,0.001613617,-0.004119873,0.010917664,0,
00:07.7,0.001630783,-0.004096985,0.010917664,0,
00:07.7,0.001630783,-0.004079819,0.010917664,0,
00:07.7,0.001625061,-0.004085541,0.010911942,0,
00:07.7,0.001630783,-0.004096985,0.010911942,0,
00:07.7,0.001625061,-0.004102707,0.010917664,0,
00:07.7,0.001619339,-0.004102707,0.010923386,0,
00:07.7,0.001613617,-0.004114151,0.010923386,0,
00:07.7,0.001607895,-0.004137039,0.010917664,0,
00:07.7,0.001602173,-0.004154205,0.010917664,0,
00:07.7,0.001607895,-0.004137039,0.010923386,0,
00:07.7,0.001619339,-0.004091263,0.010929108,0,
00:07.7,0.001630783,-0.004074097,0.010923386,0,
00:07.7,0.001625061,-0.004102707,0.010923386,0,
00:07.7,0.001619339,-0.004119873,0.010917664,0,
00:07.7,0.001613617,-0.004125595,0.010923386,0,
00:07.7,0.001613617,-0.004119873,0.010929108,0,
00:07.7,0.001625061,-0.004102707,0.010923386,0,
00:07.7,0.001625061,-0.004096985,0.010917664,0,
00:07.7,0.001619339,-0.004108429,0.010923386,0,
00:07.8,0.001619339,-0.004108429,0.010929108,0,
00:07.8,0.001613617,-0.004114151,0.010929108,0,
00:07.8,0.001619339,-0.004114151,0.010923386,0,
00:07.8,0.001630783,-0.004108429,0.010917664,0,
00:07.8,0.001625061,-0.004096985,0.010917664,0,
00:07.8,0.001613617,-0.004096985,0.010929108,0,
00:07.8,0.001613617,-0.004114151,0.01093483,0,
00:07.8,0.001625061,-0.004137039,0.010923386,0,
00:07.8,0.001607895,-0.004148483,0.010917664,0,
00:07.8,0.001602173,-0.004125595,0.010923386,0,
00:07.8,0.001625061,-0.004102707,0.010929108,0,
00:07.8,0.001630783,-0.004085541,0.01093483,0,
00:07.8,0.001636505,-0.004085541,0.010929108,0,
00:07.8,0.001625061,-0.004102707,0.010929108,0,
00:07.8,0.001625061,-0.004108429,0.010929108,0,
00:07.8,0.001625061,-0.004108429,0.01093483,0,
00:07.8,0.001625061,-0.004108429,0.01093483,0,
00:07.8,0.001619339,-0.004108429,0.01093483,0,
00:07.8,0.001619339,-0.004114151,0.010929108,0,
00:07.8,0.001613617,-0.004114151,0.010929108,0,
00:07.8,0.001607895,-0.004125595,0.01093483,0,
00:07.8,0.001607895,-0.004125595,0.010940552,0,
00:07.8,0.001619339,-0.004102707,0.01093483,0,
00:07.8,0.001636505,-0.004096985,0.01093483,0,
00:07.8,0.001630783,-0.004096985,0.010929108,0,
00:07.9,0.001619339,-0.004102707,0.01093483,0,
00:07.9,0.001619339,-0.004096985,0.010940552,0,
00:07.9,0.001613617,-0.004108429,0.010940552,0,
00:07.9,0.001607895,-0.004137039,0.01093483,0,
00:07.9,0.001607895,-0.004137039,0.010929108,0,
00:07.9,0.001619339,-0.004102707,0.010940552,0,
00:07.9,0.001619339,-0.004108429,0.010940552,0,
00:07.9,0.001613617,-0.004114151,0.010940552,0,
00:07.9,0.001607895,-0.004102707,0.01093483,0,
00:07.9,0.001625061,-0.004079819,0.01093483,0,
00:07.9,0.001630783,-0.004091263,0.01093483,0,
00:07.9,0.001619339,-0.004102707,0.010940552,0,
00:07.9,0.001619339,-0.004108429,0.010940552,0,
00:07.9,0.001607895,-0.004131317,0.010940552,0,
00:07.9,0.001596451,-0.004131317,0.010940552,0,
00:07.9,0.001613617,-0.004114151,0.010946274,0,
00:07.9,0.001619339,-0.004102707,0.010946274,0,
00:07.9,0.001625061,-0.004108429,0.010940552,0,
00:07.9,0.001613617,-0.004102707,0.01093483,0,
00:07.9,0.001619339,-0.004096985,0.01093483,0,
00:07.9,0.001625061,-0.004096985,0.010940552,0,
00:07.9,0.001619339,-0.004114151,0.010946274,0,
00:07.9,0.001602173,-0.004114151,0.010940552,0,
00:07.9,0.001613617,-0.004085541,0.010940552,0,
00:07.9,0.001625061,-0.004091263,0.010940552,0,
00:08.0,0.001619339,-0.004125595,0.010946274,0,
00:08.0,0.001602173,-0.004142761,0.010946274,0,
00:08.0,0.001607895,-0.004114151,0.010946274,0,
00:08.0,0.001619339,-0.004079819,0.010940552,0,
00:08.0,0.001619339,-0.004074097,0.010940552,0,
00:08.0,0.001613617,-0.004091263,0.010946274,0,
00:08.0,0.001607895,-0.004102707,0.010951996,0,
00:08.0,0.001613617,-0.004108429,0.010946274,0,
00:08.0,0.001619339,-0.004108429,0.010940552,0,
00:08.0,0.001613617,-0.004114151,0.010940552,0,
00:08.0,0.001619339,-0.004108429,0.010946274,0,
00:08.0,0.001630783,-0.004096985,0.010951996,0,
00:00:08,0.001625061,-0.004096985,0.010951996,0,
00:08.0,0.001625061,-0.004096985,0.010946274,0,
00:08.0,0.001625061,-0.004091263,0.010946274,0,
00:08.0,0.001619339,-0.004102707,0.010951996,0,
00:08.0,0.001625061,-0.004102707,0.010951996,0,
00:08.0,0.001625061,-0.004102707,0.010946274,0,
00:08.0,0.001619339,-0.004108429,0.010946274,0,
00:08.0,0.001625061,-0.004102707,0.010946274,0,
00:08.0,0.001630783,-0.004102707,0.010951996,0,
00:08.0,0.001625061,-0.004096985,0.010951996,0,
00:08.0,0.001619339,-0.004108429,0.010951996,0,
00:08.0,0.001619339,-0.004119873,0.010946274,0,
00:08.0,0.001613617,-0.004131317,0.010951996,0,
00:08.1,0.001613617,-0.004131317,0.010957718,0,
00:08.1,0.001613617,-0.004102707,0.010957718,0,
00:08.1,0.001630783,-0.004085541,0.010957718,0,
00:08.1,0.001642227,-0.004074097,0.010951996,0,
00:08.1,0.001636505,-0.004079819,0.010951996,0,
00:08.1,0.001625061,-0.004091263,0.010957718,0,
00:08.1,0.001613617,-0.004108429,0.01096344,0,
00:08.1,0.001602173,-0.004114151,0.010957718,0,
00:08.1,0.001619339,-0.004108429,0.010957718,0,
00:08.1,0.001613617,-0.004091263,0.010957718,0,
00:08.1,0.001619339,-0.004096985,0.01096344,0,
00:08.1,0.001636505,-0.004108429,0.01096344,0,
00:08.1,0.001636505,-0.004102707,0.010957718,0,
00:08.1,0.001625061,-0.004102707,0.010957718,0,
00:08.1,0.001613617,-0.004108429,0.010957718,0,
00:08.1,0.001630783,-0.004096985,0.01096344,0,
00:08.1,0.001630783,-0.004091263,0.01096344,0,
00:08.1,0.001630783,-0.004096985,0.010957718,0,
00:08.1,0.001625061,-0.004108429,0.010957718,0,
00:08.1,0.001619339,-0.004119873,0.010957718,0,
00:08.1,0.001613617,-0.004137039,0.01096344,0,
00:08.1,0.001619339,-0.004102707,0.01096344,0,
00:08.1,0.001630783,-0.004085541,0.01096344,0,
00:08.1,0.001625061,-0.004102707,0.010957718,0,
00:08.1,0.001619339,-0.004114151,0.01096344,0,
00:08.2,0.001625061,-0.004108429,0.01096344,0,
00:08.2,0.001625061,-0.004091263,0.010969162,0,
00:08.2,0.001619339,-0.004091263,0.01096344,0,
00:08.2,0.001625061,-0.004102707,0.01096344,0,
00:08.2,0.001613617,-0.004108429,0.010969162,0,
00:08.2,0.001619339,-0.004108429,0.010969162,0,
00:08.2,0.001619339,-0.004096985,0.010969162,0,
00:08.2,0.001625061,-0.004091263,0.01096344,0,
00:08.2,0.001630783,-0.004096985,0.01096344,0,
00:08.2,0.001630783,-0.004096985,0.01096344,0,
00:08.2,0.001613617,-0.004096985,0.010969162,0,
00:08.2,0.001619339,-0.004102707,0.010974884,0,
00:08.2,0.001619339,-0.004096985,0.010969162,0,
00:08.2,0.001619339,-0.004102707,0.01096344,0,
00:08.2,0.001625061,-0.004102707,0.01096344,0,
00:08.2,0.001625061,-0.004102707,0.010969162,0,
00:08.2,0.001625061,-0.004102707,0.010969162,0,
00:08.2,0.001619339,-0.004096985,0.01096344,0,
00:08.2,0.001619339,-0.004102707,0.01096344,0,
00:08.2,0.001619339,-0.004102707,0.01096344,0,
00:08.2,0.001607895,-0.004119873,0.010969162,0,
00:08.2,0.001613617,-0.004142761,0.010980606,0,
00:08.2,0.001625061,-0.004114151,0.010969162,0,
00:08.2,0.001630783,-0.004085541,0.01096344,0,
00:08.2,0.001625061,-0.004102707,0.010969162,0,
00:08.3,0.001619339,-0.004108429,0.010969162,0,
00:08.3,0.001619339,-0.004108429,0.010974884,0,
00:08.3,0.001613617,-0.004096985,0.010969162,0,
00:08.3,0.001613617,-0.004091263,0.010969162,0,
00:08.3,0.001625061,-0.004096985,0.010969162,0,
00:08.3,0.001613617,-0.004096985,0.010969162,0,
00:08.3,0.001607895,-0.004091263,0.010974884,0,
00:08.3,0.001630783,-0.004085541,0.010969162,0,
00:08.3,0.001625061,-0.004096985,0.010969162,0,
00:08.3,0.001619339,-0.004114151,0.010969162,0,
00:08.3,0.001607895,-0.004114151,0.010974884,0,
00:08.3,0.001607895,-0.004108429,0.010980606,0,
00:08.3,0.001613617,-0.004108429,0.010974884,0,
00:08.3,0.001607895,-0.004125595,0.010969162,0,
00:08.3,0.001619339,-0.004114151,0.010969162,0,
00:08.3,0.001630783,-0.004096985,0.010974884,0,
00:08.3,0.001619339,-0.004091263,0.010980606,0,
00:08.3,0.001607895,-0.004096985,0.010974884,0,
00:08.3,0.001619339,-0.004108429,0.010969162,0,
00:08.3,0.001625061,-0.004114151,0.010974884,0,
00:08.3,0.001625061,-0.004102707,0.010974884,0,
00:08.3,0.001619339,-0.004091263,0.010980606,0,
00:08.3,0.001625061,-0.004079819,0.010974884,0,
00:08.3,0.001619339,-0.004085541,0.010969162,0,
00:08.3,0.001602173,-0.004108429,0.010974884,0,
00:08.4,0.001607895,-0.004119873,0.010980606,0,
00:08.4,0.001630783,-0.004114151,0.010974884,0,
00:08.4,0.001625061,-0.004114151,0.010974884,0,
00:08.4,0.001619339,-0.004114151,0.010969162,0,
00:08.4,0.001625061,-0.004096985,0.010969162,0,
00:08.4,0.001630783,-0.004085541,0.010974884,0,
00:08.4,0.001613617,-0.004091263,0.010980606,0,
00:08.4,0.001619339,-0.004091263,0.010974884,0,
00:08.4,0.001619339,-0.004102707,0.010974884,0,
00:08.4,0.001607895,-0.004114151,0.010974884,0,
00:08.4,0.001607895,-0.004114151,0.010974884,0,
00:08.4,0.001602173,-0.004119873,0.010980606,0,
00:08.4,0.001613617,-0.004108429,0.010974884,0,
00:08.4,0.001625061,-0.004096985,0.010969162,0,
00:08.4,0.001630783,-0.004068375,0.010969162,0,
00:08.4,0.001625061,-0.004074097,0.010974884,0,
00:08.4,0.001602173,-0.004114151,0.010980606,0,
00:08.4,0.001602173,-0.004119873,0.010974884,0,
00:08.4,0.001619339,-0.004091263,0.010969162,0,
00:08.4,0.001619339,-0.004085541,0.010969162,0,
00:08.4,0.001607895,-0.004091263,0.010974884,0,
00:08.4,0.001613617,-0.004096985,0.010980606,0,
00:08.4,0.001619339,-0.004102707,0.010974884,0,
00:08.4,0.001619339,-0.004102707,0.010969162,0,
00:08.4,0.001613617,-0.004108429,0.010974884,0,
00:08.5,0.001613617,-0.004108429,0.010980606,0,
00:08.5,0.001613617,-0.004102707,0.010980606,0,
00:08.5,0.001613617,-0.004096985,0.010974884,0,
00:08.5,0.001619339,-0.004102707,0.010974884,0,
00:08.5,0.001613617,-0.004108429,0.010974884,0,
00:08.5,0.001602173,-0.004102707,0.010980606,0,
00:08.5,0.001602173,-0.004125595,0.010986328,0,
00:08.5,0.001607895,-0.004131317,0.010980606,0,
00:08.5,0.001619339,-0.004096985,0.010974884,0,
00:08.5,0.001625061,-0.004085541,0.010974884,0,
00:08.5,0.001625061,-0.004091263,0.010980606,0,
00:08.5,0.001619339,-0.004096985,0.010980606,0,
00:08.5,0.001607895,-0.004108429,0.010980606,0,
00:08.5,0.001607895,-0.004119873,0.010974884,0,
00:08.5,0.001619339,-0.004119873,0.010980606,0,
00:08.5,0.001630783,-0.004108429,0.010980606,0,
00:08.5,0.001625061,-0.004091263,0.010980606,0,
00:08.5,0.001619339,-0.004096985,0.010974884,0,
00:08.5,0.001613617,-0.004108429,0.010974884,0,
00:08.5,0.001619339,-0.004114151,0.010974884,0,
00:08.5,0.001619339,-0.004114151,0.010980606,0,
00:08.5,0.001613617,-0.004114151,0.010980606,0,
00:08.5,0.001619339,-0.004108429,0.010980606,0,
00:08.5,0.001613617,-0.004108429,0.010974884,0,
00:08.5,0.001613617,-0.004125595,0.010980606,0,
00:08.6,0.001613617,-0.004131317,0.010986328,0,
00:08.6,0.001602173,-0.004119873,0.010986328,0,
00:08.6,0.001619339,-0.004091263,0.010980606,0,
00:08.6,0.001636505,-0.004079819,0.010980606,0,
00:08.6,0.001636505,-0.004085541,0.010980606,0,
00:08.6,0.001625061,-0.004108429,0.010980606,0,
00:08.6,0.001613617,-0.004131317,0.010986328,0,
00:08.6,0.001602173,-0.004125595,0.010980606,0,
00:08.6,0.001613617,-0.004108429,0.010980606,0,
00:08.6,0.001625061,-0.004096985,0.010974884,0,
00:08.6,0.001625061,-0.004091263,0.010980606,0,
00:08.6,0.001625061,-0.004091263,0.010986328,0,
00:08.6,0.001619339,-0.004108429,0.010980606,0,
00:08.6,0.001607895,-0.004131317,0.010980606,0,
00:08.6,0.001602173,-0.004131317,0.010980606,0,
00:08.6,0.001619339,-0.004108429,0.010980606,0,
00:08.6,0.001625061,-0.004096985,0.010980606,0,
00:08.6,0.001625061,-0.004108429,0.010974884,0,
00:08.6,0.001619339,-0.004125595,0.010974884,0,
00:08.6,0.001619339,-0.004131317,0.010974884,0,
00:08.6,0.001619339,-0.004114151,0.010980606,0,
00:08.6,0.001619339,-0.004102707,0.010980606,0,
00:08.6,0.001602173,-0.004119873,0.010980606,0,
00:08.6,0.001607895,-0.004119873,0.010974884,0,
00:08.6,0.001630783,-0.004108429,0.010974884,0,
00:08.7,0.001625061,-0.004102707,0.010980606,0,
00:08.7,0.001619339,-0.004108429,0.010986328,0,
00:08.7,0.001619339,-0.004114151,0.010986328,0,
00:08.7,0.001619339,-0.004119873,0.010974884,0,
00:08.7,0.001625061,-0.004114151,0.010974884,0,
00:08.7,0.001630783,-0.004096985,0.010980606,0,
00:08.7,0.001619339,-0.004102707,0.010980606,0,
00:08.7,0.001607895,-0.004125595,0.010974884,0,
00:08.7,0.001619339,-0.004125595,0.010974884,0,
00:08.7,0.001625061,-0.004108429,0.010974884,0,
00:08.7,0.001630783,-0.004114151,0.010980606,0,
00:08.7,0.001625061,-0.004114151,0.010980606,0,
00:08.7,0.001625061,-0.004108429,0.010980606,0,
00:08.7,0.001619339,-0.004114151,0.010974884,0,
00:08.7,0.001619339,-0.004114151,0.010980606,0,
00:08.7,0.001613617,-0.004119873,0.010986328,0,
00:08.7,0.001613617,-0.004119873,0.010986328,0,
00:08.7,0.001613617,-0.004125595,0.010980606,0,
00:08.7,0.001619339,-0.004131317,0.010974884,0,
00:08.7,0.001630783,-0.004125595,0.010980606,0,
00:08.7,0.001630783,-0.004102707,0.010980606,0,
00:08.7,0.001625061,-0.004085541,0.010986328,0,
00:08.7,0.001613617,-0.004108429,0.010980606,0,
00:08.7,0.001619339,-0.004119873,0.010974884,0,
00:08.7,0.001630783,-0.004119873,0.010974884,0,
00:08.8,0.001625061,-0.004119873,0.010980606,0,
00:08.8,0.001619339,-0.004114151,0.010980606,0,
00:08.8,0.001607895,-0.004102707,0.010980606,0,
00:08.8,0.001625061,-0.004096985,0.010974884,0,
00:08.8,0.001642227,-0.004096985,0.010974884,0,
00:08.8,0.001636505,-0.004102707,0.010980606,0,
00:08.8,0.001630783,-0.004096985,0.010980606,0,
00:08.8,0.001619339,-0.004102707,0.010974884,0,
00:08.8,0.001619339,-0.004114151,0.010974884,0,
00:08.8,0.001619339,-0.004131317,0.010974884,0,
00:08.8,0.001619339,-0.004137039,0.010980606,0,
00:08.8,0.001613617,-0.004114151,0.010980606,0,
00:08.8,0.001636505,-0.004091263,0.010974884,0,
00:08.8,0.001636505,-0.004102707,0.010969162,0,
00:08.8,0.001625061,-0.004114151,0.010974884,0,
00:08.8,0.001607895,-0.004131317,0.010980606,0,
00:08.8,0.001613617,-0.004125595,0.010986328,0,
00:08.8,0.001625061,-0.004102707,0.010974884,0,
00:08.8,0.001636505,-0.004091263,0.010969162,0,
00:08.8,0.001625061,-0.004096985,0.010974884,0,
00:08.8,0.001613617,-0.004114151,0.010980606,0,
00:08.8,0.001613617,-0.004125595,0.010980606,0,
00:08.8,0.001619339,-0.004125595,0.010974884,0,
00:08.8,0.001613617,-0.004108429,0.010969162,0,
00:08.8,0.001630783,-0.004091263,0.010974884,0,
00:08.9,0.001636505,-0.004085541,0.010974884,0,
00:08.9,0.001630783,-0.004096985,0.010974884,0,
00:08.9,0.001625061,-0.004114151,0.010974884,0,
00:08.9,0.001613617,-0.004119873,0.010969162,0,
00:08.9,0.001607895,-0.004119873,0.010974884,0,
00:08.9,0.001613617,-0.004119873,0.010974884,0,
00:08.9,0.001630783,-0.004108429,0.010974884,0,
00:08.9,0.001636505,-0.004119873,0.010980606,0,
00:08.9,0.001625061,-0.004108429,0.010974884,0,
00:08.9,0.001636505,-0.004096985,0.010974884,0,
00:08.9,0.001625061,-0.004102707,0.010974884,0,
00:08.9,0.001607895,-0.004119873,0.010980606,0,
00:08.9,0.001619339,-0.004125595,0.010980606,0,
00:08.9,0.001619339,-0.004131317,0.010974884,0,
00:08.9,0.001619339,-0.004125595,0.010974884,0,
00:08.9,0.001619339,-0.004102707,0.010974884,0,
00:08.9,0.001630783,-0.004085541,0.010974884,0,
00:08.9,0.001625061,-0.004108429,0.010969162,0,
00:08.9,0.001625061,-0.004114151,0.010969162,0,
00:08.9,0.001619339,-0.004119873,0.010969162,0,
00:08.9,0.001613617,-0.004125595,0.010974884,0,
00:08.9,0.001613617,-0.004119873,0.010974884,0,
00:08.9,0.001619339,-0.004114151,0.010969162,0,
00:08.9,0.001619339,-0.004108429,0.010969162,0,
00:08.9,0.001630783,-0.004102707,0.010969162,0,
00:09.0,0.001625061,-0.004119873,0.010974884,0,
00:09.0,0.001619339,-0.004108429,0.010974884,0,
00:09.0,0.001619339,-0.004108429,0.010974884,0,
00:09.0,0.001625061,-0.004102707,0.010969162,0,
00:09.0,0.001630783,-0.004091263,0.010969162,0,
00:09.0,0.001619339,-0.004108429,0.010974884,0,
00:09.0,0.001613617,-0.004137039,0.010974884,0,
00:09.0,0.001607895,-0.004142761,0.010969162,0,
00:09.0,0.001613617,-0.004119873,0.01096344,0,
00:09.0,0.001625061,-0.004096985,0.01096344,0,
00:09.0,0.001625061,-0.004102707,0.010969162,0,
00:09.0,0.001625061,-0.004114151,0.010974884,0,
00:00:09,0.001625061,-0.004125595,0.010969162,0,
00:09.0,0.001613617,-0.004125595,0.010969162,0,
00:09.0,0.001619339,-0.004102707,0.010974884,0,
00:09.0,0.001625061,-0.004102707,0.010974884,0,
00:09.0,0.001625061,-0.004114151,0.010974884,0,
00:09.0,0.001630783,-0.004102707,0.010969162,0,
00:09.0,0.001625061,-0.004108429,0.010969162,0,
00:09.0,0.001619339,-0.004131317,0.010969162,0,
00:09.0,0.001607895,-0.004142761,0.010974884,0,
00:09.0,0.001613617,-0.004131317,0.010974884,0,
00:09.0,0.001619339,-0.004114151,0.010969162,0,
00:09.0,0.001619339,-0.004108429,0.01096344,0,
00:09.0,0.001625061,-0.004102707,0.010969162,0,
00:09.1,0.001630783,-0.004091263,0.010969162,0,
00:09.1,0.001619339,-0.004108429,0.010969162,0,
00:09.1,0.001607895,-0.004137039,0.01096344,0,
00:09.1,0.001607895,-0.004142761,0.01096344,0,
00:09.1,0.001613617,-0.004114151,0.01096344,0,
00:09.1,0.001636505,-0.004085541,0.010969162,0,
00:09.1,0.001630783,-0.004091263,0.010969162,0,
00:09.1,0.001619339,-0.004108429,0.010969162,0,
00:09.1,0.001613617,-0.004125595,0.01096344,0,
00:09.1,0.001607895,-0.004131317,0.01096344,0,
00:09.1,0.001619339,-0.004114151,0.010969162,0,
00:09.1,0.001625061,-0.004102707,0.010969162,0,
00:09.1,0.001625061,-0.004102707,0.01096344,0,
00:09.1,0.001625061,-0.004108429,0.01096344,0,
00:09.1,0.001619339,-0.004114151,0.01096344,0,
00:09.1,0.001619339,-0.004119873,0.010969162,0,
00:09.1,0.001619339,-0.004119873,0.010969162,0,
00:09.1,0.001619339,-0.004125595,0.01096344,0,
00:09.1,0.001619339,-0.004114151,0.010957718,0,
00:09.1,0.001613617,-0.004108429,0.01096344,0,
00:09.1,0.001607895,-0.004125595,0.010974884,0,
00:09.1,0.001607895,-0.004142761,0.010969162,0,
00:09.1,0.001613617,-0.004137039,0.010969162,0,
00:09.1,0.001625061,-0.004108429,0.01096344,0,
00:09.1,0.001636505,-0.004074097,0.01096344,0,
00:09.2,0.001625061,-0.004085541,0.010969162,0,
00:09.2,0.001619339,-0.004102707,0.010969162,0,
00:09.2,0.001613617,-0.004125595,0.01096344,0,
00:09.2,0.001619339,-0.004131317,0.01096344,0,
00:09.2,0.001625061,-0.004131317,0.01096344,0,
00:09.2,0.001619339,-0.004108429,0.010969162,0,
00:09.2,0.001630783,-0.004091263,0.010969162,0,
00:09.2,0.001625061,-0.004096985,0.01096344,0,
00:09.2,0.001625061,-0.004108429,0.01096344,0,
00:09.2,0.001625061,-0.004102707,0.01096344,0,
00:09.2,0.001625061,-0.004108429,0.010969162,0,
00:09.2,0.001619339,-0.004119873,0.010969162,0,
00:09.2,0.001619339,-0.004119873,0.01096344,0,
00:09.2,0.001613617,-0.004125595,0.01096344,0,
00:09.2,0.001619339,-0.004119873,0.01096344,0,
00:09.2,0.001625061,-0.004125595,0.010969162,0,
00:09.2,0.001619339,-0.004125595,0.010969162,0,
00:09.2,0.001613617,-0.004125595,0.010969162,0,
00:09.2,0.001607895,-0.004131317,0.010969162,0,
00:09.2,0.001619339,-0.004114151,0.010969162,0,
00:09.2,0.001625061,-0.004096985,0.010974884,0,
00:09.2,0.001619339,-0.004108429,0.010974884,0,
00:09.2,0.001607895,-0.004137039,0.010969162,0,
00:09.2,0.001602173,-0.004159927,0.010969162,0,
00:09.2,0.001607895,-0.004137039,0.010974884,0,
00:09.3,0.001619339,-0.004096985,0.010980606,0,
00:09.3,0.001636505,-0.004079819,0.010980606,0,
00:09.3,0.001630783,-0.004096985,0.010974884,0,
00:09.3,0.001630783,-0.004108429,0.010974884,0,
00:09.3,0.001619339,-0.004119873,0.010974884,0,
00:09.3,0.001602173,-0.004137039,0.010980606,0,
00:09.3,0.001602173,-0.004137039,0.010980606,0,
00:09.3,0.001613617,-0.004114151,0.010980606,0,
00:09.3,0.001613617,-0.004102707,0.010974884,0,
00:09.3,0.001619339,-0.004108429,0.010980606,0,
00:09.3,0.001613617,-0.004119873,0.010986328,0,
00:09.3,0.001602173,-0.004125595,0.01099205,0,
00:09.3,0.001596451,-0.004137039,0.010986328,0,
00:09.3,0.001607895,-0.004131317,0.010980606,0,
00:09.3,0.001607895,-0.004119873,0.010986328,0,
00:09.3,0.001602173,-0.004108429,0.010997772,0,
00:09.3,0.001607895,-0.004119873,0.010997772,0,
00:09.3,0.001607895,-0.004125595,0.01099205,0,
00:09.3,0.001602173,-0.004131317,0.01099205,0,
00:09.3,0.001596451,-0.004131317,0.010997772,0,
00:09.3,0.001602173,-0.004108429,0.010997772,0,
00:09.3,0.001602173,-0.004108429,0.011009216,0,
00:09.3,0.001607895,-0.004114151,0.011003494,0,
00:09.3,0.001607895,-0.004108429,0.011003494,0,
00:09.3,0.001607895,-0.004108429,0.011003494,0,
00:09.4,0.001602173,-0.004114151,0.011009216,0,
00:09.4,0.001590729,-0.004119873,0.011009216,0,
00:09.4,0.001596451,-0.004125595,0.011014938,0,
00:09.4,0.001596451,-0.004131317,0.011014938,0,
00:09.4,0.001596451,-0.004125595,0.011014938,0,
00:09.4,0.001590729,-0.004119873,0.01102066,0,
00:09.4,0.001579285,-0.004119873,0.01102066,0,
00:09.4,0.001585007,-0.004119873,0.01102066,0,
00:09.4,0.001585007,-0.004137039,0.01102066,0,
00:09.4,0.001579285,-0.004142761,0.011032104,0,
00:09.4,0.001585007,-0.004131317,0.011032104,0,
00:09.4,0.001602173,-0.004114151,0.011032104,0,
00:09.4,0.001596451,-0.004114151,0.011032104,0,
00:09.4,0.001579285,-0.004137039,0.011032104,0,
00:09.4,0.001573563,-0.004142761,0.011037827,0,
00:09.4,0.001579285,-0.004125595,0.011049271,0,
00:09.4,0.001607895,-0.004114151,0.011049271,0,
00:09.4,0.001590729,-0.004125595,0.011049271,0,
00:09.4,0.001585007,-0.004131317,0.011049271,0,
00:09.4,0.001585007,-0.004142761,0.011054993,0,
00:09.4,0.001579285,-0.004154205,0.011060715,0,
00:09.4,0.001579285,-0.004131317,0.011066437,0,
00:09.4,0.001596451,-0.004102707,0.011066437,0,
00:09.4,0.001590729,-0.004108429,0.011066437,0,
00:09.4,0.001590729,-0.004125595,0.011072159,0,
00:09.5,0.001585007,-0.004131317,0.011083603,0,
00:09.5,0.001579285,-0.004142761,0.011089325,0,
00:09.5,0.001567841,-0.004154205,0.011083603,0,
00:09.5,0.001567841,-0.004142761,0.011089325,0,
00:09.5,0.001585007,-0.004125595,0.011095047,0,
00:09.5,0.001590729,-0.004114151,0.011106491,0,
00:09.5,0.001579285,-0.004119873,0.011106491,0,
00:09.5,0.001585007,-0.004119873,0.011106491,0,
00:09.5,0.001579285,-0.004148483,0.011112213,0,
00:09.5,0.001550674,-0.004165649,0.011117935,0,
00:09.5,0.001550674,-0.004148483,0.011123657,0,
00:09.5,0.001579285,-0.004137039,0.011129379,0,
00:09.5,0.001585007,-0.004137039,0.011129379,0,
00:09.5,0.001585007,-0.004125595,0.011129379,0,
00:09.5,0.001579285,-0.004125595,0.011140823,0,
00:09.5,0.001579285,-0.004114151,0.011146545,0,
00:09.5,0.001579285,-0.004125595,0.01115799,0,
00:09.5,0.001573563,-0.004154205,0.011152267,0,
00:09.5,0.001567841,-0.004159927,0.01115799,0,
00:09.5,0.001562119,-0.004159927,0.011169434,0,
00:09.5,0.001573563,-0.004142761,0.011175156,0,
00:09.5,0.001567841,-0.004142761,0.011180878,0,
00:09.5,0.001562119,-0.004148483,0.011180878,0,
00:09.5,0.001562119,-0.004142761,0.0111866,0,
00:09.5,0.001567841,-0.004142761,0.011198044,0,
00:09.6,0.001567841,-0.004137039,0.011203766,0,
00:09.6,0.001567841,-0.004131317,0.01121521,0,
00:09.6,0.001562119,-0.004148483,0.01121521,0,
00:09.6,0.001550674,-0.004177094,0.01121521,0,
00:09.6,0.001544952,-0.004182816,0.011226654,0,
00:09.6,0.00153923,-0.004159927,0.011238098,0,
00:09.6,0.001550674,-0.004142761,0.01124382,0,
00:09.6,0.001562119,-0.004131317,0.01124382,0,
00:09.6,0.001567841,-0.004125595,0.01124382,0,
00:09.6,0.001562119,-0.004131317,0.011255264,0,
00:09.6,0.001556396,-0.004142761,0.011266708,0,
00:09.6,0.001556396,-0.004159927,0.01127243,0,
00:09.6,0.001550674,-0.004171371,0.011278152,0,
00:09.6,0.001550674,-0.004171371,0.011278152,0,
00:09.6,0.001556396,-0.004154205,0.011289597,0,
00:09.6,0.001544952,-0.004154205,0.011301041,0,
00:09.6,0.001533508,-0.004165649,0.011312485,0,
00:09.6,0.001533508,-0.004165649,0.011312485,0,
00:09.6,0.001550674,-0.004154205,0.011312485,0,
00:09.6,0.001550674,-0.004159927,0.011323929,0,
00:09.6,0.00153923,-0.004182816,0.011335373,0,
00:09.6,0.001527786,-0.004199982,0.011346817,0,
00:09.6,0.001527786,-0.004188538,0.011346817,0,
00:09.6,0.001527786,-0.004171371,0.011352539,0,
00:09.6,0.001527786,-0.004165649,0.011363983,0,
00:09.7,0.001544952,-0.004159927,0.011375427,0,
00:09.7,0.00153923,-0.004154205,0.011381149,0,
00:09.7,0.001522064,-0.004165649,0.011386871,0,
00:09.7,0.001527786,-0.004182816,0.011392593,0,
00:09.7,0.001533508,-0.004182816,0.011404037,0,
00:09.7,0.001533508,-0.004165649,0.011421204,0,
00:09.7,0.001527786,-0.004171371,0.011426926,0,
00:09.7,0.001527786,-0.004177094,0.011426926,0,
00:09.7,0.001533508,-0.004165649,0.011432648,0,
00:09.7,0.001533508,-0.004159927,0.011444092,0,
00:09.7,0.001527786,-0.004182816,0.011455536,0,
00:09.7,0.001522064,-0.00419426,0.011461258,0,
00:09.7,0.001522064,-0.004199982,0.01146698,0,
00:09.7,0.001516342,-0.004199982,0.011478424,0,
00:09.7,0.001516342,-0.00419426,0.011489868,0,
00:09.7,0.001516342,-0.004182816,0.011501312,0,
00:09.7,0.001522064,-0.004182816,0.011507034,0,
00:09.7,0.001516342,-0.00419426,0.011512756,0,
00:09.7,0.001516342,-0.004199982,0.011512756,0,
00:09.7,0.001504898,-0.004205704,0.011529922,0,
00:09.7,0.001504898,-0.004199982,0.011541367,0,
00:09.7,0.00151062,-0.00419426,0.011547089,0,
00:09.7,0.001504898,-0.004199982,0.011552811,0,
00:09.7,0.00151062,-0.004217148,0.011558533,0,
00:09.7,0.001499176,-0.004217148,0.011564255,0,
00:09.8,0.001493454,-0.004205704,0.011581421,0,
00:09.8,0.001499176,-0.004199982,0.011592865,0,
00:09.8,0.001493454,-0.004199982,0.011592865,0,
00:09.8,0.001487732,-0.004211426,0.011604309,0,
00:09.8,0.001493454,-0.004217148,0.011615753,0,
00:09.8,0.00151062,-0.00422287,0.011621475,0,
00:09.8,0.001504898,-0.00419426,0.011627197,0,
00:09.8,0.001504898,-0.004182816,0.011632919,0,
00:09.8,0.001487732,-0.004205704,0.011638641,0,
00:09.8,0.001487732,-0.004228592,0.011655807,0,
00:09.8,0.00148201,-0.004234314,0.011667252,0,
00:09.8,0.00148201,-0.004240036,0.011678696,0,
00:09.8,0.001487732,-0.004228592,0.011678696,0,
00:09.8,0.001499176,-0.004205704,0.011684418,0,
00:09.8,0.001493454,-0.004199982,0.011695862,0,
00:09.8,0.001476288,-0.00422287,0.011707306,0,
00:09.8,0.001470566,-0.004240036,0.01171875,0,
00:09.8,0.001476288,-0.004245758,0.01171875,0,
00:09.8,0.00148201,-0.004234314,0.011724472,0,
00:09.8,0.00148201,-0.004228592,0.011735916,0,
00:09.8,0.00148201,-0.004228592,0.01174736,0,
00:09.8,0.001476288,-0.00422287,0.011758804,0,
00:09.8,0.001487732,-0.004205704,0.011764526,0,
00:09.8,0.001487732,-0.004211426,0.011764526,0,
00:09.8,0.001476288,-0.004234314,0.01177597,0,
00:09.9,0.001459122,-0.004245758,0.011793137,0,
00:09.9,0.001476288,-0.004234314,0.011804581,0,
00:09.9,0.001487732,-0.004228592,0.011804581,0,
00:09.9,0.00148201,-0.004228592,0.011810303,0,
00:09.9,0.001476288,-0.004240036,0.011821747,0,
00:09.9,0.001470566,-0.00425148,0.011833191,0,
00:09.9,0.001459122,-0.004245758,0.011838913,0,
00:09.9,0.001464844,-0.004240036,0.011838913,0,
00:09.9,0.001470566,-0.004240036,0.011844635,0,
00:09.9,0.001470566,-0.004234314,0.011856079,0,
00:09.9,0.001470566,-0.004234314,0.011861801,0,
00:09.9,0.001464844,-0.004240036,0.011873245,0,
00:09.9,0.001459122,-0.004245758,0.011878967,0,
00:09.9,0.001459122,-0.004268646,0.011884689,0,
00:09.9,0.0014534,-0.004285812,0.011896133,0,
00:09.9,0.001459122,-0.004268646,0.011907578,0,
00:09.9,0.001459122,-0.004240036,0.0119133,0,
00:09.9,0.001470566,-0.004234314,0.0119133,0,
00:09.9,0.001464844,-0.00425148,0.011919022,0,
00:09.9,0.001459122,-0.004262924,0.011930466,0,
00:09.9,0.0014534,-0.004268646,0.01194191,0,
00:09.9,0.0014534,-0.004262924,0.011947632,0,
00:09.9,0.0014534,-0.004257202,0.011947632,0,
00:09.9,0.001441956,-0.004262924,0.011953354,0,
00:09.9,0.001447678,-0.004262924,0.011964798,0,
00:10.0,0.001459122,-0.004257202,0.011976242,0,
00:10.0,0.0014534,-0.004268646,0.011976242,0,
00:10.0,0.0014534,-0.004285812,0.011976242,0,
00:10.0,0.0014534,-0.00428009,0.011981964,0,
00:10.0,0.0014534,-0.004268646,0.01199913,0,
00:10.0,0.0014534,-0.004262924,0.012004852,0,
00:10.0,0.001447678,-0.004262924,0.012010574,0,
00:10.0,0.001441956,-0.004268646,0.012016296,0,
00:10.0,0.001447678,-0.00428009,0.012022018,0,
00:10.0,0.001436234,-0.004285812,0.01202774,0,
00:10.0,0.001441956,-0.004274368,0.012039185,0,
00:10.0,0.001436234,-0.004285812,0.012044907,0,
00:00:10,0.001441956,-0.004291534,0.012044907,0,
00:10.0,0.001436234,-0.004291534,0.012050629,0,
00:10.0,0.001436234,-0.004274368,0.012062073,0,
00:10.0,0.001447678,-0.004262924,0.012067795,0,
00:10.0,0.001447678,-0.004274368,0.012073517,0,
