Elapsed_Time,EMG1,EMG2,EMG3,BioRadio Event,Unnamed: 5
00:00:00,0.002077103,-0.004617691,0.014677048,0,
00:00.0,0.002099991,-0.004594803,0.014665604,0,
00:00.0,0.002117157,-0.004571915,0.014642715,0,
00:00.0,0.002088547,-0.004606247,0.014642715,0,
00:00.0,0.002082825,-0.004617691,0.014659882,0,
00:00.0,0.002088547,-0.004617691,0.014671326,0,
00:00.0,0.002094269,-0.004600525,0.014659882,0,
00:00.0,0.002094269,-0.004600525,0.01465416,0,
00:00.0,0.002094269,-0.004611969,0.014659882,0,
00:00.0,0.002088547,-0.004611969,0.014665604,0,
00:00.0,0.002082825,-0.004617691,0.014665604,0,
00:00.0,0.002088547,-0.004606247,0.014659882,0,
00:00.0,0.002094269,-0.004600525,0.014659882,0,
00:00.1,0.002094269,-0.004600525,0.014648438,0,
00:00.1,0.002088547,-0.004600525,0.014659882,0,
00:00.1,0.002082825,-0.004606247,0.014671326,0,
00:00.1,0.002082825,-0.004606247,0.014659882,0,
00:00.1,0.002082825,-0.004606247,0.01465416,0,
00:00.1,0.002077103,-0.004606247,0.01465416,0,
00:00.1,0.002094269,-0.004594803,0.01465416,0,
00:00.1,0.002077103,-0.004611969,0.014642715,0,
00:00.1,0.002077103,-0.004606247,0.01465416,0,
00:00.1,0.002082825,-0.004600525,0.014648438,0,
00:00.1,0.002094269,-0.004583359,0.014648438,0,
00:00.1,0.002099991,-0.004577637,0.014636993,0,
00:00.1,0.002094269,-0.004594803,0.014648438,0,
00:00.1,0.002082825,-0.004606247,0.014648438,0,
00:00.1,0.002094269,-0.004594803,0.014642715,0,
00:00.1,0.002088547,-0.004600525,0.01465416,0,
00:00.1,0.002082825,-0.004594803,0.014665604,0,
00:00.1,0.002082825,-0.004606247,0.014659882,0,
00:00.1,0.002071381,-0.004606247,0.014642715,0,
00:00.1,0.002077103,-0.004600525,0.014636993,0,
00:00.1,0.002077103,-0.004600525,0.014648438,0,
00:00.1,0.002077103,-0.004606247,0.014642715,0,
00:00.1,0.002077103,-0.004611969,0.01465416,0,
00:00.1,0.002059937,-0.004611969,0.014642715,0,
00:00.1,0.002071381,-0.004583359,0.014642715,0,
00:00.2,0.002094269,-0.004566193,0.014648438,0,
00:00.2,0.002094269,-0.004583359,0.014648438,0,
00:00.2,0.002088547,-0.004606247,0.01465416,0,
00:00.2,0.002082825,-0.004600525,0.014648438,0,
00:00.2,0.002077103,-0.004600525,0.014636993,0,
00:00.2,0.002071381,-0.004611969,0.014631271,0,
00:00.2,0.002082825,-0.004594803,0.014642715,0,
00:00.2,0.002077103,-0.004589081,0.014659882,0,
00:00.2,0.002082825,-0.004589081,0.014648438,0,
00:00.2,0.002094269,-0.004577637,0.014642715,0,
00:00.2,0.002094269,-0.004566193,0.01465416,0,
00:00.2,0.002077103,-0.004583359,0.014648438,0,
00:00.2,0.002077103,-0.004583359,0.014648438,0,
00:00.2,0.002088547,-0.004566193,0.014648438,0,
00:00.2,0.002082825,-0.004594803,0.014642715,0,
00:00.2,0.002077103,-0.004594803,0.014648438,0,
00:00.2,0.002065659,-0.004594803,0.014631271,0,
00:00.2,0.002077103,-0.004577637,0.014642715,0,
00:00.2,0.002082825,-0.004566193,0.01465416,0,
00:00.2,0.002077103,-0.004577637,0.014648438,0,
00:00.2,0.002065659,-0.004600525,0.01465416,0,
00:00.2,0.002077103,-0.004583359,0.014631271,0,
00:00.2,0.002077103,-0.004577637,0.014636993,0,
00:00.2,0.002071381,-0.004589081,0.014659882,0,
00:00.2,0.002077103,-0.004589081,0.014648438,0,
00:00.3,0.002077103,-0.004583359,0.014631271,0,
00:00.3,0.002071381,-0.004571915,0.014642715,0,
00:00.3,0.002082825,-0.004571915,0.014648438,0,
00:00.3,0.002082825,-0.004577637,0.014631271,0,
00:00.3,0.002071381,-0.004589081,0.014636993,0,
00:00.3,0.002065659,-0.004600525,0.01465416,0,
00:00.3,0.002077103,-0.004583359,0.01465416,0,
00:00.3,0.002071381,-0.004577637,0.014648438,0,
00:00.3,0.002065659,-0.004577637,0.014648438,0,
00:00.3,0.002071381,-0.004583359,0.01465416,0,
00:00.3,0.002071381,-0.004583359,0.01465416,0,
00:00.3,0.002065659,-0.004589081,0.014631271,0,
00:00.3,0.002071381,-0.004577637,0.014642715,0,
00:00.3,0.002071381,-0.004571915,0.014659882,0,
00:00.3,0.002071381,-0.004577637,0.014648438,0,
00:00.3,0.002071381,-0.004577637,0.014642715,0,
00:00.3,0.002071381,-0.004566193,0.014642715,0,
00:00.3,0.002077103,-0.004566193,0.014648438,0,
00:00.3,0.002077103,-0.004571915,0.014648438,0,
00:00.3,0.002077103,-0.004571915,0.014648438,0,
00:00.3,0.002059937,-0.004589081,0.01465416,0,
00:00.3,0.002059937,-0.004594803,0.014648438,0,
00:00.3,0.002065659,-0.004583359,0.014648438,0,
00:00.3,0.002065659,-0.004571915,0.014642715,0,
00:00.3,0.002071381,-0.004571915,0.014642715,0,
00:00.4,0.002071381,-0.004583359,0.014636993,0,
00:00.4,0.002071381,-0.004594803,0.014631271,0,
00:00.4,0.002071381,-0.004583359,0.014648438,0,
00:00.4,0.002077103,-0.004566193,0.014648438,0,
00:00.4,0.002082825,-0.004560471,0.014625549,0,
00:00.4,0.002071381,-0.004583359,0.014642715,0,
00:00.4,0.002065659,-0.004583359,0.014648438,0,
00:00.4,0.002071381,-0.004571915,0.014648438,0,
00:00.4,0.002071381,-0.004566193,0.014648438,0,
00:00.4,0.002065659,-0.004560471,0.014636993,0,
00:00.4,0.002082825,-0.004566193,0.014625549,0,
00:00.4,0.002071381,-0.004589081,0.014642715,0,
00:00.4,0.002065659,-0.004594803,0.014648438,0,
00:00.4,0.002065659,-0.004583359,0.014642715,0,
00:00.4,0.002071381,-0.004571915,0.014659882,0,
00:00.4,0.002071381,-0.004571915,0.014636993,0,
00:00.4,0.002071381,-0.004571915,0.014636993,0,
00:00.4,0.002071381,-0.004566193,0.014631271,0,
00:00.4,0.002082825,-0.004566193,0.014631271,0,
00:00.4,0.002071381,-0.004571915,0.014619827,0,
00:00.4,0.002059937,-0.004583359,0.014636993,0,
00:00.4,0.002065659,-0.004577637,0.014636993,0,
00:00.4,0.002077103,-0.004571915,0.014631271,0,
00:00.4,0.002071381,-0.004566193,0.014636993,0,
00:00.4,0.002065659,-0.004571915,0.014648438,0,
00:00.5,0.002059937,-0.004571915,0.014648438,0,
00:00.5,0.002071381,-0.004583359,0.014636993,0,
00:00.5,0.002071381,-0.004583359,0.014636993,0,
00:00.5,0.002065659,-0.004577637,0.014631271,0,
00:00.5,0.002065659,-0.004566193,0.014631271,0,
00:00.5,0.002065659,-0.004566193,0.014636993,0,
00:00.5,0.002059937,-0.004566193,0.014642715,0,
00:00.5,0.002071381,-0.004554749,0.014642715,0,
00:00.5,0.002065659,-0.004577637,0.014642715,0,
00:00.5,0.002059937,-0.004589081,0.014631271,0,
00:00.5,0.002071381,-0.004566193,0.014636993,0,
00:00.5,0.002071381,-0.004560471,0.014636993,0,
00:00.5,0.002054214,-0.004566193,0.014648438,0,
00:00.5,0.002059937,-0.004560471,0.014642715,0,
00:00.5,0.002065659,-0.004560471,0.014631271,0,
00:00.5,0.002059937,-0.004571915,0.014636993,0,
00:00.5,0.002054214,-0.004571915,0.014642715,0,
00:00.5,0.002048492,-0.004577637,0.014642715,0,
00:00.5,0.002065659,-0.004566193,0.014636993,0,
00:00.5,0.002059937,-0.004566193,0.014636993,0,
00:00.5,0.002059937,-0.004566193,0.014625549,0,
00:00.5,0.002059937,-0.004577637,0.014642715,0,
00:00.5,0.002071381,-0.004566193,0.014642715,0,
00:00.5,0.002054214,-0.004571915,0.014625549,0,
00:00.5,0.002059937,-0.004571915,0.014631271,0,
00:00.6,0.002059937,-0.004577637,0.014636993,0,
00:00.6,0.002059937,-0.004577637,0.014636993,0,
00:00.6,0.002059937,-0.004589081,0.014631271,0,
00:00.6,0.002054214,-0.004560471,0.014625549,0,
00:00.6,0.002059937,-0.004537582,0.014625549,0,
00:00.6,0.002059937,-0.004543304,0.014619827,0,
00:00.6,0.002071381,-0.004560471,0.014642715,0,
00:00.6,0.002059937,-0.004577637,0.014636993,0,
00:00.6,0.002059937,-0.004560471,0.014642715,0,
00:00.6,0.002059937,-0.004566193,0.014619827,0,
00:00.6,0.002059937,-0.004571915,0.014631271,0,
00:00.6,0.002059937,-0.004566193,0.014636993,0,
00:00.6,0.002054214,-0.004571915,0.014636993,0,
00:00.6,0.002059937,-0.004566193,0.014619827,0,
00:00.6,0.002048492,-0.004571915,0.014614105,0,
00:00.6,0.002054214,-0.004571915,0.014636993,0,
00:00.6,0.002054214,-0.004571915,0.014642715,0,
00:00.6,0.002054214,-0.004560471,0.014631271,0,
00:00.6,0.002054214,-0.004571915,0.014631271,0,
00:00.6,0.00204277,-0.004566193,0.014631271,0,
00:00.6,0.002054214,-0.004566193,0.014631271,0,
00:00.6,0.002059937,-0.004566193,0.014608383,0,
00:00.6,0.002048492,-0.004566193,0.014619827,0,
00:00.6,0.002054214,-0.004549026,0.014625549,0,
00:00.6,0.002048492,-0.004577637,0.014631271,0,
00:00.7,0.002037048,-0.004583359,0.014631271,0,
00:00.7,0.002054214,-0.004554749,0.014625549,0,
00:00.7,0.002065659,-0.004554749,0.014625549,0,
00:00.7,0.002071381,-0.004554749,0.014614105,0,
00:00.7,0.002048492,-0.004554749,0.014619827,0,
00:00.7,0.002048492,-0.004560471,0.014631271,0,
00:00.7,0.002048492,-0.004571915,0.014636993,0,
00:00.7,0.002048492,-0.004571915,0.014631271,0,
00:00.7,0.00204277,-0.004566193,0.014631271,0,
00:00.7,0.002048492,-0.004566193,0.014619827,0,
00:00.7,0.002048492,-0.004566193,0.014619827,0,
00:00.7,0.002048492,-0.004554749,0.014631271,0,
00:00.7,0.002048492,-0.004554749,0.014625549,0,
00:00.7,0.002037048,-0.004560471,0.014625549,0,
00:00.7,0.00204277,-0.004560471,0.014636993,0,
00:00.7,0.002048492,-0.004560471,0.014625549,0,
00:00.7,0.00204277,-0.004566193,0.014614105,0,
00:00.7,0.002037048,-0.004571915,0.014631271,0,
00:00.7,0.002037048,-0.004560471,0.014642715,0,
00:00.7,0.00204277,-0.004549026,0.014625549,0,
00:00.7,0.002059937,-0.004549026,0.014625549,0,
00:00.7,0.002065659,-0.004554749,0.014619827,0,
00:00.7,0.002054214,-0.004537582,0.014619827,0,
00:00.7,0.002031326,-0.004566193,0.014642715,0,
00:00.7,0.002037048,-0.004571915,0.014631271,0,
00:00.8,0.00204277,-0.004560471,0.014625549,0,
00:00.8,0.002048492,-0.004554749,0.014619827,0,
00:00.8,0.002037048,-0.004560471,0.014631271,0,
00:00.8,0.002037048,-0.004554749,0.014631271,0,
00:00.8,0.002037048,-0.004560471,0.014625549,0,
00:00.8,0.00204277,-0.004554749,0.014619827,0,
00:00.8,0.00204277,-0.004549026,0.014631271,0,
00:00.8,0.00204277,-0.004560471,0.014625549,0,
00:00.8,0.002054214,-0.004543304,0.014619827,0,
00:00.8,0.00204277,-0.004549026,0.014625549,0,
00:00.8,0.002031326,-0.004566193,0.014625549,0,
00:00.8,0.002037048,-0.004571915,0.014625549,0,
00:00.8,0.002031326,-0.004566193,0.014631271,0,
00:00.8,0.002031326,-0.004571915,0.014625549,0,
00:00.8,0.002037048,-0.004571915,0.014608383,0,
00:00.8,0.002031326,-0.004560471,0.014636993,0,
00:00.8,0.002037048,-0.004554749,0.014631271,0,
00:00.8,0.002037048,-0.004554749,0.014631271,0,
00:00.8,0.00204277,-0.004549026,0.014625549,0,
00:00.8,0.002025604,-0.004566193,0.014631271,0,
00:00.8,0.002025604,-0.004577637,0.014619827,0,
00:00.8,0.00204277,-0.004549026,0.014636993,0,
00:00.8,0.00204277,-0.004543304,0.014619827,0,
00:00.8,0.002031326,-0.004554749,0.014619827,0,
00:00.8,0.002025604,-0.004566193,0.014625549,0,
00:00.9,0.002025604,-0.004566193,0.014619827,0,
00:00.9,0.002025604,-0.004560471,0.014625549,0,
00:00.9,0.002048492,-0.004560471,0.014619827,0,
00:00.9,0.002037048,-0.004571915,0.014608383,0,
00:00.9,0.002031326,-0.004554749,0.014631271,0,
00:00.9,0.002025604,-0.004566193,0.014614105,0,
00:00.9,0.002048492,-0.004543304,0.014625549,0,
00:00.9,0.002037048,-0.004543304,0.014636993,0,
00:00.9,0.002031326,-0.004560471,0.014619827,0,
00:00.9,0.00204277,-0.004549026,0.014614105,0,
00:00.9,0.002019882,-0.004566193,0.014602661,0,
00:00.9,0.00201416,-0.004571915,0.014625549,0,
00:00.9,0.002025604,-0.004566193,0.014642715,0,
00:00.9,0.002031326,-0.004560471,0.014608383,0,
00:00.9,0.002025604,-0.004560471,0.014608383,0,
00:00.9,0.002031326,-0.004560471,0.014625549,0,
00:00.9,0.002037048,-0.004554749,0.014631271,0,
00:00.9,0.002025604,-0.004560471,0.014625549,0,
00:00.9,0.002025604,-0.004543304,0.014619827,0,
00:00.9,0.002019882,-0.004560471,0.014619827,0,
00:00.9,0.00201416,-0.004577637,0.014619827,0,
00:00.9,0.002031326,-0.004571915,0.014631271,0,
00:00.9,0.00201416,-0.004571915,0.014625549,0,
00:00.9,0.002019882,-0.004554749,0.014614105,0,
00:00.9,0.002031326,-0.004543304,0.014614105,0,
00:01.0,0.002037048,-0.004554749,0.014625549,0,
00:01.0,0.002031326,-0.004554749,0.014636993,0,
00:01.0,0.002019882,-0.004560471,0.014636993,0,
00:01.0,0.00201416,-0.004560471,0.014631271,0,
00:01.0,0.00201416,-0.004560471,0.014625549,0,
00:01.0,0.002019882,-0.004560471,0.014631271,0,
00:01.0,0.002025604,-0.004560471,0.014636993,0,
00:01.0,0.002025604,-0.004566193,0.014631271,0,
00:01.0,0.002019882,-0.004560471,0.014631271,0,
00:01.0,0.002025604,-0.004549026,0.014614105,0,
00:01.0,0.002037048,-0.004554749,0.014619827,0,
00:01.0,0.00201416,-0.004566193,0.014619827,0,
00:00:01,0.002019882,-0.004571915,0.014642715,0,
00:01.0,0.00201416,-0.004566193,0.014631271,0,
00:01.0,0.002008438,-0.004566193,0.014631271,0,
00:01.0,0.002008438,-0.004571915,0.014614105,0,
00:01.0,0.002025604,-0.004549026,0.014625549,0,
00:01.0,0.00201416,-0.004566193,0.014636993,0,
00:01.0,0.002008438,-0.004577637,0.014636993,0,
00:01.0,0.00201416,-0.004571915,0.014636993,0,
00:01.0,0.002008438,-0.004577637,0.014631271,0,
00:01.0,0.00201416,-0.004566193,0.014631271,0,
00:01.0,0.002019882,-0.004554749,0.014631271,0,
00:01.0,0.002008438,-0.004560471,0.014619827,0,
00:01.0,0.00201416,-0.004554749,0.014625549,0,
00:01.1,0.002019882,-0.004554749,0.014642715,0,
00:01.1,0.00201416,-0.004571915,0.014636993,0,
00:01.1,0.002008438,-0.004566193,0.014642715,0,
00:01.1,0.002019882,-0.004560471,0.014631271,0,
00:01.1,0.002019882,-0.004560471,0.014631271,0,
00:01.1,0.00201416,-0.004566193,0.014631271,0,
00:01.1,0.00201416,-0.004560471,0.014636993,0,
00:01.1,0.002008438,-0.004566193,0.014642715,0,
00:01.1,0.00201416,-0.004554749,0.014631271,0,
00:01.1,0.002002716,-0.004560471,0.014648438,0,
00:01.1,0.002008438,-0.004566193,0.01465416,0,
00:01.1,0.002019882,-0.004560471,0.014648438,0,
00:01.1,0.00201416,-0.004560471,0.014642715,0,
00:01.1,0.00201416,-0.004560471,0.014642715,0,
00:01.1,0.00201416,-0.004560471,0.014636993,0,
00:01.1,0.002008438,-0.004560471,0.014636993,0,
00:01.1,0.00201416,-0.004560471,0.014636993,0,
00:01.1,0.00201416,-0.004560471,0.014642715,0,
00:01.1,0.002008438,-0.004554749,0.014642715,0,
00:01.1,0.002002716,-0.004560471,0.014631271,0,
00:01.1,0.001996994,-0.004589081,0.014636993,0,
00:01.1,0.001996994,-0.004589081,0.014642715,0,
00:01.1,0.002002716,-0.004577637,0.014642715,0,
00:01.1,0.002008438,-0.004571915,0.014625549,0,
00:01.1,0.002008438,-0.004560471,0.014636993,0,
00:01.2,0.002008438,-0.004560471,0.014648438,0,
00:01.2,0.002008438,-0.004554749,0.014631271,0,
00:01.2,0.002002716,-0.004554749,0.014631271,0,
00:01.2,0.002002716,-0.004560471,0.014636993,0,
00:01.2,0.001996994,-0.004560471,0.014636993,0,
00:01.2,0.002008438,-0.004560471,0.014631271,0,
00:01.2,0.002008438,-0.004560471,0.014631271,0,
00:01.2,0.002002716,-0.004560471,0.014625549,0,
00:01.2,0.002002716,-0.004571915,0.014642715,0,
00:01.2,0.001991272,-0.004583359,0.014642715,0,
00:01.2,0.001991272,-0.004571915,0.014636993,0,
00:01.2,0.002002716,-0.004560471,0.014648438,0,
00:01.2,0.001996994,-0.004554749,0.014636993,0,
00:01.2,0.002008438,-0.004560471,0.014636993,0,
00:01.2,0.002008438,-0.004566193,0.014636993,0,
00:01.2,0.001991272,-0.004571915,0.014631271,0,
00:01.2,0.001991272,-0.004577637,0.014642715,0,
00:01.2,0.001991272,-0.004566193,0.014648438,0,
00:01.2,0.002008438,-0.004543304,0.014648438,0,
00:01.2,0.002002716,-0.004543304,0.014636993,0,
00:01.2,0.001996994,-0.004566193,0.014631271,0,
00:01.2,0.001996994,-0.004560471,0.014631271,0,
00:01.2,0.001991272,-0.004554749,0.014642715,0,
00:01.2,0.00198555,-0.004577637,0.014642715,0,
00:01.2,0.001974106,-0.004594803,0.014631271,0,
00:01.3,0.00198555,-0.004577637,0.014642715,0,
00:01.3,0.002002716,-0.004554749,0.014642715,0,
00:01.3,0.001991272,-0.004554749,0.014631271,0,
00:01.3,0.001996994,-0.004549026,0.014625549,0,
00:01.3,0.001996994,-0.004554749,0.014642715,0,
00:01.3,0.001979828,-0.004560471,0.014636993,0,
00:01.3,0.001996994,-0.004554749,0.014648438,0,
00:01.3,0.002002716,-0.004554749,0.014642715,0,
00:01.3,0.001996994,-0.004560471,0.014636993,0,
00:01.3,0.001996994,-0.004554749,0.014642715,0,
00:01.3,0.001991272,-0.004560471,0.014636993,0,
00:01.3,0.001991272,-0.004554749,0.014642715,0,
00:01.3,0.00198555,-0.004554749,0.014636993,0,
00:01.3,0.001979828,-0.004566193,0.014631271,0,
00:01.3,0.001979828,-0.004571915,0.014625549,0,
00:01.3,0.001974106,-0.004571915,0.014642715,0,
00:01.3,0.00198555,-0.004554749,0.014642715,0,
00:01.3,0.002008438,-0.00453186,0.014636993,0,
00:01.3,0.001991272,-0.004566193,0.014636993,0,
00:01.3,0.00198555,-0.004560471,0.014636993,0,
00:01.3,0.00198555,-0.004549026,0.014631271,0,
00:01.3,0.00198555,-0.004554749,0.014636993,0,
00:01.3,0.001979828,-0.004571915,0.014648438,0,
00:01.3,0.00198555,-0.004577637,0.014648438,0,
00:01.3,0.001996994,-0.004566193,0.014631271,0,
00:01.4,0.001979828,-0.004566193,0.014602661,0,
00:01.4,0.001979828,-0.004554749,0.014631271,0,
00:01.4,0.001979828,-0.004554749,0.014636993,0,
00:01.4,0.001991272,-0.004543304,0.014648438,0,
00:01.4,0.00198555,-0.004554749,0.014631271,0,
00:01.4,0.001991272,-0.004554749,0.014636993,0,
00:01.4,0.00198555,-0.004549026,0.014642715,0,
00:01.4,0.001991272,-0.004554749,0.014636993,0,
00:01.4,0.001996994,-0.004554749,0.014648438,0,
00:01.4,0.001991272,-0.004560471,0.014642715,0,
00:01.4,0.00198555,-0.004566193,0.014636993,0,
00:01.4,0.00198555,-0.004560471,0.014636993,0,
00:01.4,0.001991272,-0.004554749,0.014636993,0,
00:01.4,0.001979828,-0.004549026,0.014636993,0,
00:01.4,0.001974106,-0.004554749,0.014636993,0,
00:01.4,0.00198555,-0.004554749,0.014642715,0,
00:01.4,0.00198555,-0.004560471,0.014642715,0,
00:01.4,0.001979828,-0.004566193,0.014636993,0,
00:01.4,0.001979828,-0.004560471,0.014636993,0,
00:01.4,0.001991272,-0.004543304,0.014631271,0,
00:01.4,0.001991272,-0.004554749,0.014636993,0,
00:01.4,0.001979828,-0.004560471,0.014619827,0,
00:01.4,0.00198555,-0.004554749,0.014636993,0,
00:01.4,0.001979828,-0.004566193,0.014631271,0,
00:01.4,0.001979828,-0.004571915,0.014636993,0,
00:01.5,0.001974106,-0.004566193,0.014631271,0,
00:01.5,0.001979828,-0.004554749,0.014631271,0,
00:01.5,0.001991272,-0.004554749,0.014636993,0,
00:01.5,0.001996994,-0.004543304,0.014642715,0,
00:01.5,0.001991272,-0.004537582,0.014631271,0,
00:01.5,0.00198555,-0.004543304,0.014631271,0,
00:01.5,0.001979828,-0.004560471,0.014642715,0,
00:01.5,0.001979828,-0.004560471,0.014636993,0,
00:01.5,0.001979828,-0.004560471,0.014631271,0,
00:01.5,0.00198555,-0.004549026,0.014625549,0,
00:01.5,0.001991272,-0.004537582,0.014619827,0,
00:01.5,0.001991272,-0.004554749,0.014636993,0,
00:01.5,0.00198555,-0.004566193,0.014648438,0,
00:01.5,0.00198555,-0.004566193,0.014636993,0,
00:01.5,0.001968384,-0.004566193,0.014631271,0,
00:01.5,0.001979828,-0.004560471,0.014642715,0,
00:01.5,0.00198555,-0.004554749,0.014636993,0,
00:01.5,0.001979828,-0.004537582,0.014636993,0,
00:01.5,0.001979828,-0.004543304,0.014625549,0,
00:01.5,0.001996994,-0.00453186,0.014619827,0,
00:01.5,0.001979828,-0.004549026,0.014642715,0,
00:01.5,0.001968384,-0.004554749,0.014636993,0,
00:01.5,0.001974106,-0.004560471,0.014631271,0,
00:01.5,0.001979828,-0.004566193,0.014619827,0,
00:01.5,0.00198555,-0.004554749,0.014631271,0,
00:01.6,0.00198555,-0.004543304,0.014648438,0,
00:01.6,0.00198555,-0.004537582,0.014642715,0,
00:01.6,0.001974106,-0.004537582,0.014636993,0,
00:01.6,0.001974106,-0.004537582,0.014636993,0,
00:01.6,0.001979828,-0.004543304,0.014631271,0,
00:01.6,0.00198555,-0.004554749,0.014631271,0,
00:01.6,0.001974106,-0.004549026,0.014636993,0,
00:01.6,0.001974106,-0.004543304,0.014636993,0,
00:01.6,0.001974106,-0.004543304,0.014636993,0,
00:01.6,0.001979828,-0.004543304,0.014625549,0,
00:01.6,0.001974106,-0.004543304,0.014625549,0,
00:01.6,0.001968384,-0.004543304,0.014636993,0,
00:01.6,0.001979828,-0.004543304,0.014625549,0,
00:01.6,0.001974106,-0.004560471,0.014636993,0,
00:01.6,0.001962662,-0.004560471,0.014631271,0,
00:01.6,0.001968384,-0.004554749,0.014636993,0,
00:01.6,0.001974106,-0.004549026,0.014631271,0,
00:01.6,0.001974106,-0.004537582,0.014631271,0,
00:01.6,0.001974106,-0.004543304,0.014625549,0,
00:01.6,0.001968384,-0.004543304,0.014631271,0,
00:01.6,0.001968384,-0.004549026,0.014631271,0,
00:01.6,0.001974106,-0.004543304,0.014625549,0,
00:01.6,0.001991272,-0.004526138,0.014619827,0,
00:01.6,0.001979828,-0.004526138,0.014631271,0,
00:01.6,0.001974106,-0.004526138,0.014631271,0,
00:01.7,0.001962662,-0.004543304,0.014631271,0,
00:01.7,0.001962662,-0.004560471,0.014631271,0,
00:01.7,0.001968384,-0.004549026,0.014631271,0,
00:01.7,0.001968384,-0.004543304,0.014625549,0,
00:01.7,0.001962662,-0.004537582,0.014614105,0,
00:01.7,0.001974106,-0.004526138,0.014625549,0,
00:01.7,0.001968384,-0.004537582,0.014625549,0,
00:01.7,0.001968384,-0.00453186,0.014631271,0,
00:01.7,0.001974106,-0.004537582,0.014625549,0,
00:01.7,0.001974106,-0.004537582,0.014631271,0,
00:01.7,0.001962662,-0.004537582,0.014625549,0,
00:01.7,0.001962662,-0.004543304,0.014636993,0,
00:01.7,0.001962662,-0.004549026,0.014625549,0,
00:01.7,0.001962662,-0.004543304,0.014625549,0,
00:01.7,0.001968384,-0.004520416,0.014614105,0,
00:01.7,0.001962662,-0.004526138,0.014636993,0,
00:01.7,0.001962662,-0.004537582,0.014631271,0,
00:01.7,0.001968384,-0.004537582,0.014625549,0,
00:01.7,0.001968384,-0.00453186,0.014631271,0,
00:01.7,0.00195694,-0.004537582,0.014614105,0,
00:01.7,0.001979828,-0.00453186,0.014625549,0,
00:01.7,0.001968384,-0.004520416,0.014636993,0,
00:01.7,0.00195694,-0.004537582,0.014636993,0,
00:01.7,0.00195694,-0.00453186,0.014636993,0,
00:01.7,0.00195694,-0.004537582,0.014625549,0,
00:01.8,0.001968384,-0.00453186,0.014614105,0,
00:01.8,0.00195694,-0.004526138,0.014619827,0,
00:01.8,0.001962662,-0.00453186,0.014625549,0,
00:01.8,0.001962662,-0.00453186,0.014614105,0,
00:01.8,0.001962662,-0.004537582,0.014631271,0,
00:01.8,0.00195694,-0.004543304,0.014619827,0,
00:01.8,0.001951218,-0.00453186,0.014625549,0,
00:01.8,0.001962662,-0.004526138,0.014619827,0,
00:01.8,0.00195694,-0.00453186,0.014608383,0,
00:01.8,0.001951218,-0.004537582,0.014614105,0,
00:01.8,0.001968384,-0.004526138,0.014625549,0,
00:01.8,0.001962662,-0.004526138,0.014614105,0,
00:01.8,0.001962662,-0.004526138,0.014619827,0,
00:01.8,0.001951218,-0.00453186,0.014608383,0,
00:01.8,0.001951218,-0.00453186,0.014614105,0,
00:01.8,0.00195694,-0.004526138,0.014614105,0,
00:01.8,0.001962662,-0.004526138,0.014608383,0,
00:01.8,0.001962662,-0.004526138,0.014602661,0,
00:01.8,0.00195694,-0.004537582,0.014596939,0,
00:01.8,0.00195694,-0.004543304,0.014619827,0,
00:01.8,0.00195694,-0.004537582,0.014614105,0,
00:01.8,0.00195694,-0.004526138,0.014614105,0,
00:01.8,0.00195694,-0.004526138,0.014614105,0,
00:01.8,0.001951218,-0.00453186,0.014614105,0,
00:01.8,0.001951218,-0.004526138,0.014596939,0,
00:01.9,0.001951218,-0.004537582,0.014602661,0,
00:01.9,0.001951218,-0.004526138,0.014614105,0,
00:01.9,0.00195694,-0.004526138,0.014614105,0,
00:01.9,0.001962662,-0.004526138,0.014608383,0,
00:01.9,0.001951218,-0.004526138,0.014602661,0,
00:01.9,0.00195694,-0.004514694,0.014602661,0,
00:01.9,0.00195694,-0.004526138,0.014602661,0,
00:01.9,0.001951218,-0.004526138,0.014608383,0,
00:01.9,0.00195694,-0.004520416,0.014608383,0,
00:01.9,0.001951218,-0.004520416,0.014596939,0,
00:01.9,0.001951218,-0.004520416,0.014602661,0,
00:01.9,0.001945496,-0.004526138,0.014608383,0,
00:01.9,0.001939774,-0.004520416,0.014614105,0,
00:01.9,0.00195694,-0.004520416,0.014608383,0,
00:01.9,0.00195694,-0.004526138,0.014602661,0,
00:01.9,0.001945496,-0.004520416,0.014608383,0,
00:01.9,0.001951218,-0.004526138,0.014602661,0,
00:01.9,0.001945496,-0.00453186,0.014602661,0,
00:01.9,0.001945496,-0.004526138,0.014596939,0,
00:01.9,0.001945496,-0.00453186,0.014591217,0,
00:01.9,0.001951218,-0.004514694,0.014591217,0,
00:01.9,0.001968384,-0.004508972,0.014585495,0,
00:01.9,0.001951218,-0.004520416,0.014585495,0,
00:01.9,0.001939774,-0.00453186,0.014608383,0,
00:01.9,0.001951218,-0.004526138,0.014602661,0,
00:02.0,0.00195694,-0.004526138,0.014596939,0,
00:02.0,0.001951218,-0.004514694,0.014614105,0,
00:02.0,0.001951218,-0.004497528,0.014602661,0,
00:02.0,0.001951218,-0.004520416,0.014596939,0,
00:02.0,0.001934052,-0.00453186,0.014585495,0,
00:02.0,0.001939774,-0.00453186,0.014591217,0,
00:02.0,0.001939774,-0.004526138,0.014602661,0,
00:02.0,0.001945496,-0.004526138,0.014608383,0,
00:02.0,0.001951218,-0.004508972,0.014585495,0,
00:02.0,0.00195694,-0.004508972,0.014585495,0,
00:02.0,0.001945496,-0.004526138,0.014591217,0,
00:02.0,0.001951218,-0.004514694,0.014591217,0,
00:00:02,0.00195694,-0.004514694,0.014591217,0,
00:02.0,0.001945496,-0.004526138,0.014596939,0,
00:02.0,0.001939774,-0.00453186,0.014585495,0,
00:02.0,0.001939774,-0.004543304,0.014591217,0,
00:02.0,0.001939774,-0.00453186,0.014596939,0,
00:02.0,0.001951218,-0.004508972,0.014602661,0,
00:02.0,0.00195694,-0.00450325,0.014591217,0,
00:02.0,0.001951218,-0.004508972,0.014579773,0,
00:02.0,0.001951218,-0.004514694,0.014585495,0,
00:02.0,0.001945496,-0.004520416,0.014579773,0,
00:02.0,0.001939774,-0.004514694,0.014579773,0,
00:02.0,0.001945496,-0.004514694,0.014596939,0,
00:02.0,0.001939774,-0.004526138,0.014591217,0,
00:02.1,0.001934052,-0.004526138,0.014574051,0,
00:02.1,0.001939774,-0.004520416,0.014591217,0,
00:02.1,0.001928329,-0.004526138,0.014602661,0,
00:02.1,0.001939774,-0.004520416,0.014585495,0,
00:02.1,0.001945496,-0.004520416,0.014574051,0,
00:02.1,0.001939774,-0.004514694,0.014568329,0,
00:02.1,0.001951218,-0.004497528,0.014568329,0,
00:02.1,0.001945496,-0.004508972,0.014591217,0,
00:02.1,0.001945496,-0.004514694,0.014585495,0,
00:02.1,0.001945496,-0.004514694,0.014574051,0,
00:02.1,0.001934052,-0.004520416,0.014574051,0,
00:02.1,0.001939774,-0.004520416,0.014579773,0,
00:02.1,0.001939774,-0.004526138,0.014579773,0,
00:02.1,0.001939774,-0.004508972,0.014574051,0,
00:02.1,0.001934052,-0.004508972,0.014579773,0,
00:02.1,0.001934052,-0.004520416,0.014574051,0,
00:02.1,0.001939774,-0.004520416,0.014579773,0,
00:02.1,0.001934052,-0.004520416,0.014574051,0,
00:02.1,0.001939774,-0.004508972,0.014562607,0,
00:02.1,0.001945496,-0.004508972,0.014551163,0,
00:02.1,0.001939774,-0.004526138,0.014574051,0,
00:02.1,0.001922607,-0.00453186,0.014579773,0,
00:02.1,0.001934052,-0.004508972,0.014579773,0,
00:02.1,0.001939774,-0.004491806,0.014574051,0,
00:02.1,0.001934052,-0.00450325,0.014568329,0,
00:02.2,0.001939774,-0.004514694,0.014556885,0,
00:02.2,0.001934052,-0.004520416,0.014574051,0,
00:02.2,0.001922607,-0.004520416,0.014574051,0,
00:02.2,0.001928329,-0.004514694,0.014574051,0,
00:02.2,0.001934052,-0.004508972,0.014568329,0,
00:02.2,0.001922607,-0.004514694,0.014568329,0,
00:02.2,0.001922607,-0.004497528,0.014562607,0,
00:02.2,0.001945496,-0.00450325,0.014574051,0,
00:02.2,0.001951218,-0.004497528,0.014562607,0,
00:02.2,0.001934052,-0.004497528,0.014562607,0,
00:02.2,0.001928329,-0.004508972,0.014568329,0,
00:02.2,0.001939774,-0.004514694,0.014568329,0,
00:02.2,0.001939774,-0.004508972,0.014568329,0,
00:02.2,0.001945496,-0.004497528,0.014568329,0,
00:02.2,0.001928329,-0.004514694,0.014556885,0,
00:02.2,0.001928329,-0.004514694,0.014562607,0,
00:02.2,0.001934052,-0.004514694,0.014562607,0,
00:02.2,0.001928329,-0.004508972,0.014556885,0,
00:02.2,0.001939774,-0.004514694,0.014562607,0,
00:02.2,0.001934052,-0.004514694,0.014562607,0,
00:02.2,0.001928329,-0.004508972,0.014562607,0,
00:02.2,0.001939774,-0.00450325,0.014562607,0,
00:02.2,0.001939774,-0.004497528,0.014556885,0,
00:02.2,0.001922607,-0.004508972,0.014545441,0,
00:02.2,0.001922607,-0.004514694,0.014545441,0,
00:02.3,0.001928329,-0.004508972,0.014556885,0,
00:02.3,0.001934052,-0.004508972,0.014568329,0,
00:02.3,0.001934052,-0.00450325,0.014568329,0,
00:02.3,0.001934052,-0.00450325,0.014556885,0,
00:02.3,0.001934052,-0.004508972,0.014556885,0,
00:02.3,0.001928329,-0.004508972,0.014556885,0,
00:02.3,0.001922607,-0.004508972,0.014562607,0,
00:02.3,0.001928329,-0.004520416,0.014551163,0,
00:02.3,0.001934052,-0.004508972,0.014545441,0,
00:02.3,0.001934052,-0.004497528,0.014556885,0,
00:02.3,0.001934052,-0.004486084,0.014556885,0,
00:02.3,0.001939774,-0.004486084,0.014551163,0,
00:02.3,0.001928329,-0.004508972,0.014551163,0,
00:02.3,0.001922607,-0.004497528,0.014545441,0,
00:02.3,0.001928329,-0.004491806,0.014533997,0,
00:02.3,0.001928329,-0.00450325,0.014545441,0,
00:02.3,0.001934052,-0.00450325,0.014562607,0,
00:02.3,0.001928329,-0.004508972,0.014551163,0,
00:02.3,0.001928329,-0.00450325,0.014556885,0,
00:02.3,0.001928329,-0.004491806,0.014545441,0,
00:02.3,0.001928329,-0.004491806,0.014539719,0,
00:02.3,0.001928329,-0.004491806,0.014551163,0,
00:02.3,0.001934052,-0.004491806,0.014551163,0,
00:02.3,0.001928329,-0.00450325,0.014545441,0,
00:02.3,0.001922607,-0.00450325,0.014533997,0,
00:02.4,0.001928329,-0.004491806,0.014533997,0,
00:02.4,0.001928329,-0.004491806,0.014545441,0,
00:02.4,0.001928329,-0.004491806,0.014539719,0,
00:02.4,0.001922607,-0.004497528,0.014539719,0,
00:02.4,0.001916885,-0.00450325,0.014539719,0,
00:02.4,0.001934052,-0.004497528,0.014533997,0,
00:02.4,0.001934052,-0.004491806,0.014533997,0,
00:02.4,0.001928329,-0.004486084,0.014539719,0,
00:02.4,0.001934052,-0.004491806,0.014533997,0,
00:02.4,0.001916885,-0.004514694,0.014533997,0,
00:02.4,0.001928329,-0.004508972,0.014533997,0,
00:02.4,0.001928329,-0.004497528,0.014551163,0,
00:02.4,0.001922607,-0.004491806,0.014551163,0,
00:02.4,0.001916885,-0.004497528,0.014545441,0,
00:02.4,0.001928329,-0.004486084,0.014539719,0,
00:02.4,0.001934052,-0.00447464,0.014533997,0,
00:02.4,0.001928329,-0.004480362,0.014528275,0,
00:02.4,0.001928329,-0.004480362,0.014533997,0,
00:02.4,0.001922607,-0.004508972,0.014539719,0,
00:02.4,0.001916885,-0.004508972,0.014528275,0,
00:02.4,0.001922607,-0.004497528,0.014522552,0,
00:02.4,0.001922607,-0.004486084,0.014528275,0,
00:02.4,0.001916885,-0.004491806,0.014533997,0,
00:02.4,0.001916885,-0.004497528,0.014528275,0,
00:02.4,0.001922607,-0.004497528,0.014528275,0,
00:02.5,0.001928329,-0.004480362,0.01451683,0,
00:02.5,0.001934052,-0.004468918,0.01451683,0,
00:02.5,0.001916885,-0.004486084,0.014539719,0,
00:02.5,0.001911163,-0.00450325,0.014533997,0,
00:02.5,0.001911163,-0.004520416,0.014522552,0,
00:02.5,0.001911163,-0.004526138,0.014511108,0,
00:02.5,0.001899719,-0.004514694,0.014528275,0,
00:02.5,0.001911163,-0.004497528,0.014539719,0,
00:02.5,0.001928329,-0.004480362,0.014533997,0,
00:02.5,0.001934052,-0.004480362,0.01451683,0,
00:02.5,0.001928329,-0.004491806,0.014511108,0,
00:02.5,0.001916885,-0.004497528,0.014522552,0,
00:02.5,0.001911163,-0.004497528,0.01451683,0,
00:02.5,0.001916885,-0.004491806,0.014528275,0,
00:02.5,0.001916885,-0.004480362,0.014522552,0,
00:02.5,0.001922607,-0.004480362,0.01451683,0,
00:02.5,0.001916885,-0.004486084,0.014522552,0,
00:02.5,0.001911163,-0.004491806,0.014528275,0,
00:02.5,0.001911163,-0.004486084,0.014528275,0,
00:02.5,0.001922607,-0.00447464,0.014511108,0,
00:02.5,0.001922607,-0.00447464,0.01451683,0,
00:02.5,0.001928329,-0.004480362,0.01451683,0,
00:02.5,0.001928329,-0.004486084,0.014528275,0,
00:02.5,0.001922607,-0.004480362,0.014511108,0,
00:02.5,0.001922607,-0.004468918,0.014505386,0,
00:02.6,0.001922607,-0.00447464,0.014505386,0,
00:02.6,0.001911163,-0.004491806,0.014505386,0,
00:02.6,0.001899719,-0.004491806,0.014505386,0,
00:02.6,0.001911163,-0.004491806,0.014522552,0,
00:02.6,0.001916885,-0.004480362,0.014522552,0,
00:02.6,0.001922607,-0.004486084,0.01451683,0,
00:02.6,0.001911163,-0.004486084,0.014505386,0,
00:02.6,0.001911163,-0.004463196,0.014505386,0,
00:02.6,0.001928329,-0.00444603,0.014505386,0,
00:02.6,0.001934052,-0.00444603,0.014505386,0,
00:02.6,0.001916885,-0.00447464,0.014499664,0,
00:02.6,0.001905441,-0.004486084,0.014505386,0,
00:02.6,0.001916885,-0.004486084,0.014505386,0,
00:02.6,0.001916885,-0.004480362,0.014505386,0,
00:02.6,0.001916885,-0.004468918,0.014499664,0,
00:02.6,0.001916885,-0.004468918,0.014493942,0,
00:02.6,0.001911163,-0.004486084,0.014499664,0,
00:02.6,0.001911163,-0.00447464,0.014505386,0,
00:02.6,0.001911163,-0.00447464,0.014499664,0,
00:02.6,0.001911163,-0.004480362,0.014482498,0,
00:02.6,0.001911163,-0.00447464,0.014499664,0,
00:02.6,0.001911163,-0.004463196,0.014505386,0,
00:02.6,0.001922607,-0.004457474,0.01448822,0,
00:02.6,0.001916885,-0.004468918,0.014482498,0,
00:02.6,0.001916885,-0.00447464,0.014505386,0,
00:02.7,0.001916885,-0.004468918,0.014511108,0,
00:02.7,0.001916885,-0.004468918,0.014505386,0,
00:02.7,0.001911163,-0.004463196,0.01448822,0,
00:02.7,0.001916885,-0.004468918,0.014493942,0,
00:02.7,0.001911163,-0.004486084,0.014499664,0,
00:02.7,0.001911163,-0.004468918,0.01448822,0,
00:02.7,0.001911163,-0.004463196,0.01448822,0,
00:02.7,0.001905441,-0.004480362,0.014499664,0,
00:02.7,0.001911163,-0.004468918,0.014493942,0,
00:02.7,0.001916885,-0.004457474,0.01448822,0,
00:02.7,0.001905441,-0.004463196,0.014493942,0,
00:02.7,0.001911163,-0.00447464,0.01448822,0,
00:02.7,0.001911163,-0.00447464,0.014482498,0,
00:02.7,0.001916885,-0.004468918,0.014482498,0,
00:02.7,0.001922607,-0.004468918,0.014476776,0,
00:02.7,0.001916885,-0.004463196,0.014493942,0,
00:02.7,0.001916885,-0.004451752,0.01448822,0,
00:02.7,0.001922607,-0.004440308,0.01448822,0,
00:02.7,0.001928329,-0.00444603,0.01448822,0,
00:02.7,0.001905441,-0.004463196,0.014476776,0,
00:02.7,0.001905441,-0.004468918,0.014482498,0,
00:02.7,0.001911163,-0.004468918,0.014493942,0,
00:02.7,0.001905441,-0.004457474,0.01448822,0,
00:02.7,0.001916885,-0.004451752,0.014493942,0,
00:02.7,0.001905441,-0.004457474,0.014482498,0,
00:02.8,0.001911163,-0.00444603,0.01448822,0,
00:02.8,0.001905441,-0.004463196,0.01448822,0,
00:02.8,0.001893997,-0.00447464,0.014482498,0,
00:02.8,0.001893997,-0.004463196,0.014482498,0,
00:02.8,0.001916885,-0.00444603,0.014476776,0,
00:02.8,0.001928329,-0.004434586,0.014482498,0,
00:02.8,0.001916885,-0.004451752,0.014471054,0,
00:02.8,0.001916885,-0.00444603,0.014476776,0,
00:02.8,0.001911163,-0.004451752,0.014493942,0,
00:02.8,0.001905441,-0.004457474,0.014476776,0,
00:02.8,0.001899719,-0.004468918,0.014482498,0,
00:02.8,0.001899719,-0.004463196,0.01448822,0,
00:02.8,0.001916885,-0.00444603,0.014482498,0,
00:02.8,0.001916885,-0.004434586,0.014476776,0,
00:02.8,0.001911163,-0.004440308,0.014476776,0,
00:02.8,0.001911163,-0.00444603,0.014471054,0,
00:02.8,0.001911163,-0.004428864,0.014476776,0,
00:02.8,0.001911163,-0.004428864,0.014476776,0,
00:02.8,0.001905441,-0.004451752,0.014471054,0,
00:02.8,0.001911163,-0.00444603,0.014471054,0,
00:02.8,0.001911163,-0.004434586,0.014471054,0,
00:02.8,0.001905441,-0.004451752,0.014476776,0,
00:02.8,0.001899719,-0.004457474,0.014476776,0,
00:02.8,0.001899719,-0.004451752,0.014476776,0,
00:02.8,0.001882553,-0.004451752,0.014471054,0,
00:02.9,0.001888275,-0.004463196,0.014465332,0,
00:02.9,0.001905441,-0.004457474,0.014465332,0,
00:02.9,0.001905441,-0.00444603,0.014471054,0,
00:02.9,0.001916885,-0.004428864,0.014471054,0,
00:02.9,0.001916885,-0.004428864,0.014465332,0,
00:02.9,0.001916885,-0.004423141,0.014465332,0,
00:02.9,0.001916885,-0.004428864,0.014465332,0,
00:02.9,0.001905441,-0.004434586,0.014465332,0,
00:02.9,0.001899719,-0.004451752,0.014465332,0,
00:02.9,0.001899719,-0.004451752,0.014465332,0,
00:02.9,0.001911163,-0.004423141,0.014448166,0,
00:02.9,0.001893997,-0.004434586,0.014448166,0,
00:02.9,0.001893997,-0.004434586,0.014476776,0,
00:02.9,0.001893997,-0.00444603,0.014471054,0,
00:02.9,0.001899719,-0.004440308,0.014453888,0,
00:02.9,0.001893997,-0.004440308,0.01445961,0,
00:02.9,0.001893997,-0.004428864,0.014465332,0,
00:02.9,0.001899719,-0.004417419,0.01445961,0,
00:02.9,0.001893997,-0.004417419,0.014448166,0,
00:02.9,0.001899719,-0.004440308,0.014476776,0,
00:02.9,0.001882553,-0.004457474,0.014453888,0,
00:02.9,0.001899719,-0.00444603,0.01445961,0,
00:02.9,0.001905441,-0.004428864,0.014448166,0,
00:02.9,0.001893997,-0.004417419,0.014453888,0,
00:02.9,0.001888275,-0.004428864,0.01445961,0,
00:03.0,0.001899719,-0.004434586,0.01445961,0,
00:03.0,0.001905441,-0.004417419,0.014448166,0,
00:03.0,0.001893997,-0.004417419,0.014453888,0,
00:03.0,0.001893997,-0.004434586,0.014453888,0,
00:03.0,0.001882553,-0.004440308,0.014453888,0,
00:03.0,0.001882553,-0.004440308,0.01445961,0,
00:03.0,0.001888275,-0.004428864,0.014465332,0,
00:03.0,0.001893997,-0.004423141,0.01445961,0,
00:03.0,0.001899719,-0.004423141,0.014453888,0,
00:03.0,0.001893997,-0.004434586,0.014442444,0,
00:03.0,0.001888275,-0.00444603,0.014436722,0,
00:03.0,0.001888275,-0.004428864,0.014448166,0,
00:00:03,0.001888275,-0.004411697,0.014448166,0,
00:03.0,0.001893997,-0.004423141,0.014448166,0,
00:03.0,0.001899719,-0.004423141,0.014436722,0,
00:03.0,0.001893997,-0.004428864,0.014436722,0,
00:03.0,0.001882553,-0.004440308,0.01445961,0,
00:03.0,0.001893997,-0.004434586,0.01445961,0,
00:03.0,0.001893997,-0.004417419,0.01445961,0,
00:03.0,0.001888275,-0.004423141,0.014436722,0,
00:03.0,0.001888275,-0.004423141,0.014442444,0,
00:03.0,0.001882553,-0.004417419,0.014442444,0,
00:03.0,0.001876831,-0.004423141,0.014465332,0,
00:03.0,0.001882553,-0.004428864,0.014442444,0,
00:03.0,0.001888275,-0.004417419,0.014442444,0,
00:03.1,0.001888275,-0.004428864,0.014448166,0,
00:03.1,0.001882553,-0.004434586,0.014436722,0,
00:03.1,0.001882553,-0.004423141,0.014436722,0,
00:03.1,0.001876831,-0.004428864,0.014448166,0,
00:03.1,0.001882553,-0.004423141,0.014436722,0,
00:03.1,0.001882553,-0.004423141,0.014436722,0,
00:03.1,0.001876831,-0.004428864,0.014448166,0,
00:03.1,0.001888275,-0.004423141,0.014442444,0,
00:03.1,0.001893997,-0.004423141,0.014436722,0,
00:03.1,0.001882553,-0.004423141,0.014431,0,
00:03.1,0.001876831,-0.004423141,0.014448166,0,
00:03.1,0.001882553,-0.004405975,0.014442444,0,
00:03.1,0.001888275,-0.004411697,0.014448166,0,
00:03.1,0.001882553,-0.004417419,0.014442444,0,
00:03.1,0.001876831,-0.004417419,0.014436722,0,
00:03.1,0.001876831,-0.004428864,0.014431,0,
00:03.1,0.001882553,-0.004434586,0.014436722,0,
00:03.1,0.001888275,-0.004417419,0.014442444,0,
00:03.1,0.001882553,-0.004411697,0.014436722,0,
00:03.1,0.001882553,-0.004411697,0.014436722,0,
00:03.1,0.001888275,-0.004400253,0.014425278,0,
00:03.1,0.001888275,-0.004400253,0.014431,0,
00:03.1,0.001888275,-0.004411697,0.014431,0,
00:03.1,0.001876831,-0.004428864,0.014436722,0,
00:03.1,0.001876831,-0.004405975,0.014431,0,
00:03.2,0.001882553,-0.004405975,0.014431,0,
00:03.2,0.001876831,-0.004428864,0.014436722,0,
00:03.2,0.001876831,-0.004428864,0.014431,0,
00:03.2,0.001876831,-0.004423141,0.014431,0,
00:03.2,0.001882553,-0.004428864,0.014431,0,
00:03.2,0.001882553,-0.004417419,0.014419556,0,
00:03.2,0.001871109,-0.004417419,0.014413834,0,
00:03.2,0.001865387,-0.004417419,0.014419556,0,
00:03.2,0.001888275,-0.004423141,0.014442444,0,
00:03.2,0.001882553,-0.004423141,0.014425278,0,
00:03.2,0.001871109,-0.004423141,0.014425278,0,
00:03.2,0.001882553,-0.004405975,0.014431,0,
00:03.2,0.001876831,-0.004417419,0.014425278,0,
00:03.2,0.001871109,-0.004417419,0.014431,0,
00:03.2,0.001882553,-0.004400253,0.014419556,0,
00:03.2,0.001888275,-0.004388809,0.014419556,0,
00:03.2,0.001893997,-0.004394531,0.014425278,0,
00:03.2,0.001882553,-0.004400253,0.014419556,0,
00:03.2,0.001871109,-0.004411697,0.014419556,0,
00:03.2,0.001882553,-0.004411697,0.014413834,0,
00:03.2,0.001876831,-0.004417419,0.014413834,0,
00:03.2,0.001876831,-0.004405975,0.014419556,0,
00:03.2,0.001882553,-0.004394531,0.014419556,0,
00:03.2,0.001876831,-0.004400253,0.014419556,0,
00:03.2,0.001882553,-0.004405975,0.014413834,0,
00:03.3,0.001871109,-0.004428864,0.014408112,0,
00:03.3,0.001876831,-0.004423141,0.014413834,0,
00:03.3,0.001882553,-0.004400253,0.014413834,0,
00:03.3,0.001871109,-0.004411697,0.014419556,0,
00:03.3,0.001865387,-0.004417419,0.014408112,0,
00:03.3,0.001871109,-0.004417419,0.014408112,0,
00:03.3,0.001871109,-0.004423141,0.014408112,0,
00:03.3,0.001871109,-0.004405975,0.014396667,0,
00:03.3,0.001871109,-0.004388809,0.01440239,0,
00:03.3,0.001865387,-0.004423141,0.014419556,0,
00:03.3,0.001865387,-0.004428864,0.014419556,0,
00:03.3,0.001871109,-0.004405975,0.014408112,0,
00:03.3,0.001871109,-0.004405975,0.014413834,0,
00:03.3,0.001865387,-0.004405975,0.014413834,0,
00:03.3,0.001871109,-0.004411697,0.01440239,0,
00:03.3,0.001865387,-0.004417419,0.014396667,0,
00:03.3,0.001859665,-0.004400253,0.014396667,0,
00:03.3,0.001871109,-0.004388809,0.014408112,0,
00:03.3,0.001871109,-0.004388809,0.014408112,0,
00:03.3,0.001876831,-0.004388809,0.014396667,0,
00:03.3,0.001882553,-0.004405975,0.014408112,0,
00:03.3,0.001865387,-0.004417419,0.014408112,0,
00:03.3,0.001859665,-0.004411697,0.014396667,0,
00:03.3,0.001865387,-0.004405975,0.014396667,0,
00:03.3,0.001853943,-0.004411697,0.01440239,0,
00:03.4,0.001859665,-0.004417419,0.014385223,0,
00:03.4,0.001853943,-0.004417419,0.014408112,0,
00:03.4,0.001853943,-0.004405975,0.014408112,0,
00:03.4,0.001853943,-0.004394531,0.014390945,0,
00:03.4,0.001859665,-0.004405975,0.014390945,0,
00:03.4,0.001865387,-0.004411697,0.014385223,0,
00:03.4,0.001859665,-0.004400253,0.01440239,0,
00:03.4,0.001859665,-0.004400253,0.01440239,0,
00:03.4,0.001848221,-0.004405975,0.014390945,0,
00:03.4,0.001853943,-0.004400253,0.014385223,0,
00:03.4,0.001859665,-0.004394531,0.014385223,0,
00:03.4,0.001859665,-0.004388809,0.014396667,0,
00:03.4,0.001865387,-0.004405975,0.014390945,0,
00:03.4,0.001859665,-0.004411697,0.014396667,0,
00:03.4,0.001848221,-0.004417419,0.014373779,0,
00:03.4,0.001842499,-0.004405975,0.014379501,0,
00:03.4,0.001859665,-0.004388809,0.014396667,0,
00:03.4,0.001865387,-0.004383087,0.014385223,0,
00:03.4,0.001859665,-0.004394531,0.014390945,0,
00:03.4,0.001853943,-0.004394531,0.014390945,0,
00:03.4,0.001859665,-0.004394531,0.014390945,0,
00:03.4,0.001853943,-0.004411697,0.014396667,0,
00:03.4,0.001848221,-0.004417419,0.014396667,0,
00:03.4,0.001848221,-0.004405975,0.014385223,0,
00:03.4,0.001865387,-0.004394531,0.014379501,0,
00:03.5,0.001859665,-0.004383087,0.014379501,0,
00:03.5,0.001871109,-0.004365921,0.014362335,0,
00:03.5,0.001871109,-0.004377365,0.014390945,0,
00:03.5,0.001848221,-0.004417419,0.01440239,0,
00:03.5,0.001848221,-0.004411697,0.014390945,0,
00:03.5,0.001848221,-0.004394531,0.014385223,0,
00:03.5,0.001848221,-0.004388809,0.014385223,0,
00:03.5,0.001848221,-0.004394531,0.014379501,0,
00:03.5,0.001853943,-0.004388809,0.014385223,0,
00:03.5,0.001848221,-0.004388809,0.014373779,0,
00:03.5,0.001848221,-0.004405975,0.014368057,0,
00:03.5,0.001848221,-0.004394531,0.014390945,0,
00:03.5,0.001848221,-0.004388809,0.014396667,0,
00:03.5,0.001848221,-0.004388809,0.014379501,0,
00:03.5,0.001853943,-0.004383087,0.014373779,0,
00:03.5,0.001853943,-0.004377365,0.014373779,0,
00:03.5,0.001848221,-0.004394531,0.014379501,0,
00:03.5,0.001848221,-0.004383087,0.014379501,0,
00:03.5,0.001842499,-0.004394531,0.014373779,0,
00:03.5,0.001842499,-0.004394531,0.014373779,0,
00:03.5,0.001842499,-0.004371643,0.014362335,0,
00:03.5,0.001853943,-0.004383087,0.014379501,0,
00:03.5,0.001848221,-0.004394531,0.014379501,0,
00:03.5,0.001842499,-0.004388809,0.014385223,0,
00:03.5,0.001831055,-0.004394531,0.014379501,0,
00:03.6,0.001831055,-0.004394531,0.014373779,0,
00:03.6,0.001848221,-0.004388809,0.014368057,0,
00:03.6,0.001836777,-0.004383087,0.014373779,0,
00:03.6,0.001842499,-0.004371643,0.014373779,0,
00:03.6,0.001842499,-0.004371643,0.014368057,0,
00:03.6,0.001836777,-0.004394531,0.014368057,0,
00:03.6,0.001819611,-0.004405975,0.014379501,0,
00:03.6,0.001831055,-0.004394531,0.014373779,0,
00:03.6,0.001831055,-0.004383087,0.014368057,0,
00:03.6,0.001836777,-0.004371643,0.014356613,0,
00:03.6,0.001836777,-0.004371643,0.014356613,0,
00:03.6,0.001848221,-0.004365921,0.014373779,0,
00:03.6,0.001842499,-0.004360199,0.014373779,0,
00:03.6,0.001836777,-0.004365921,0.014362335,0,
00:03.6,0.001825333,-0.004377365,0.014373779,0,
00:03.6,0.001825333,-0.004383087,0.014373779,0,
00:03.6,0.001831055,-0.004394531,0.014368057,0,
00:03.6,0.001836777,-0.004377365,0.014356613,0,
00:03.6,0.001842499,-0.004365921,0.014362335,0,
00:03.6,0.001836777,-0.004371643,0.014373779,0,
00:03.6,0.001831055,-0.004371643,0.014379501,0,
00:03.6,0.001836777,-0.004371643,0.014373779,0,
00:03.6,0.001836777,-0.004377365,0.014373779,0,
00:03.6,0.001819611,-0.004383087,0.014356613,0,
00:03.6,0.001825333,-0.004383087,0.014362335,0,
00:03.7,0.001836777,-0.004365921,0.014368057,0,
00:03.7,0.001819611,-0.004377365,0.014362335,0,
00:03.7,0.001825333,-0.004365921,0.014373779,0,
00:03.7,0.001831055,-0.004354477,0.014368057,0,
00:03.7,0.001825333,-0.004371643,0.014356613,0,
00:03.7,0.001825333,-0.004377365,0.014362335,0,
00:03.7,0.001831055,-0.004365921,0.014368057,0,
00:03.7,0.001825333,-0.004360199,0.014362335,0,
00:03.7,0.001825333,-0.004360199,0.014368057,0,
00:03.7,0.001831055,-0.004371643,0.014362335,0,
00:03.7,0.001831055,-0.004377365,0.014356613,0,
00:03.7,0.001819611,-0.004377365,0.014362335,0,
00:03.7,0.001813889,-0.004365921,0.014356613,0,
00:03.7,0.001819611,-0.004360199,0.014362335,0,
00:03.7,0.001836777,-0.004348755,0.014356613,0,
00:03.7,0.001836777,-0.004354477,0.014339447,0,
00:03.7,0.001831055,-0.004365921,0.014368057,0,
00:03.7,0.001825333,-0.004371643,0.014373779,0,
00:03.7,0.001819611,-0.004360199,0.014356613,0,
00:03.7,0.001819611,-0.004360199,0.014350891,0,
00:03.7,0.001819611,-0.004371643,0.014350891,0,
00:03.7,0.001819611,-0.004360199,0.014356613,0,
00:03.7,0.001819611,-0.004365921,0.014368057,0,
00:03.7,0.001842499,-0.004377365,0.014356613,0,
00:03.7,0.001825333,-0.004377365,0.014356613,0,
00:03.8,0.001808167,-0.004371643,0.014362335,0,
00:03.8,0.001813889,-0.004360199,0.014350891,0,
00:03.8,0.001825333,-0.004365921,0.014356613,0,
00:03.8,0.001831055,-0.004348755,0.014350891,0,
00:03.8,0.001819611,-0.004365921,0.014356613,0,
00:03.8,0.001819611,-0.004360199,0.014356613,0,
00:03.8,0.001819611,-0.004360199,0.014350891,0,
00:03.8,0.001819611,-0.004354477,0.014345169,0,
00:03.8,0.001813889,-0.004360199,0.014345169,0,
00:03.8,0.001825333,-0.004360199,0.014356613,0,
00:03.8,0.001831055,-0.004360199,0.014345169,0,
00:03.8,0.001819611,-0.004365921,0.014350891,0,
00:03.8,0.001813889,-0.004377365,0.014350891,0,
00:03.8,0.001813889,-0.004371643,0.014350891,0,
00:03.8,0.001802444,-0.004371643,0.014345169,0,
00:03.8,0.001813889,-0.004354477,0.014345169,0,
00:03.8,0.001836777,-0.004343033,0.014345169,0,
00:03.8,0.001836777,-0.004343033,0.014339447,0,
00:03.8,0.001831055,-0.004365921,0.014350891,0,
00:03.8,0.001813889,-0.004383087,0.014345169,0,
00:03.8,0.001808167,-0.004377365,0.014345169,0,
00:03.8,0.001819611,-0.004360199,0.014333725,0,
00:03.8,0.001819611,-0.004360199,0.014350891,0,
00:03.8,0.001819611,-0.004354477,0.014350891,0,
00:03.8,0.001813889,-0.004360199,0.014339447,0,
00:03.9,0.001813889,-0.004360199,0.014328003,0,
00:03.9,0.001819611,-0.004360199,0.014339447,0,
00:03.9,0.001819611,-0.004365921,0.014350891,0,
00:03.9,0.001819611,-0.004365921,0.014345169,0,
00:03.9,0.001819611,-0.004354477,0.014339447,0,
00:03.9,0.001813889,-0.004371643,0.014356613,0,
00:03.9,0.001819611,-0.004371643,0.014339447,0,
00:03.9,0.001813889,-0.004365921,0.014333725,0,
00:03.9,0.001819611,-0.004343033,0.014333725,0,
00:03.9,0.001825333,-0.004348755,0.014333725,0,
00:03.9,0.001819611,-0.004360199,0.014333725,0,
00:03.9,0.001813889,-0.004360199,0.014333725,0,
00:03.9,0.001819611,-0.004365921,0.014345169,0,
00:03.9,0.001813889,-0.004371643,0.014339447,0,
00:03.9,0.001808167,-0.004365921,0.014339447,0,
00:03.9,0.001813889,-0.004365921,0.014339447,0,
00:03.9,0.001813889,-0.004360199,0.014333725,0,
00:03.9,0.001813889,-0.004371643,0.014333725,0,
00:03.9,0.001813889,-0.004371643,0.014333725,0,
00:03.9,0.001808167,-0.004371643,0.014333725,0,
00:03.9,0.001813889,-0.004360199,0.014328003,0,
00:03.9,0.001813889,-0.004365921,0.014316559,0,
00:03.9,0.001819611,-0.004365921,0.014339447,0,
00:03.9,0.001808167,-0.004365921,0.014333725,0,
00:03.9,0.001813889,-0.004360199,0.014322281,0,
00:04.0,0.001813889,-0.004360199,0.014322281,0,
00:04.0,0.001808167,-0.004377365,0.014339447,0,
00:04.0,0.001802444,-0.004377365,0.014339447,0,
00:04.0,0.001802444,-0.004371643,0.014322281,0,
00:04.0,0.001802444,-0.004365921,0.014316559,0,
00:04.0,0.001819611,-0.004348755,0.014322281,0,
00:04.0,0.001825333,-0.004343033,0.014328003,0,
00:04.0,0.001819611,-0.004343033,0.014322281,0,
00:04.0,0.001802444,-0.004348755,0.014328003,0,
00:04.0,0.001802444,-0.004371643,0.014322281,0,
00:04.0,0.001802444,-0.004377365,0.014328003,0,
00:04.0,0.001813889,-0.004360199,0.014328003,0,
00:00:04,0.001819611,-0.004343033,0.014322281,0,
00:04.0,0.001813889,-0.004348755,0.014316559,0,
00:04.0,0.001819611,-0.004348755,0.014310837,0,
00:04.0,0.001825333,-0.004348755,0.014310837,0,
00:04.0,0.001819611,-0.004360199,0.014316559,0,
00:04.0,0.001808167,-0.004365921,0.014310837,0,
00:04.0,0.001802444,-0.004365921,0.014322281,0,
00:04.0,0.001802444,-0.004365921,0.014310837,0,
00:04.0,0.001813889,-0.004360199,0.014293671,0,
00:04.0,0.001808167,-0.004371643,0.014305115,0,
00:04.0,0.001808167,-0.004365921,0.014322281,0,
00:04.0,0.001802444,-0.004348755,0.014328003,0,
00:04.0,0.001808167,-0.004354477,0.014310837,0,
00:04.1,0.001796722,-0.004371643,0.014316559,0,
00:04.1,0.001808167,-0.004354477,0.014310837,0,
00:04.1,0.001808167,-0.004348755,0.014310837,0,
00:04.1,0.001813889,-0.004337311,0.014310837,0,
00:04.1,0.001808167,-0.004343033,0.014305115,0,
00:04.1,0.001808167,-0.004354477,0.014305115,0,
00:04.1,0.001813889,-0.004348755,0.014310837,0,
00:04.1,0.001813889,-0.004343033,0.014310837,0,
00:04.1,0.001808167,-0.004354477,0.014305115,0,
00:04.1,0.001802444,-0.004371643,0.014305115,0,
00:04.1,0.001796722,-0.004377365,0.014305115,0,
00:04.1,0.001802444,-0.004365921,0.014305115,0,
00:04.1,0.001802444,-0.004348755,0.014310837,0,
00:04.1,0.001808167,-0.004348755,0.014305115,0,
00:04.1,0.001808167,-0.004354477,0.014305115,0,
00:04.1,0.001802444,-0.004354477,0.014305115,0,
00:04.1,0.001791,-0.004371643,0.014305115,0,
00:04.1,0.001796722,-0.004360199,0.014310837,0,
00:04.1,0.001808167,-0.004354477,0.014305115,0,
00:04.1,0.001819611,-0.004360199,0.014299393,0,
00:04.1,0.001808167,-0.004354477,0.014299393,0,
00:04.1,0.001808167,-0.004343033,0.014305115,0,
00:04.1,0.001802444,-0.004348755,0.014299393,0,
00:04.1,0.001802444,-0.004354477,0.014299393,0,
00:04.1,0.001802444,-0.004371643,0.014293671,0,
00:04.2,0.001802444,-0.004365921,0.014287949,0,
00:04.2,0.001808167,-0.004337311,0.014310837,0,
00:04.2,0.001813889,-0.004325867,0.014305115,0,
00:04.2,0.001808167,-0.004337311,0.014293671,0,
00:04.2,0.001808167,-0.004348755,0.014299393,0,
00:04.2,0.001808167,-0.004354477,0.014299393,0,
00:04.2,0.001802444,-0.004360199,0.014293671,0,
00:04.2,0.001808167,-0.004348755,0.014299393,0,
00:04.2,0.001808167,-0.004348755,0.014310837,0,
00:04.2,0.001796722,-0.004365921,0.014282227,0,
00:04.2,0.001791,-0.004360199,0.014293671,0,
00:04.2,0.001796722,-0.004354477,0.014305115,0,
00:04.2,0.001802444,-0.004354477,0.014299393,0,
00:04.2,0.001808167,-0.004348755,0.014299393,0,
00:04.2,0.001802444,-0.004337311,0.014287949,0,
00:04.2,0.001802444,-0.004348755,0.014287949,0,
00:04.2,0.001791,-0.004360199,0.014305115,0,
00:04.2,0.001796722,-0.004348755,0.014305115,0,
00:04.2,0.001791,-0.004360199,0.014293671,0,
00:04.2,0.001791,-0.004383087,0.014287949,0,
00:04.2,0.001779556,-0.004371643,0.014287949,0,
00:04.2,0.001791,-0.004348755,0.014293671,0,
00:04.2,0.001808167,-0.004343033,0.014293671,0,
00:04.2,0.001785278,-0.004354477,0.014287949,0,
00:04.2,0.001791,-0.004348755,0.014287949,0,
00:04.3,0.001785278,-0.004348755,0.014282227,0,
00:04.3,0.001796722,-0.004337311,0.014276505,0,
00:04.3,0.001808167,-0.004337311,0.014287949,0,
00:04.3,0.001802444,-0.004348755,0.014299393,0,
00:04.3,0.001785278,-0.004365921,0.014287949,0,
00:04.3,0.001796722,-0.004360199,0.014287949,0,
00:04.3,0.001802444,-0.004354477,0.014287949,0,
00:04.3,0.001791,-0.004348755,0.014282227,0,
00:04.3,0.001791,-0.004354477,0.014276505,0,
00:04.3,0.001791,-0.004360199,0.014270782,0,
00:04.3,0.001791,-0.004365921,0.014282227,0,
00:04.3,0.001785278,-0.004348755,0.014276505,0,
00:04.3,0.001791,-0.004348755,0.014276505,0,
00:04.3,0.001796722,-0.004343033,0.014270782,0,
00:04.3,0.001796722,-0.004354477,0.014282227,0,
00:04.3,0.001791,-0.004354477,0.014276505,0,
00:04.3,0.001791,-0.004360199,0.014282227,0,
00:04.3,0.001785278,-0.004360199,0.014282227,0,
00:04.3,0.001779556,-0.004354477,0.014276505,0,
00:04.3,0.001773834,-0.004365921,0.014276505,0,
00:04.3,0.001785278,-0.004360199,0.014276505,0,
00:04.3,0.001796722,-0.004343033,0.014276505,0,
00:04.3,0.001796722,-0.004337311,0.014282227,0,
00:04.3,0.001791,-0.004348755,0.014282227,0,
00:04.3,0.001802444,-0.004343033,0.014270782,0,
00:04.4,0.001796722,-0.004337311,0.014270782,0,
00:04.4,0.001779556,-0.004343033,0.014276505,0,
00:04.4,0.001779556,-0.004343033,0.014276505,0,
00:04.4,0.001785278,-0.004343033,0.014276505,0,
00:04.4,0.001791,-0.004360199,0.01426506,0,
00:04.4,0.001779556,-0.004371643,0.014253616,0,
00:04.4,0.001785278,-0.004354477,0.014270782,0,
00:04.4,0.001791,-0.004343033,0.014276505,0,
00:04.4,0.001791,-0.004343033,0.014276505,0,
00:04.4,0.001785278,-0.004354477,0.014270782,0,
00:04.4,0.001779556,-0.004365921,0.01426506,0,
00:04.4,0.001779556,-0.004360199,0.01426506,0,
00:04.4,0.001779556,-0.004348755,0.01426506,0,
00:04.4,0.001779556,-0.004343033,0.014259338,0,
00:04.4,0.001785278,-0.004343033,0.014253616,0,
00:04.4,0.001785278,-0.004337311,0.014253616,0,
00:04.4,0.001779556,-0.004354477,0.014270782,0,
00:04.4,0.001773834,-0.004365921,0.01426506,0,
00:04.4,0.001785278,-0.004360199,0.014270782,0,
00:04.4,0.001779556,-0.004360199,0.014270782,0,
00:04.4,0.001779556,-0.004354477,0.014253616,0,
00:04.4,0.001791,-0.004343033,0.014259338,0,
00:04.4,0.001773834,-0.004354477,0.014270782,0,
00:04.4,0.00176239,-0.004354477,0.01426506,0,
00:04.4,0.001779556,-0.004348755,0.014259338,0,
00:04.5,0.001796722,-0.004337311,0.014253616,0,
00:04.5,0.001791,-0.004331589,0.01426506,0,
00:04.5,0.001773834,-0.004331589,0.014259338,0,
00:04.5,0.001779556,-0.004343033,0.01426506,0,
00:04.5,0.001779556,-0.004348755,0.014242172,0,
00:04.5,0.001768112,-0.004354477,0.014247894,0,
00:04.5,0.001768112,-0.004360199,0.014270782,0,
00:04.5,0.001773834,-0.004360199,0.014259338,0,
00:04.5,0.001773834,-0.004343033,0.01426506,0,
00:04.5,0.001779556,-0.004343033,0.014259338,0,
00:04.5,0.001779556,-0.004343033,0.01426506,0,
00:04.5,0.00176239,-0.004343033,0.014259338,0,
00:04.5,0.00176239,-0.004360199,0.01426506,0,
00:04.5,0.00176239,-0.004365921,0.014253616,0,
00:04.5,0.001773834,-0.004354477,0.014242172,0,
00:04.5,0.001773834,-0.004348755,0.014253616,0,
00:04.5,0.00176239,-0.004354477,0.014259338,0,
00:04.5,0.001773834,-0.004354477,0.014259338,0,
00:04.5,0.001773834,-0.004348755,0.014247894,0,
00:04.5,0.001768112,-0.004354477,0.014247894,0,
00:04.5,0.00176239,-0.004354477,0.014247894,0,
00:04.5,0.00176239,-0.004343033,0.014259338,0,
00:04.5,0.001773834,-0.004331589,0.014242172,0,
00:04.5,0.001773834,-0.004348755,0.014253616,0,
00:04.5,0.001750946,-0.004360199,0.014247894,0,
00:04.6,0.00176239,-0.004348755,0.014230728,0,
00:04.6,0.001773834,-0.004337311,0.014253616,0,
00:04.6,0.001779556,-0.004331589,0.014242172,0,
00:04.6,0.001768112,-0.004343033,0.014230728,0,
00:04.6,0.00176239,-0.004360199,0.014247894,0,
00:04.6,0.001756668,-0.004354477,0.014247894,0,
00:04.6,0.00176239,-0.004343033,0.014247894,0,
00:04.6,0.001768112,-0.004337311,0.014247894,0,
00:04.6,0.00176239,-0.004331589,0.014242172,0,
00:04.6,0.001756668,-0.004348755,0.014242172,0,
00:04.6,0.001756668,-0.004360199,0.01423645,0,
00:04.6,0.001750946,-0.004354477,0.014242172,0,
00:04.6,0.001745224,-0.004348755,0.014242172,0,
00:04.6,0.001750946,-0.004354477,0.01423645,0,
00:04.6,0.001750946,-0.004365921,0.01423645,0,
00:04.6,0.001739502,-0.004360199,0.01423645,0,
00:04.6,0.001750946,-0.004360199,0.014247894,0,
00:04.6,0.001750946,-0.004360199,0.014242172,0,
00:04.6,0.001750946,-0.004354477,0.01423645,0,
00:04.6,0.001750946,-0.004348755,0.014230728,0,
00:04.6,0.001750946,-0.004360199,0.014230728,0,
00:04.6,0.001750946,-0.004360199,0.01423645,0,
00:04.6,0.001745224,-0.004343033,0.01423645,0,
00:04.6,0.001750946,-0.004337311,0.014225006,0,
00:04.6,0.001750946,-0.004360199,0.014225006,0,
00:04.7,0.001750946,-0.004354477,0.014242172,0,
00:04.7,0.001745224,-0.004343033,0.014242172,0,
00:04.7,0.001750946,-0.004331589,0.014242172,0,
00:04.7,0.001756668,-0.004348755,0.014230728,0,
00:04.7,0.001750946,-0.004360199,0.014225006,0,
00:04.7,0.001750946,-0.004343033,0.014225006,0,
00:04.7,0.00176239,-0.004331589,0.014230728,0,
00:04.7,0.001739502,-0.004354477,0.014230728,0,
00:04.7,0.001739502,-0.004360199,0.014230728,0,
00:04.7,0.001750946,-0.004354477,0.014230728,0,
00:04.7,0.001750946,-0.004354477,0.014230728,0,
00:04.7,0.001739502,-0.004371643,0.01423645,0,
00:04.7,0.001739502,-0.004365921,0.01423645,0,
00:04.7,0.001739502,-0.004348755,0.014225006,0,
00:04.7,0.001750946,-0.004354477,0.014225006,0,
00:04.7,0.001745224,-0.004354477,0.01420784,0,
00:04.7,0.001739502,-0.004348755,0.014230728,0,
00:04.7,0.001745224,-0.004348755,0.014242172,0,
00:04.7,0.001745224,-0.004354477,0.014225006,0,
00:04.7,0.001745224,-0.004348755,0.01420784,0,
00:04.7,0.001739502,-0.004360199,0.01423645,0,
00:04.7,0.001728058,-0.004377365,0.01423645,0,
00:04.7,0.001722336,-0.004365921,0.01423645,0,
00:04.7,0.00173378,-0.004360199,0.01423645,0,
00:04.7,0.001745224,-0.004354477,0.014225006,0,
00:04.8,0.001745224,-0.004343033,0.014225006,0,
00:04.8,0.001745224,-0.004343033,0.014230728,0,
00:04.8,0.001739502,-0.004354477,0.014219284,0,
00:04.8,0.00173378,-0.004365921,0.014219284,0,
00:04.8,0.001728058,-0.004371643,0.014219284,0,
00:04.8,0.001728058,-0.004377365,0.014225006,0,
00:04.8,0.00173378,-0.004360199,0.014219284,0,
00:04.8,0.001739502,-0.004354477,0.014219284,0,
00:04.8,0.001739502,-0.004360199,0.014225006,0,
00:04.8,0.00173378,-0.004360199,0.014219284,0,
00:04.8,0.00173378,-0.004371643,0.014219284,0,
00:04.8,0.00173378,-0.004371643,0.014225006,0,
00:04.8,0.00173378,-0.004365921,0.014225006,0,
00:04.8,0.00173378,-0.004354477,0.014225006,0,
00:04.8,0.001728058,-0.004360199,0.01420784,0,
00:04.8,0.001739502,-0.004348755,0.014219284,0,
00:04.8,0.00173378,-0.004354477,0.014219284,0,
00:04.8,0.001739502,-0.004365921,0.014230728,0,
00:04.8,0.001728058,-0.004365921,0.014225006,0,
00:04.8,0.001716614,-0.004360199,0.014202118,0,
00:04.8,0.001716614,-0.004377365,0.014202118,0,
00:04.8,0.001722336,-0.004383087,0.014225006,0,
00:04.8,0.001722336,-0.004383087,0.014225006,0,
00:04.8,0.001728058,-0.004365921,0.014213562,0,
00:04.8,0.001728058,-0.004371643,0.014213562,0,
00:04.9,0.001728058,-0.004371643,0.014213562,0,
00:04.9,0.00173378,-0.004371643,0.014225006,0,
00:04.9,0.001722336,-0.004371643,0.014219284,0,
00:04.9,0.001716614,-0.004377365,0.014219284,0,
00:04.9,0.001722336,-0.004371643,0.014213562,0,
00:04.9,0.001728058,-0.004377365,0.01420784,0,
00:04.9,0.001716614,-0.004383087,0.01420784,0,
00:04.9,0.001716614,-0.004388809,0.014213562,0,
00:04.9,0.001728058,-0.004383087,0.014219284,0,
00:04.9,0.001728058,-0.004383087,0.014219284,0,
00:04.9,0.001722336,-0.004383087,0.014219284,0,
00:04.9,0.001722336,-0.004383087,0.014219284,0,
00:04.9,0.001716614,-0.004383087,0.014219284,0,
00:04.9,0.001710892,-0.004383087,0.014225006,0,
00:04.9,0.001710892,-0.004383087,0.014219284,0,
00:04.9,0.001722336,-0.004383087,0.014219284,0,
00:04.9,0.001716614,-0.004383087,0.014219284,0,
00:04.9,0.001722336,-0.004388809,0.014213562,0,
00:04.9,0.001722336,-0.004394531,0.014219284,0,
00:04.9,0.001716614,-0.004383087,0.014213562,0,
00:04.9,0.001722336,-0.004383087,0.01420784,0,
00:04.9,0.001710892,-0.004405975,0.014225006,0,
00:04.9,0.001699448,-0.004423141,0.014225006,0,
00:04.9,0.001699448,-0.004417419,0.01420784,0,
00:04.9,0.001710892,-0.004388809,0.014213562,0,
00:05.0,0.001716614,-0.004394531,0.014219284,0,
00:05.0,0.001716614,-0.004400253,0.014219284,0,
00:05.0,0.001710892,-0.004388809,0.014219284,0,
00:05.0,0.001710892,-0.004394531,0.014213562,0,
00:05.0,0.00170517,-0.004423141,0.014225006,0,
00:05.0,0.001699448,-0.004417419,0.014230728,0,
00:05.0,0.00170517,-0.004405975,0.014225006,0,
00:05.0,0.001699448,-0.004417419,0.014230728,0,
00:05.0,0.00170517,-0.004417419,0.014225006,0,
00:05.0,0.001699448,-0.004423141,0.01420784,0,
00:05.0,0.001710892,-0.004400253,0.014213562,0,
00:05.0,0.001699448,-0.004405975,0.014219284,0,
00:00:05,0.001710892,-0.004405975,0.014230728,0,
00:05.0,0.001699448,-0.004405975,0.014219284,0,
00:05.0,0.001716614,-0.004405975,0.014213562,0,
00:05.0,0.001710892,-0.004423141,0.014219284,0,
00:05.0,0.001699448,-0.004428864,0.014225006,0,
00:05.0,0.00170517,-0.004423141,0.014225006,0,
00:05.0,0.00170517,-0.004423141,0.014219284,0,
00:05.0,0.001710892,-0.004417419,0.014213562,0,
00:05.0,0.001710892,-0.004411697,0.014219284,0,
00:05.0,0.001699448,-0.004434586,0.014225006,0,
00:05.0,0.001688004,-0.004451752,0.014225006,0,
00:05.0,0.001693726,-0.004457474,0.014225006,0,
00:05.0,0.001688004,-0.004451752,0.014213562,0,
00:05.1,0.001693726,-0.00444603,0.014219284,0,
00:05.1,0.001699448,-0.00444603,0.014213562,0,
00:05.1,0.001699448,-0.004440308,0.014225006,0,
00:05.1,0.001699448,-0.004434586,0.014225006,0,
00:05.1,0.001699448,-0.004428864,0.014219284,0,
00:05.1,0.001688004,-0.004457474,0.014219284,0,
00:05.1,0.001688004,-0.004463196,0.014225006,0,
00:05.1,0.001688004,-0.004463196,0.014230728,0,
00:05.1,0.001693726,-0.004463196,0.014219284,0,
00:05.1,0.001693726,-0.004463196,0.01420784,0,
00:05.1,0.001688004,-0.004451752,0.014219284,0,
00:05.1,0.001688004,-0.004457474,0.014219284,0,
00:05.1,0.001693726,-0.00444603,0.01423645,0,
00:05.1,0.001693726,-0.00444603,0.014230728,0,
00:05.1,0.001688004,-0.004463196,0.014219284,0,
00:05.1,0.00170517,-0.004463196,0.014219284,0,
00:05.1,0.001699448,-0.004457474,0.014225006,0,
00:05.1,0.001693726,-0.004451752,0.01423645,0,
00:05.1,0.001693726,-0.004457474,0.014230728,0,
00:05.1,0.001693726,-0.004463196,0.014219284,0,
00:05.1,0.001693726,-0.004480362,0.014225006,0,
00:05.1,0.001693726,-0.004480362,0.014230728,0,
00:05.1,0.001688004,-0.004480362,0.014225006,0,
00:05.1,0.001682281,-0.004480362,0.014219284,0,
00:05.1,0.001682281,-0.004491806,0.014225006,0,
00:05.2,0.001688004,-0.004486084,0.014225006,0,
00:05.2,0.001682281,-0.004480362,0.014230728,0,
00:05.2,0.001688004,-0.00447464,0.014230728,0,
00:05.2,0.001682281,-0.004468918,0.014230728,0,
00:05.2,0.001682281,-0.00447464,0.014230728,0,
00:05.2,0.001693726,-0.00447464,0.014219284,0,
00:05.2,0.001693726,-0.004486084,0.01423645,0,
00:05.2,0.001682281,-0.004497528,0.01423645,0,
00:05.2,0.001670837,-0.004497528,0.01423645,0,
00:05.2,0.001676559,-0.00450325,0.014225006,0,
00:05.2,0.001670837,-0.004508972,0.014230728,0,
00:05.2,0.001676559,-0.004520416,0.014219284,0,
00:05.2,0.001676559,-0.004520416,0.01423645,0,
00:05.2,0.001676559,-0.00450325,0.01423645,0,
00:05.2,0.001682281,-0.004491806,0.01423645,0,
00:05.2,0.001682281,-0.00450325,0.01423645,0,
00:05.2,0.001693726,-0.00450325,0.014242172,0,
00:05.2,0.001682281,-0.004514694,0.014242172,0,
00:05.2,0.001670837,-0.004520416,0.014242172,0,
00:05.2,0.001670837,-0.004520416,0.01423645,0,
00:05.2,0.001682281,-0.004514694,0.01423645,0,
00:05.2,0.001682281,-0.004514694,0.014242172,0,
00:05.2,0.001676559,-0.004514694,0.014242172,0,
00:05.2,0.001682281,-0.004514694,0.014247894,0,
00:05.2,0.001670837,-0.00453186,0.01423645,0,
00:05.3,0.001682281,-0.00453186,0.01423645,0,
00:05.3,0.001688004,-0.004520416,0.014230728,0,
00:05.3,0.001682281,-0.004514694,0.014242172,0,
00:05.3,0.001688004,-0.004514694,0.014247894,0,
00:05.3,0.001676559,-0.00453186,0.014253616,0,
00:05.3,0.001676559,-0.004537582,0.014253616,0,
00:05.3,0.001676559,-0.004543304,0.014253616,0,
00:05.3,0.001670837,-0.004543304,0.014247894,0,
00:05.3,0.001670837,-0.004526138,0.014242172,0,
00:05.3,0.001670837,-0.004526138,0.014242172,0,
00:05.3,0.001670837,-0.004549026,0.014242172,0,
00:05.3,0.001670837,-0.004554749,0.014259338,0,
00:05.3,0.001670837,-0.004543304,0.014259338,0,
00:05.3,0.001670837,-0.00453186,0.014253616,0,
00:05.3,0.001682281,-0.004537582,0.014247894,0,
00:05.3,0.001676559,-0.004543304,0.014253616,0,
00:05.3,0.001670837,-0.004549026,0.014259338,0,
00:05.3,0.001682281,-0.004537582,0.01426506,0,
00:05.3,0.001688004,-0.004537582,0.014259338,0,
00:05.3,0.001676559,-0.004549026,0.014253616,0,
00:05.3,0.001659393,-0.004566193,0.014253616,0,
00:05.3,0.001665115,-0.004554749,0.014253616,0,
00:05.3,0.001682281,-0.004543304,0.014259338,0,
00:05.3,0.001676559,-0.004554749,0.01426506,0,
00:05.3,0.001670837,-0.004560471,0.01426506,0,
00:05.4,0.001676559,-0.004543304,0.014259338,0,
00:05.4,0.001688004,-0.004549026,0.014270782,0,
00:05.4,0.001676559,-0.004560471,0.01426506,0,
00:05.4,0.001676559,-0.004560471,0.01426506,0,
00:05.4,0.001688004,-0.004560471,0.014247894,0,
00:05.4,0.001665115,-0.004566193,0.014270782,0,
00:05.4,0.001670837,-0.004560471,0.014282227,0,
00:05.4,0.001682281,-0.004554749,0.014270782,0,
00:05.4,0.001682281,-0.004549026,0.014259338,0,
00:05.4,0.001670837,-0.004560471,0.014247894,0,
00:05.4,0.001665115,-0.004566193,0.01426506,0,
00:05.4,0.001676559,-0.004566193,0.014282227,0,
00:05.4,0.001682281,-0.004571915,0.014282227,0,
00:05.4,0.001693726,-0.004560471,0.014259338,0,
00:05.4,0.001670837,-0.004566193,0.014259338,0,
00:05.4,0.001670837,-0.004554749,0.014270782,0,
00:05.4,0.001670837,-0.004571915,0.014287949,0,
00:05.4,0.001682281,-0.004577637,0.014282227,0,
00:05.4,0.001676559,-0.004577637,0.014270782,0,
00:05.4,0.001676559,-0.004571915,0.014276505,0,
00:05.4,0.001676559,-0.004583359,0.014282227,0,
00:05.4,0.001670837,-0.004594803,0.01426506,0,
00:05.4,0.001665115,-0.004589081,0.014276505,0,
00:05.4,0.001670837,-0.004589081,0.014270782,0,
00:05.4,0.001676559,-0.004589081,0.01426506,0,
00:05.5,0.001682281,-0.004589081,0.014270782,0,
00:05.5,0.001676559,-0.004589081,0.014276505,0,
00:05.5,0.001682281,-0.004583359,0.014282227,0,
00:05.5,0.001670837,-0.004594803,0.014282227,0,
00:05.5,0.001670837,-0.004594803,0.014270782,0,
00:05.5,0.001670837,-0.004600525,0.014276505,0,
00:05.5,0.001670837,-0.004600525,0.014276505,0,
00:05.5,0.001670837,-0.004589081,0.014270782,0,
00:05.5,0.001670837,-0.004611969,0.014259338,0,
00:05.5,0.001670837,-0.004623413,0.01426506,0,
00:05.5,0.001676559,-0.004600525,0.014287949,0,
00:05.5,0.001665115,-0.004606247,0.014287949,0,
00:05.5,0.001676559,-0.004617691,0.014287949,0,
00:05.5,0.001682281,-0.004594803,0.014276505,0,
00:05.5,0.001688004,-0.004583359,0.01426506,0,
00:05.5,0.001676559,-0.004600525,0.014276505,0,
00:05.5,0.001665115,-0.004594803,0.014293671,0,
00:05.5,0.001676559,-0.004594803,0.014287949,0,
00:05.5,0.001670837,-0.004617691,0.014282227,0,
00:05.5,0.001682281,-0.004606247,0.014282227,0,
00:05.5,0.001676559,-0.004594803,0.014282227,0,
00:05.5,0.001688004,-0.004589081,0.014276505,0,
00:05.5,0.001688004,-0.004594803,0.014282227,0,
00:05.5,0.001699448,-0.004589081,0.014276505,0,
00:05.5,0.001676559,-0.004629135,0.014270782,0,
00:05.6,0.001682281,-0.004617691,0.014287949,0,
00:05.6,0.001682281,-0.004611969,0.014287949,0,
00:05.6,0.001682281,-0.004611969,0.014282227,0,
00:05.6,0.001688004,-0.004611969,0.014282227,0,
00:05.6,0.001682281,-0.004611969,0.014282227,0,
00:05.6,0.001682281,-0.004623413,0.014287949,0,
00:05.6,0.001676559,-0.004629135,0.014276505,0,
00:05.6,0.001670837,-0.004623413,0.014287949,0,
00:05.6,0.001682281,-0.004617691,0.014282227,0,
00:05.6,0.001693726,-0.004617691,0.014287949,0,
00:05.6,0.001688004,-0.004629135,0.014287949,0,
00:05.6,0.001670837,-0.004646301,0.014282227,0,
00:05.6,0.001665115,-0.004646301,0.014287949,0,
00:05.6,0.001682281,-0.004617691,0.014287949,0,
00:05.6,0.001699448,-0.004606247,0.01426506,0,
00:05.6,0.001693726,-0.004611969,0.014276505,0,
00:05.6,0.001682281,-0.004629135,0.014299393,0,
00:05.6,0.001670837,-0.004640579,0.014293671,0,
00:05.6,0.001676559,-0.004634857,0.014282227,0,
00:05.6,0.001682281,-0.004634857,0.014282227,0,
00:05.6,0.001688004,-0.004623413,0.014287949,0,
00:05.6,0.001693726,-0.004617691,0.01426506,0,
00:05.6,0.001688004,-0.004629135,0.014276505,0,
00:05.6,0.001693726,-0.004629135,0.014293671,0,
00:05.6,0.001688004,-0.004623413,0.014282227,0,
00:05.7,0.001693726,-0.004623413,0.014276505,0,
00:05.7,0.001693726,-0.004623413,0.014282227,0,
00:05.7,0.001699448,-0.004623413,0.014282227,0,
00:05.7,0.001693726,-0.004629135,0.014293671,0,
00:05.7,0.001699448,-0.004623413,0.014287949,0,
00:05.7,0.001682281,-0.004634857,0.014276505,0,
00:05.7,0.001693726,-0.004629135,0.014276505,0,
00:05.7,0.001699448,-0.004623413,0.014276505,0,
00:05.7,0.001688004,-0.004634857,0.014282227,0,
00:05.7,0.001688004,-0.004646301,0.014276505,0,
00:05.7,0.001688004,-0.004646301,0.014287949,0,
00:05.7,0.001688004,-0.004646301,0.014287949,0,
00:05.7,0.001682281,-0.004646301,0.014276505,0,
00:05.7,0.001693726,-0.004640579,0.014276505,0,
00:05.7,0.001693726,-0.004646301,0.014276505,0,
00:05.7,0.001693726,-0.004646301,0.01426506,0,
00:05.7,0.001699448,-0.004634857,0.014270782,0,
00:05.7,0.001688004,-0.004629135,0.01426506,0,
00:05.7,0.001670837,-0.004629135,0.014282227,0,
00:05.7,0.001676559,-0.004629135,0.014270782,0,
00:05.7,0.001682281,-0.004640579,0.014259338,0,
00:05.7,0.001676559,-0.004646301,0.014276505,0,
00:05.7,0.001670837,-0.004640579,0.014282227,0,
00:05.7,0.001676559,-0.004646301,0.014276505,0,
00:05.7,0.001676559,-0.004640579,0.01426506,0,
00:05.8,0.001682281,-0.004629135,0.01426506,0,
00:05.8,0.001682281,-0.004623413,0.014270782,0,
00:05.8,0.001670837,-0.004623413,0.014270782,0,
00:05.8,0.001670837,-0.004629135,0.01426506,0,
00:05.8,0.001670837,-0.004646301,0.014253616,0,
00:05.8,0.001670837,-0.004652023,0.01426506,0,
00:05.8,0.001665115,-0.004646301,0.01426506,0,
00:05.8,0.001670837,-0.004634857,0.014259338,0,
00:05.8,0.001670837,-0.004629135,0.014259338,0,
00:05.8,0.001676559,-0.004623413,0.014253616,0,
00:05.8,0.001676559,-0.004640579,0.014259338,0,
00:05.8,0.001676559,-0.004634857,0.014253616,0,
00:05.8,0.001682281,-0.004623413,0.01426506,0,
00:05.8,0.001682281,-0.004634857,0.014253616,0,
00:05.8,0.001676559,-0.004640579,0.014247894,0,
00:05.8,0.001682281,-0.004634857,0.014253616,0,
00:05.8,0.001682281,-0.004617691,0.014253616,0,
00:05.8,0.001676559,-0.004634857,0.014253616,0,
00:05.8,0.001670837,-0.004640579,0.014253616,0,
00:05.8,0.001682281,-0.004640579,0.014253616,0,
00:05.8,0.001693726,-0.004640579,0.014242172,0,
00:05.8,0.001682281,-0.004634857,0.014242172,0,
00:05.8,0.001682281,-0.004629135,0.014242172,0,
00:05.8,0.001682281,-0.004617691,0.014247894,0,
00:05.8,0.001676559,-0.004629135,0.014259338,0,
00:05.9,0.001676559,-0.004629135,0.014253616,0,
00:05.9,0.001688004,-0.004623413,0.014247894,0,
00:05.9,0.001676559,-0.004640579,0.014242172,0,
00:05.9,0.001670837,-0.004652023,0.014242172,0,
00:05.9,0.001676559,-0.004646301,0.014230728,0,
00:05.9,0.001682281,-0.004634857,0.014230728,0,
00:05.9,0.001670837,-0.004629135,0.01423645,0,
00:05.9,0.001688004,-0.004611969,0.01423645,0,
00:05.9,0.001688004,-0.004617691,0.014225006,0,
00:05.9,0.001676559,-0.004634857,0.014230728,0,
00:05.9,0.001682281,-0.004629135,0.01423645,0,
00:05.9,0.001688004,-0.004629135,0.01423645,0,
00:05.9,0.001688004,-0.004629135,0.014225006,0,
00:05.9,0.001682281,-0.004623413,0.014225006,0,
00:05.9,0.001682281,-0.004617691,0.014213562,0,
00:05.9,0.001693726,-0.004629135,0.014213562,0,
00:05.9,0.001699448,-0.004623413,0.014225006,0,
00:05.9,0.001688004,-0.004629135,0.014219284,0,
00:05.9,0.001688004,-0.004623413,0.014213562,0,
00:05.9,0.001682281,-0.004629135,0.014213562,0,
00:05.9,0.001688004,-0.004617691,0.01420784,0,
00:05.9,0.001688004,-0.004617691,0.014219284,0,
00:05.9,0.001682281,-0.004634857,0.014213562,0,
00:05.9,0.001688004,-0.004623413,0.014190674,0,
00:05.9,0.001682281,-0.004623413,0.014213562,0,
00:06.0,0.001682281,-0.004623413,0.014213562,0,
00:06.0,0.001699448,-0.004611969,0.01420784,0,
00:06.0,0.001688004,-0.004617691,0.014202118,0,
00:06.0,0.001682281,-0.004629135,0.014202118,0,
00:06.0,0.001682281,-0.004640579,0.014196396,0,
00:06.0,0.001688004,-0.004652023,0.014196396,0,
00:06.0,0.001682281,-0.004640579,0.014196396,0,
00:06.0,0.001688004,-0.004611969,0.014202118,0,
00:06.0,0.001693726,-0.004611969,0.014184952,0,
00:06.0,0.001682281,-0.004623413,0.014184952,0,
00:06.0,0.001693726,-0.004623413,0.014190674,0,
00:06.0,0.001693726,-0.004606247,0.014196396,0,
00:00:06,0.001699448,-0.004600525,0.014190674,0,
00:06.0,0.001699448,-0.004611969,0.014184952,0,
00:06.0,0.001693726,-0.004629135,0.014173508,0,
00:06.0,0.001682281,-0.004629135,0.014167786,0,
00:06.0,0.001688004,-0.004623413,0.014167786,0,
00:06.0,0.001693726,-0.004623413,0.01417923,0,
00:06.0,0.001682281,-0.004634857,0.014196396,0,
00:06.0,0.001688004,-0.004640579,0.014173508,0,
00:06.0,0.001688004,-0.004634857,0.014167786,0,
00:06.0,0.001682281,-0.004629135,0.014167786,0,
00:06.0,0.001676559,-0.004623413,0.014173508,0,
00:06.0,0.001688004,-0.004606247,0.014167786,0,
00:06.0,0.001699448,-0.004600525,0.014162064,0,
00:06.1,0.001699448,-0.004606247,0.014167786,0,
00:06.1,0.001688004,-0.004617691,0.01417923,0,
00:06.1,0.001688004,-0.004646301,0.014173508,0,
00:06.1,0.001682281,-0.004652023,0.014162064,0,
00:06.1,0.001688004,-0.004634857,0.014156342,0,
00:06.1,0.001688004,-0.004623413,0.014162064,0,
00:06.1,0.001688004,-0.004606247,0.014167786,0,
00:06.1,0.001699448,-0.004600525,0.014156342,0,
00:06.1,0.001693726,-0.004600525,0.014139175,0,
00:06.1,0.001688004,-0.004611969,0.014144897,0,
00:06.1,0.001693726,-0.004617691,0.01415062,0,
00:06.1,0.001688004,-0.004623413,0.014156342,0,
00:06.1,0.001693726,-0.004611969,0.01415062,0,
00:06.1,0.001699448,-0.004617691,0.014144897,0,
00:06.1,0.001699448,-0.004606247,0.014133453,0,
00:06.1,0.001699448,-0.004617691,0.014139175,0,
00:06.1,0.001693726,-0.004611969,0.01415062,0,
00:06.1,0.001693726,-0.004606247,0.014139175,0,
00:06.1,0.001699448,-0.004600525,0.014139175,0,
00:06.1,0.001699448,-0.004611969,0.014127731,0,
00:06.1,0.001688004,-0.004623413,0.014127731,0,
00:06.1,0.001682281,-0.004640579,0.014133453,0,
00:06.1,0.001693726,-0.004634857,0.014122009,0,
00:06.1,0.001693726,-0.004623413,0.014127731,0,
00:06.1,0.001693726,-0.004617691,0.014133453,0,
00:06.2,0.00170517,-0.004606247,0.014122009,0,
00:06.2,0.001688004,-0.004606247,0.014122009,0,
00:06.2,0.001699448,-0.004617691,0.014116287,0,
00:06.2,0.00170517,-0.004617691,0.014110565,0,
00:06.2,0.001693726,-0.004611969,0.014116287,0,
00:06.2,0.001682281,-0.004634857,0.014110565,0,
00:06.2,0.001688004,-0.004617691,0.014116287,0,
00:06.2,0.001699448,-0.004617691,0.014122009,0,
00:06.2,0.001699448,-0.004623413,0.014116287,0,
00:06.2,0.001699448,-0.004600525,0.014110565,0,
00:06.2,0.001699448,-0.004611969,0.014104843,0,
00:06.2,0.001699448,-0.004617691,0.014104843,0,
00:06.2,0.001693726,-0.004611969,0.014099121,0,
00:06.2,0.00170517,-0.004606247,0.014104843,0,
00:06.2,0.00170517,-0.004600525,0.014104843,0,
00:06.2,0.00170517,-0.004617691,0.014099121,0,
00:06.2,0.001699448,-0.004617691,0.014093399,0,
00:06.2,0.001693726,-0.004617691,0.014104843,0,
00:06.2,0.00170517,-0.004611969,0.014093399,0,
00:06.2,0.001710892,-0.004589081,0.014087677,0,
00:06.2,0.00170517,-0.004589081,0.014087677,0,
00:06.2,0.001693726,-0.004606247,0.014087677,0,
00:06.2,0.001693726,-0.004600525,0.014099121,0,
00:06.2,0.00170517,-0.004611969,0.014093399,0,
00:06.2,0.001699448,-0.004606247,0.014076233,0,
00:06.3,0.001693726,-0.004606247,0.014076233,0,
00:06.3,0.001699448,-0.004611969,0.014081955,0,
00:06.3,0.001693726,-0.004611969,0.014087677,0,
00:06.3,0.001693726,-0.004606247,0.014087677,0,
00:06.3,0.00170517,-0.004594803,0.014076233,0,
00:06.3,0.001716614,-0.004589081,0.014064789,0,
00:06.3,0.001710892,-0.004589081,0.014064789,0,
00:06.3,0.00170517,-0.004589081,0.014076233,0,
00:06.3,0.00170517,-0.004589081,0.014076233,0,
00:06.3,0.00170517,-0.004611969,0.014070511,0,
00:06.3,0.001699448,-0.004611969,0.014059067,0,
00:06.3,0.001699448,-0.004606247,0.014064789,0,
00:06.3,0.00170517,-0.004606247,0.014070511,0,
00:06.3,0.00170517,-0.004606247,0.014070511,0,
00:06.3,0.00170517,-0.004617691,0.014053345,0,
00:06.3,0.001699448,-0.004617691,0.014059067,0,
00:06.3,0.001710892,-0.004600525,0.014059067,0,
00:06.3,0.00170517,-0.004594803,0.014059067,0,
00:06.3,0.00170517,-0.004589081,0.014059067,0,
00:06.3,0.001710892,-0.004589081,0.014047623,0,
00:06.3,0.001710892,-0.004594803,0.014047623,0,
00:06.3,0.00170517,-0.004583359,0.014053345,0,
00:06.3,0.001699448,-0.004589081,0.014053345,0,
00:06.3,0.00170517,-0.004606247,0.014041901,0,
00:06.3,0.001710892,-0.004600525,0.014036179,0,
00:06.4,0.001710892,-0.004606247,0.014030457,0,
00:06.4,0.00170517,-0.004606247,0.014036179,0,
00:06.4,0.001699448,-0.004594803,0.014047623,0,
00:06.4,0.001699448,-0.004600525,0.014036179,0,
00:06.4,0.001710892,-0.004594803,0.014030457,0,
00:06.4,0.001710892,-0.004577637,0.014024734,0,
00:06.4,0.001710892,-0.004583359,0.014024734,0,
00:06.4,0.00170517,-0.004606247,0.014036179,0,
00:06.4,0.001699448,-0.004606247,0.014036179,0,
00:06.4,0.00170517,-0.004583359,0.014030457,0,
00:06.4,0.00170517,-0.004589081,0.014024734,0,
00:06.4,0.00170517,-0.004594803,0.01401329,0,
00:06.4,0.00170517,-0.004594803,0.014024734,0,
00:06.4,0.001699448,-0.004594803,0.014030457,0,
00:06.4,0.001716614,-0.004589081,0.01401329,0,
00:06.4,0.001716614,-0.004589081,0.01401329,0,
00:06.4,0.001716614,-0.004571915,0.01401329,0,
00:06.4,0.001710892,-0.004554749,0.014019012,0,
00:06.4,0.001710892,-0.004560471,0.01401329,0,
00:06.4,0.001710892,-0.004583359,0.014007568,0,
00:06.4,0.001710892,-0.004577637,0.014007568,0,
00:06.4,0.001716614,-0.004583359,0.014007568,0,
00:06.4,0.00170517,-0.004594803,0.01401329,0,
00:06.4,0.00170517,-0.004583359,0.014007568,0,
00:06.4,0.001716614,-0.004571915,0.013996124,0,
00:06.5,0.001716614,-0.004571915,0.014001846,0,
00:06.5,0.001710892,-0.004571915,0.014001846,0,
00:06.5,0.001722336,-0.004571915,0.014007568,0,
00:06.5,0.001716614,-0.004583359,0.014001846,0,
00:06.5,0.001710892,-0.004577637,0.013996124,0,
00:06.5,0.001716614,-0.004566193,0.014001846,0,
00:06.5,0.001716614,-0.004571915,0.013996124,0,
00:06.5,0.001710892,-0.004571915,0.014001846,0,
00:06.5,0.001716614,-0.004560471,0.013990402,0,
00:06.5,0.001722336,-0.004560471,0.01398468,0,
00:06.5,0.001716614,-0.004571915,0.013996124,0,
00:06.5,0.00170517,-0.004577637,0.013990402,0,
00:06.5,0.001710892,-0.004583359,0.01398468,0,
00:06.5,0.001710892,-0.004571915,0.013990402,0,
00:06.5,0.001716614,-0.004554749,0.013973236,0,
00:06.5,0.001716614,-0.004554749,0.013978958,0,
00:06.5,0.001710892,-0.004560471,0.013978958,0,
00:06.5,0.001716614,-0.004549026,0.013967514,0,
00:06.5,0.001728058,-0.004543304,0.013973236,0,
00:06.5,0.001710892,-0.004560471,0.013973236,0,
00:06.5,0.001716614,-0.004560471,0.013973236,0,
00:06.5,0.001722336,-0.004554749,0.013973236,0,
00:06.5,0.001716614,-0.004560471,0.013978958,0,
00:06.5,0.001699448,-0.004566193,0.013967514,0,
00:06.5,0.001710892,-0.004560471,0.013967514,0,
00:06.6,0.001710892,-0.004560471,0.013967514,0,
00:06.6,0.00170517,-0.004554749,0.013961792,0,
00:06.6,0.001716614,-0.004554749,0.013973236,0,
00:06.6,0.001722336,-0.004543304,0.013961792,0,
00:06.6,0.001716614,-0.004549026,0.01395607,0,
00:06.6,0.001722336,-0.004543304,0.013961792,0,
00:06.6,0.001716614,-0.004549026,0.013967514,0,
00:06.6,0.001710892,-0.004571915,0.013967514,0,
00:06.6,0.001716614,-0.004571915,0.013950348,0,
00:06.6,0.001710892,-0.004554749,0.013950348,0,
00:06.6,0.001716614,-0.004537582,0.013950348,0,
00:06.6,0.001722336,-0.004549026,0.01395607,0,
00:06.6,0.001722336,-0.004554749,0.013950348,0,
00:06.6,0.001716614,-0.004554749,0.013938904,0,
00:06.6,0.001716614,-0.004554749,0.013950348,0,
00:06.6,0.001716614,-0.004566193,0.013950348,0,
00:06.6,0.001710892,-0.004554749,0.01395607,0,
00:06.6,0.001716614,-0.004543304,0.01395607,0,
00:06.6,0.001710892,-0.00453186,0.013944626,0,
00:06.6,0.001710892,-0.004554749,0.013944626,0,
00:06.6,0.001716614,-0.004549026,0.013944626,0,
00:06.6,0.001710892,-0.004549026,0.013950348,0,
00:06.6,0.001710892,-0.004554749,0.01395607,0,
00:06.6,0.001710892,-0.004554749,0.013944626,0,
00:06.6,0.00170517,-0.004560471,0.013933182,0,
00:06.7,0.001716614,-0.004537582,0.013933182,0,
00:06.7,0.001722336,-0.004520416,0.013938904,0,
00:06.7,0.001716614,-0.004537582,0.013933182,0,
00:06.7,0.001716614,-0.004537582,0.013921738,0,
00:06.7,0.001716614,-0.004537582,0.01392746,0,
00:06.7,0.001716614,-0.004554749,0.013938904,0,
00:06.7,0.00170517,-0.004560471,0.013933182,0,
00:06.7,0.001716614,-0.004537582,0.013933182,0,
00:06.7,0.001710892,-0.004520416,0.01392746,0,
00:06.7,0.001722336,-0.004520416,0.01392746,0,
00:06.7,0.001710892,-0.004537582,0.01392746,0,
00:06.7,0.001710892,-0.00453186,0.013933182,0,
00:06.7,0.001710892,-0.004526138,0.013933182,0,
00:06.7,0.001716614,-0.004537582,0.013921738,0,
00:06.7,0.001722336,-0.004554749,0.013916016,0,
00:06.7,0.001728058,-0.004543304,0.013916016,0,
00:06.7,0.001716614,-0.00453186,0.013910294,0,
00:06.7,0.001710892,-0.00453186,0.01392746,0,
00:06.7,0.001716614,-0.00453186,0.01392746,0,
00:06.7,0.001716614,-0.00453186,0.013921738,0,
00:06.7,0.001716614,-0.00453186,0.013916016,0,
00:06.7,0.001728058,-0.004526138,0.013921738,0,
00:06.7,0.001722336,-0.004520416,0.013910294,0,
00:06.7,0.001716614,-0.004526138,0.013910294,0,
00:06.7,0.001722336,-0.004526138,0.013898849,0,
00:06.8,0.001728058,-0.004526138,0.013898849,0,
00:06.8,0.001716614,-0.00453186,0.01392746,0,
00:06.8,0.001710892,-0.004537582,0.013933182,0,
00:06.8,0.001710892,-0.00453186,0.013921738,0,
00:06.8,0.001722336,-0.004520416,0.013910294,0,
00:06.8,0.001716614,-0.004520416,0.013916016,0,
00:06.8,0.001716614,-0.004520416,0.013916016,0,
00:06.8,0.001722336,-0.004514694,0.013910294,0,
00:06.8,0.00173378,-0.004508972,0.013904572,0,
00:06.8,0.001728058,-0.004520416,0.013904572,0,
00:06.8,0.001728058,-0.004514694,0.013910294,0,
00:06.8,0.001716614,-0.00450325,0.013916016,0,
00:06.8,0.001710892,-0.004520416,0.013910294,0,
00:06.8,0.001716614,-0.004514694,0.013910294,0,
00:06.8,0.001722336,-0.004508972,0.013898849,0,
00:06.8,0.001722336,-0.004514694,0.013893127,0,
00:06.8,0.001722336,-0.004520416,0.013898849,0,
00:06.8,0.001722336,-0.004520416,0.013904572,0,
00:06.8,0.001722336,-0.004508972,0.013898849,0,
00:06.8,0.001728058,-0.004491806,0.013893127,0,
00:06.8,0.001722336,-0.00450325,0.013898849,0,
00:06.8,0.001710892,-0.004514694,0.013893127,0,
00:06.8,0.001716614,-0.004520416,0.013904572,0,
00:06.8,0.001716614,-0.004514694,0.013898849,0,
00:06.8,0.001716614,-0.004514694,0.013898849,0,
00:06.9,0.001728058,-0.004491806,0.013887405,0,
00:06.9,0.00173378,-0.004480362,0.013887405,0,
00:06.9,0.001722336,-0.004486084,0.013910294,0,
00:06.9,0.001716614,-0.004508972,0.013904572,0,
00:06.9,0.001722336,-0.00450325,0.013893127,0,
00:06.9,0.001716614,-0.004514694,0.013887405,0,
00:06.9,0.001722336,-0.004508972,0.013893127,0,
00:06.9,0.001716614,-0.004508972,0.013898849,0,
00:06.9,0.001710892,-0.004514694,0.013904572,0,
00:06.9,0.001728058,-0.00450325,0.013898849,0,
00:06.9,0.001722336,-0.004491806,0.013887405,0,
00:06.9,0.001716614,-0.004497528,0.013893127,0,
00:06.9,0.001716614,-0.004508972,0.013887405,0,
00:06.9,0.001716614,-0.004508972,0.013881683,0,
00:06.9,0.001716614,-0.00450325,0.013881683,0,
00:06.9,0.001710892,-0.004508972,0.013887405,0,
00:06.9,0.001710892,-0.00450325,0.013887405,0,
00:06.9,0.001728058,-0.004480362,0.013881683,0,
00:06.9,0.001722336,-0.004486084,0.013887405,0,
00:06.9,0.001710892,-0.004514694,0.013898849,0,
00:06.9,0.001710892,-0.004508972,0.013893127,0,
00:06.9,0.001722336,-0.004508972,0.013887405,0,
00:06.9,0.001722336,-0.004497528,0.013893127,0,
00:06.9,0.001710892,-0.004497528,0.013881683,0,
00:06.9,0.001716614,-0.004497528,0.013870239,0,
00:07.0,0.00173378,-0.004491806,0.013870239,0,
00:07.0,0.001728058,-0.004480362,0.013898849,0,
00:07.0,0.001728058,-0.004480362,0.013887405,0,
00:07.0,0.001722336,-0.004486084,0.013887405,0,
00:07.0,0.001716614,-0.004486084,0.013887405,0,
00:07.0,0.001722336,-0.00447464,0.013893127,0,
00:07.0,0.001728058,-0.004486084,0.013887405,0,
00:07.0,0.001728058,-0.004480362,0.013875961,0,
00:07.0,0.001728058,-0.004468918,0.013875961,0,
00:07.0,0.001722336,-0.004486084,0.013875961,0,
00:07.0,0.001716614,-0.004497528,0.013887405,0,
00:07.0,0.001716614,-0.004497528,0.013887405,0,
00:00:07,0.001710892,-0.004491806,0.013887405,0,
00:07.0,0.001722336,-0.004486084,0.013881683,0,
00:07.0,0.001728058,-0.00447464,0.013875961,0,
00:07.0,0.001728058,-0.00447464,0.013881683,0,
00:07.0,0.001716614,-0.00447464,0.013881683,0,
00:07.0,0.001716614,-0.004468918,0.013881683,0,
00:07.0,0.00173378,-0.004457474,0.013870239,0,
00:07.0,0.001728058,-0.00447464,0.013875961,0,
00:07.0,0.001722336,-0.004486084,0.013881683,0,
00:07.0,0.001722336,-0.00447464,0.013881683,0,
00:07.0,0.001722336,-0.00447464,0.013881683,0,
00:07.0,0.001728058,-0.00447464,0.013875961,0,
00:07.0,0.001722336,-0.00447464,0.013864517,0,
00:07.1,0.001716614,-0.004468918,0.013864517,0,
00:07.1,0.001728058,-0.004463196,0.013864517,0,
00:07.1,0.001716614,-0.004463196,0.013893127,0,
00:07.1,0.001710892,-0.004451752,0.013881683,0,
00:07.1,0.001728058,-0.004451752,0.013870239,0,
00:07.1,0.00173378,-0.004463196,0.013864517,0,
00:07.1,0.001722336,-0.004468918,0.013870239,0,
00:07.1,0.001716614,-0.004463196,0.013870239,0,
00:07.1,0.001716614,-0.004457474,0.013864517,0,
00:07.1,0.001722336,-0.00444603,0.013864517,0,
00:07.1,0.001722336,-0.004468918,0.013870239,0,
00:07.1,0.001716614,-0.00447464,0.013870239,0,
00:07.1,0.00170517,-0.004480362,0.013875961,0,
00:07.1,0.001716614,-0.004468918,0.013870239,0,
00:07.1,0.001716614,-0.004463196,0.013864517,0,
00:07.1,0.001716614,-0.004457474,0.013864517,0,
00:07.1,0.001722336,-0.00444603,0.013870239,0,
00:07.1,0.001716614,-0.004440308,0.013864517,0,
00:07.1,0.001716614,-0.004434586,0.013853073,0,
00:07.1,0.001728058,-0.00444603,0.013858795,0,
00:07.1,0.001722336,-0.00444603,0.013864517,0,
00:07.1,0.001710892,-0.004440308,0.013864517,0,
00:07.1,0.001710892,-0.00444603,0.013858795,0,
00:07.1,0.001716614,-0.004451752,0.013870239,0,
00:07.1,0.001722336,-0.00444603,0.013864517,0,
00:07.2,0.001722336,-0.004451752,0.013858795,0,
00:07.2,0.001716614,-0.004457474,0.013864517,0,
00:07.2,0.001722336,-0.004434586,0.013853073,0,
00:07.2,0.001722336,-0.004434586,0.013864517,0,
00:07.2,0.001716614,-0.00444603,0.013864517,0,
00:07.2,0.001716614,-0.00444603,0.013858795,0,
00:07.2,0.001722336,-0.00444603,0.013864517,0,
00:07.2,0.001728058,-0.00444603,0.013864517,0,
00:07.2,0.001722336,-0.00444603,0.013864517,0,
00:07.2,0.00170517,-0.00444603,0.013864517,0,
00:07.2,0.001716614,-0.004434586,0.013864517,0,
00:07.2,0.00170517,-0.004451752,0.013858795,0,
00:07.2,0.001716614,-0.00444603,0.013858795,0,
00:07.2,0.001716614,-0.004428864,0.013847351,0,
00:07.2,0.001699448,-0.004434586,0.013853073,0,
00:07.2,0.001710892,-0.00444603,0.013847351,0,
00:07.2,0.001722336,-0.004428864,0.013847351,0,
00:07.2,0.001728058,-0.004411697,0.013864517,0,
00:07.2,0.001722336,-0.004417419,0.013847351,0,
00:07.2,0.001716614,-0.004428864,0.013858795,0,
00:07.2,0.00170517,-0.004440308,0.013858795,0,
00:07.2,0.001710892,-0.004434586,0.013853073,0,
00:07.2,0.001722336,-0.004423141,0.013858795,0,
00:07.2,0.001722336,-0.004405975,0.013853073,0,
00:07.2,0.001710892,-0.004411697,0.013853073,0,
00:07.3,0.001699448,-0.004434586,0.013853073,0,
00:07.3,0.001716614,-0.004428864,0.013858795,0,
00:07.3,0.001728058,-0.004423141,0.013853073,0,
00:07.3,0.001716614,-0.004423141,0.013847351,0,
00:07.3,0.00170517,-0.004440308,0.013853073,0,
00:07.3,0.00170517,-0.004440308,0.013847351,0,
00:07.3,0.00170517,-0.004423141,0.013853073,0,
00:07.3,0.001716614,-0.004417419,0.013853073,0,
00:07.3,0.001710892,-0.004423141,0.013853073,0,
00:07.3,0.001710892,-0.004423141,0.013847351,0,
00:07.3,0.001716614,-0.004405975,0.013847351,0,
00:07.3,0.001716614,-0.004411697,0.013858795,0,
00:07.3,0.001699448,-0.004417419,0.013835907,0,
00:07.3,0.00170517,-0.004411697,0.013830185,0,
00:07.3,0.001710892,-0.004417419,0.013858795,0,
00:07.3,0.00170517,-0.004417419,0.013853073,0,
00:07.3,0.001710892,-0.004417419,0.013853073,0,
00:07.3,0.001699448,-0.004411697,0.013853073,0,
00:07.3,0.001716614,-0.004411697,0.013841629,0,
00:07.3,0.001716614,-0.004417419,0.013841629,0,
00:07.3,0.001710892,-0.004411697,0.013841629,0,
00:07.3,0.00170517,-0.004405975,0.013847351,0,
00:07.3,0.001710892,-0.004417419,0.013853073,0,
00:07.3,0.001710892,-0.004417419,0.013847351,0,
00:07.3,0.001716614,-0.004394531,0.013841629,0,
00:07.4,0.001710892,-0.004405975,0.013847351,0,
00:07.4,0.00170517,-0.004417419,0.013847351,0,
00:07.4,0.001716614,-0.004423141,0.013835907,0,
00:07.4,0.001710892,-0.004428864,0.013841629,0,
00:07.4,0.001710892,-0.004405975,0.013835907,0,
00:07.4,0.001710892,-0.004411697,0.013841629,0,
00:07.4,0.001710892,-0.004417419,0.013847351,0,
00:07.4,0.001710892,-0.004405975,0.013835907,0,
00:07.4,0.001716614,-0.004405975,0.013841629,0,
00:07.4,0.001710892,-0.004400253,0.013841629,0,
00:07.4,0.001710892,-0.004411697,0.013841629,0,
00:07.4,0.001716614,-0.004411697,0.013835907,0,
00:07.4,0.001710892,-0.004405975,0.013818741,0,
00:07.4,0.001710892,-0.004400253,0.013841629,0,
00:07.4,0.001710892,-0.004400253,0.013847351,0,
00:07.4,0.00170517,-0.004400253,0.013847351,0,
00:07.4,0.00170517,-0.004405975,0.013841629,0,
00:07.4,0.00170517,-0.004411697,0.013835907,0,
00:07.4,0.001699448,-0.004394531,0.013835907,0,
00:07.4,0.001693726,-0.004411697,0.013841629,0,
00:07.4,0.00170517,-0.004411697,0.013841629,0,
00:07.4,0.001716614,-0.004388809,0.013835907,0,
00:07.4,0.001710892,-0.004383087,0.013830185,0,
00:07.4,0.001710892,-0.004394531,0.013824463,0,
00:07.4,0.001699448,-0.004405975,0.013830185,0,
00:07.5,0.00170517,-0.004400253,0.013835907,0,
00:07.5,0.001710892,-0.004394531,0.013841629,0,
00:07.5,0.001710892,-0.004388809,0.013830185,0,
00:07.5,0.00170517,-0.004388809,0.013830185,0,
00:07.5,0.001699448,-0.004400253,0.013824463,0,
00:07.5,0.001693726,-0.004417419,0.013830185,0,
00:07.5,0.001693726,-0.004417419,0.013835907,0,
00:07.5,0.001693726,-0.004400253,0.013841629,0,
00:07.5,0.00170517,-0.004394531,0.013818741,0,
00:07.5,0.001693726,-0.004405975,0.013830185,0,
00:07.5,0.001699448,-0.004405975,0.013841629,0,
00:07.5,0.00170517,-0.004394531,0.013830185,0,
00:07.5,0.001693726,-0.004400253,0.013813019,0,
00:07.5,0.001693726,-0.004411697,0.013824463,0,
00:07.5,0.001682281,-0.004411697,0.013841629,0,
00:07.5,0.001693726,-0.004383087,0.013830185,0,
00:07.5,0.001710892,-0.004360199,0.013835907,0,
00:07.5,0.001699448,-0.004388809,0.013835907,0,
00:07.5,0.001688004,-0.004411697,0.013824463,0,
00:07.5,0.00170517,-0.004394531,0.013824463,0,
00:07.5,0.001699448,-0.004394531,0.013830185,0,
00:07.5,0.001682281,-0.004411697,0.013835907,0,
00:07.5,0.001693726,-0.004394531,0.013835907,0,
00:07.5,0.00170517,-0.004388809,0.013824463,0,
00:07.5,0.001699448,-0.004394531,0.013824463,0,
00:07.6,0.001693726,-0.004388809,0.013824463,0,
00:07.6,0.001693726,-0.004383087,0.013830185,0,
00:07.6,0.001693726,-0.004383087,0.013818741,0,
00:07.6,0.001693726,-0.004383087,0.013824463,0,
00:07.6,0.001693726,-0.004400253,0.013813019,0,
00:07.6,0.001670837,-0.004405975,0.013813019,0,
00:07.6,0.001682281,-0.004394531,0.013830185,0,
00:07.6,0.001682281,-0.004383087,0.013830185,0,
00:07.6,0.001693726,-0.004383087,0.013824463,0,
00:07.6,0.001688004,-0.004405975,0.013818741,0,
00:07.6,0.001688004,-0.004405975,0.013818741,0,
00:07.6,0.001670837,-0.004411697,0.013818741,0,
00:07.6,0.001670837,-0.004423141,0.013818741,0,
00:07.6,0.001670837,-0.004411697,0.013824463,0,
00:07.6,0.001688004,-0.004383087,0.013807297,0,
00:07.6,0.001688004,-0.004377365,0.013813019,0,
00:07.6,0.001682281,-0.004400253,0.013830185,0,
00:07.6,0.001682281,-0.004400253,0.013830185,0,
00:07.6,0.001670837,-0.004405975,0.013813019,0,
00:07.6,0.001676559,-0.004394531,0.013807297,0,
00:07.6,0.001688004,-0.004388809,0.013818741,0,
00:07.6,0.001688004,-0.004394531,0.013818741,0,
00:07.6,0.001688004,-0.004388809,0.013818741,0,
00:07.6,0.001682281,-0.004383087,0.013801575,0,
00:07.6,0.001676559,-0.004411697,0.013818741,0,
00:07.7,0.001670837,-0.004411697,0.013824463,0,
00:07.7,0.001676559,-0.004400253,0.013818741,0,
00:07.7,0.001688004,-0.004388809,0.013807297,0,
00:07.7,0.001688004,-0.004388809,0.013813019,0,
00:07.7,0.001670837,-0.004400253,0.013813019,0,
00:07.7,0.001665115,-0.004400253,0.013818741,0,
00:07.7,0.001665115,-0.004400253,0.013824463,0,
00:07.7,0.001665115,-0.004411697,0.013824463,0,
00:07.7,0.001670837,-0.004411697,0.013813019,0,
00:07.7,0.001670837,-0.004417419,0.013807297,0,
00:07.7,0.001676559,-0.004394531,0.013818741,0,
00:07.7,0.001676559,-0.004394531,0.013818741,0,
00:07.7,0.001659393,-0.004405975,0.013818741,0,
00:07.7,0.001670837,-0.004411697,0.013813019,0,
00:07.7,0.001676559,-0.004411697,0.013818741,0,
00:07.7,0.001670837,-0.004400253,0.013824463,0,
00:07.7,0.001665115,-0.004400253,0.013818741,0,
00:07.7,0.001670837,-0.004400253,0.013824463,0,
00:07.7,0.001670837,-0.004400253,0.013818741,0,
00:07.7,0.001676559,-0.004400253,0.013813019,0,
00:07.7,0.001670837,-0.004405975,0.013824463,0,
00:07.7,0.001670837,-0.004405975,0.013824463,0,
00:07.7,0.001665115,-0.004411697,0.013830185,0,
00:07.7,0.001659393,-0.004428864,0.013818741,0,
00:07.7,0.001659393,-0.004423141,0.013824463,0,
00:07.8,0.001670837,-0.004405975,0.013830185,0,
00:07.8,0.001682281,-0.004394531,0.013824463,0,
00:07.8,0.001665115,-0.004405975,0.013830185,0,
00:07.8,0.001665115,-0.004440308,0.013824463,0,
00:07.8,0.001659393,-0.004423141,0.013818741,0,
00:07.8,0.001665115,-0.004405975,0.013824463,0,
00:07.8,0.001670837,-0.004417419,0.013818741,0,
00:07.8,0.001659393,-0.004423141,0.013830185,0,
00:07.8,0.001659393,-0.004423141,0.013824463,0,
00:07.8,0.001659393,-0.004423141,0.013813019,0,
00:07.8,0.001659393,-0.004417419,0.013818741,0,
00:07.8,0.001665115,-0.004417419,0.013824463,0,
00:07.8,0.001665115,-0.004423141,0.013824463,0,
00:07.8,0.001659393,-0.004411697,0.013818741,0,
00:07.8,0.001665115,-0.004411697,0.013818741,0,
00:07.8,0.001676559,-0.004411697,0.013818741,0,
00:07.8,0.001665115,-0.004417419,0.013824463,0,
00:07.8,0.001665115,-0.004428864,0.013824463,0,
00:07.8,0.001653671,-0.004440308,0.013830185,0,
00:07.8,0.001659393,-0.004434586,0.013824463,0,
00:07.8,0.001665115,-0.004417419,0.013824463,0,
00:07.8,0.001665115,-0.004411697,0.013830185,0,
00:07.8,0.001670837,-0.004423141,0.013830185,0,
00:07.8,0.001659393,-0.004434586,0.013813019,0,
00:07.8,0.001653671,-0.004428864,0.013818741,0,
00:07.9,0.001665115,-0.004411697,0.013835907,0,
00:07.9,0.001665115,-0.004423141,0.013841629,0,
00:07.9,0.001653671,-0.004434586,0.013841629,0,
00:07.9,0.001653671,-0.004440308,0.013824463,0,
00:07.9,0.001665115,-0.004417419,0.013818741,0,
00:07.9,0.001665115,-0.004423141,0.013835907,0,
00:07.9,0.001659393,-0.004440308,0.013847351,0,
00:07.9,0.001653671,-0.004423141,0.013841629,0,
00:07.9,0.001670837,-0.004417419,0.013830185,0,
00:07.9,0.001665115,-0.004440308,0.013824463,0,
00:07.9,0.001659393,-0.004434586,0.013835907,0,
00:07.9,0.001659393,-0.004428864,0.013841629,0,
00:07.9,0.001665115,-0.004434586,0.013841629,0,
00:07.9,0.001653671,-0.00444603,0.013841629,0,
00:07.9,0.001659393,-0.004440308,0.013835907,0,
00:07.9,0.001665115,-0.004440308,0.013841629,0,
00:07.9,0.001659393,-0.004434586,0.013847351,0,
00:07.9,0.001665115,-0.004428864,0.013847351,0,
00:07.9,0.001670837,-0.004440308,0.013841629,0,
00:07.9,0.001665115,-0.00444603,0.013835907,0,
00:07.9,0.001665115,-0.00444603,0.013847351,0,
00:07.9,0.001665115,-0.004440308,0.013853073,0,
00:07.9,0.001653671,-0.004457474,0.013835907,0,
00:07.9,0.001670837,-0.004457474,0.013830185,0,
00:07.9,0.001665115,-0.004451752,0.013847351,0,
00:08.0,0.001659393,-0.004451752,0.013853073,0,
00:08.0,0.001647949,-0.004463196,0.013847351,0,
00:08.0,0.001636505,-0.00447464,0.013858795,0,
00:08.0,0.001659393,-0.004457474,0.013853073,0,
00:08.0,0.001670837,-0.004440308,0.013853073,0,
00:08.0,0.001670837,-0.004434586,0.013847351,0,
00:08.0,0.001670837,-0.004434586,0.013853073,0,
00:08.0,0.001665115,-0.004457474,0.013858795,0,
00:08.0,0.001670837,-0.004457474,0.013853073,0,
00:08.0,0.001659393,-0.004440308,0.013847351,0,
00:08.0,0.001653671,-0.004451752,0.013864517,0,
00:08.0,0.001665115,-0.004451752,0.013864517,0,
00:00:08,0.001670837,-0.004457474,0.013858795,0,
00:08.0,0.001670837,-0.004457474,0.013858795,0,
00:08.0,0.001670837,-0.004457474,0.013858795,0,
00:08.0,0.001653671,-0.004468918,0.013858795,0,
00:08.0,0.001659393,-0.004468918,0.013864517,0,
00:08.0,0.001665115,-0.004480362,0.013864517,0,
00:08.0,0.001665115,-0.004468918,0.013864517,0,
00:08.0,0.001665115,-0.004451752,0.013853073,0,
00:08.0,0.001665115,-0.004457474,0.013870239,0,
00:08.0,0.001659393,-0.004457474,0.013864517,0,
00:08.0,0.001676559,-0.00444603,0.013864517,0,
00:08.0,0.001670837,-0.004457474,0.013858795,0,
00:08.0,0.001659393,-0.004463196,0.013870239,0,
00:08.1,0.001659393,-0.004457474,0.013870239,0,
00:08.1,0.001670837,-0.00444603,0.013864517,0,
00:08.1,0.001676559,-0.00444603,0.013864517,0,
00:08.1,0.001670837,-0.004468918,0.013864517,0,
00:08.1,0.001665115,-0.00447464,0.013858795,0,
00:08.1,0.001665115,-0.004463196,0.013870239,0,
00:08.1,0.001665115,-0.004463196,0.013875961,0,
00:08.1,0.001665115,-0.004457474,0.013870239,0,
00:08.1,0.001665115,-0.00447464,0.013870239,0,
00:08.1,0.001670837,-0.004457474,0.013858795,0,
00:08.1,0.001670837,-0.004468918,0.013870239,0,
00:08.1,0.001659393,-0.004497528,0.013881683,0,
00:08.1,0.001665115,-0.004486084,0.013881683,0,
00:08.1,0.001659393,-0.00447464,0.013870239,0,
00:08.1,0.001659393,-0.004468918,0.013864517,0,
00:08.1,0.001670837,-0.004457474,0.013864517,0,
00:08.1,0.001665115,-0.004463196,0.013870239,0,
00:08.1,0.001665115,-0.004463196,0.013870239,0,
00:08.1,0.001670837,-0.004457474,0.013870239,0,
00:08.1,0.001676559,-0.004468918,0.013870239,0,
00:08.1,0.001676559,-0.004468918,0.013864517,0,
00:08.1,0.001670837,-0.00447464,0.013870239,0,
00:08.1,0.001676559,-0.004463196,0.013887405,0,
00:08.1,0.001665115,-0.004468918,0.013870239,0,
00:08.1,0.001659393,-0.00447464,0.013864517,0,
00:08.2,0.001670837,-0.004468918,0.013870239,0,
00:08.2,0.001670837,-0.004468918,0.013875961,0,
00:08.2,0.001676559,-0.00447464,0.013881683,0,
00:08.2,0.001670837,-0.004480362,0.013875961,0,
00:08.2,0.001670837,-0.004480362,0.013875961,0,
00:08.2,0.001659393,-0.004491806,0.013875961,0,
00:08.2,0.001665115,-0.00447464,0.013870239,0,
00:08.2,0.001676559,-0.004463196,0.013881683,0,
00:08.2,0.001682281,-0.004463196,0.013881683,0,
00:08.2,0.001670837,-0.004468918,0.013870239,0,
00:08.2,0.001670837,-0.00447464,0.013870239,0,
00:08.2,0.001670837,-0.00447464,0.013893127,0,
00:08.2,0.001670837,-0.00447464,0.013887405,0,
00:08.2,0.001682281,-0.004463196,0.013875961,0,
00:08.2,0.001676559,-0.004468918,0.013875961,0,
00:08.2,0.001670837,-0.00447464,0.013881683,0,
00:08.2,0.001659393,-0.004486084,0.013887405,0,
00:08.2,0.001676559,-0.004463196,0.013875961,0,
00:08.2,0.001676559,-0.004468918,0.013881683,0,
00:08.2,0.001682281,-0.004491806,0.013887405,0,
00:08.2,0.001670837,-0.004497528,0.013887405,0,
00:08.2,0.001676559,-0.00447464,0.013887405,0,
00:08.2,0.001676559,-0.004480362,0.013875961,0,
00:08.2,0.001670837,-0.004480362,0.013881683,0,
00:08.2,0.001676559,-0.004480362,0.013875961,0,
00:08.3,0.001688004,-0.004480362,0.013881683,0,
00:08.3,0.001682281,-0.00447464,0.013881683,0,
00:08.3,0.001670837,-0.004468918,0.013893127,0,
00:08.3,0.001676559,-0.004480362,0.013881683,0,
00:08.3,0.001682281,-0.004491806,0.013875961,0,
00:08.3,0.001670837,-0.004497528,0.013875961,0,
00:08.3,0.001676559,-0.004486084,0.013893127,0,
00:08.3,0.001676559,-0.004480362,0.013893127,0,
00:08.3,0.001682281,-0.004468918,0.013881683,0,
00:08.3,0.001670837,-0.004480362,0.013875961,0,
00:08.3,0.001670837,-0.004491806,0.013893127,0,
00:08.3,0.001676559,-0.004486084,0.013887405,0,
00:08.3,0.001670837,-0.004497528,0.013887405,0,
00:08.3,0.001676559,-0.004491806,0.013875961,0,
00:08.3,0.001688004,-0.004480362,0.013864517,0,
00:08.3,0.001688004,-0.004468918,0.013887405,0,
00:08.3,0.001676559,-0.004486084,0.013898849,0,
00:08.3,0.001665115,-0.004491806,0.013893127,0,
00:08.3,0.001670837,-0.004497528,0.013887405,0,
00:08.3,0.001676559,-0.004491806,0.013881683,0,
00:08.3,0.001693726,-0.004480362,0.013881683,0,
00:08.3,0.001699448,-0.004480362,0.013881683,0,
00:08.3,0.001693726,-0.004480362,0.013875961,0,
00:08.3,0.001670837,-0.004486084,0.013893127,0,
00:08.3,0.001682281,-0.004480362,0.013870239,0,
00:08.4,0.001682281,-0.004486084,0.013881683,0,
00:08.4,0.001676559,-0.004491806,0.013881683,0,
00:08.4,0.001676559,-0.004497528,0.013887405,0,
00:08.4,0.001670837,-0.004497528,0.013875961,0,
00:08.4,0.001670837,-0.004497528,0.013875961,0,
00:08.4,0.001682281,-0.004491806,0.013875961,0,
00:08.4,0.001676559,-0.004480362,0.013887405,0,
00:08.4,0.001682281,-0.004486084,0.013887405,0,
00:08.4,0.001688004,-0.004486084,0.013870239,0,
00:08.4,0.001688004,-0.004480362,0.013875961,0,
00:08.4,0.001688004,-0.004468918,0.013887405,0,
00:08.4,0.001688004,-0.00447464,0.013881683,0,
00:08.4,0.001670837,-0.004497528,0.013881683,0,
00:08.4,0.001682281,-0.004491806,0.013875961,0,
00:08.4,0.001693726,-0.004468918,0.013870239,0,
00:08.4,0.001693726,-0.004491806,0.013881683,0,
00:08.4,0.001682281,-0.00450325,0.013887405,0,
00:08.4,0.001676559,-0.00450325,0.013887405,0,
00:08.4,0.001676559,-0.004491806,0.013875961,0,
00:08.4,0.001676559,-0.004480362,0.013875961,0,
00:08.4,0.001682281,-0.004480362,0.013875961,0,
00:08.4,0.001682281,-0.004497528,0.013875961,0,
00:08.4,0.001670837,-0.00450325,0.013887405,0,
00:08.4,0.001670837,-0.00450325,0.013881683,0,
00:08.4,0.001665115,-0.00450325,0.013875961,0,
00:08.5,0.001670837,-0.004497528,0.013875961,0,
00:08.5,0.001670837,-0.004491806,0.013887405,0,
00:08.5,0.001670837,-0.004491806,0.013881683,0,
00:08.5,0.001676559,-0.004491806,0.013881683,0,
00:08.5,0.001682281,-0.004491806,0.013870239,0,
00:08.5,0.001670837,-0.004508972,0.013887405,0,
00:08.5,0.001665115,-0.004514694,0.013887405,0,
00:08.5,0.001676559,-0.004491806,0.013875961,0,
00:08.5,0.001699448,-0.004451752,0.013870239,0,
00:08.5,0.001710892,-0.004428864,0.013858795,0,
00:08.5,0.00170517,-0.004468918,0.013870239,0,
00:08.5,0.001682281,-0.00447464,0.013887405,0,
00:08.5,0.001688004,-0.004463196,0.013881683,0,
00:08.5,0.001688004,-0.004468918,0.013864517,0,
00:08.5,0.001688004,-0.00447464,0.013858795,0,
00:08.5,0.001688004,-0.004468918,0.013875961,0,
00:08.5,0.001682281,-0.004480362,0.013881683,0,
00:08.5,0.001670837,-0.004480362,0.013875961,0,
00:08.5,0.001688004,-0.004480362,0.013870239,0,
00:08.5,0.001688004,-0.004486084,0.013870239,0,
00:08.5,0.001682281,-0.004491806,0.013864517,0,
00:08.5,0.001688004,-0.004491806,0.013870239,0,
00:08.5,0.001693726,-0.00447464,0.013870239,0,
00:08.5,0.001688004,-0.004463196,0.013870239,0,
00:08.5,0.001688004,-0.00447464,0.013864517,0,
00:08.6,0.001670837,-0.00450325,0.013864517,0,
00:08.6,0.001676559,-0.004514694,0.013864517,0,
00:08.6,0.001688004,-0.004486084,0.013870239,0,
00:08.6,0.00170517,-0.004451752,0.013858795,0,
00:08.6,0.001710892,-0.004451752,0.013853073,0,
00:08.6,0.001693726,-0.004468918,0.013853073,0,
00:08.6,0.001682281,-0.004486084,0.013858795,0,
00:08.6,0.001670837,-0.004491806,0.013853073,0,
00:08.6,0.001682281,-0.004491806,0.013864517,0,
00:08.6,0.001682281,-0.004486084,0.013853073,0,
00:08.6,0.001699448,-0.004451752,0.013847351,0,
00:08.6,0.00170517,-0.004428864,0.013858795,0,
00:08.6,0.001699448,-0.004440308,0.013870239,0,
00:08.6,0.001688004,-0.004480362,0.013853073,0,
00:08.6,0.001682281,-0.004491806,0.013853073,0,
00:08.6,0.001688004,-0.004480362,0.013853073,0,
00:08.6,0.001693726,-0.004468918,0.013847351,0,
00:08.6,0.001699448,-0.004451752,0.013847351,0,
00:08.6,0.001693726,-0.004457474,0.013841629,0,
00:08.6,0.00170517,-0.004457474,0.013841629,0,
00:08.6,0.001716614,-0.004457474,0.013847351,0,
00:08.6,0.001699448,-0.004457474,0.013853073,0,
00:08.6,0.001688004,-0.00447464,0.013853073,0,
00:08.6,0.001688004,-0.00447464,0.013841629,0,
00:08.6,0.001676559,-0.004486084,0.013824463,0,
00:08.7,0.001682281,-0.004480362,0.013830185,0,
00:08.7,0.001699448,-0.004468918,0.013847351,0,
00:08.7,0.001710892,-0.004457474,0.013853073,0,
00:08.7,0.00170517,-0.004457474,0.013841629,0,
00:08.7,0.00170517,-0.004457474,0.013830185,0,
00:08.7,0.00170517,-0.004463196,0.013835907,0,
00:08.7,0.00170517,-0.004463196,0.013835907,0,
00:08.7,0.001688004,-0.004468918,0.013835907,0,
00:08.7,0.001688004,-0.004468918,0.013830185,0,
00:08.7,0.001699448,-0.00447464,0.013830185,0,
00:08.7,0.001699448,-0.004468918,0.013824463,0,
00:08.7,0.001693726,-0.004463196,0.013824463,0,
00:08.7,0.001693726,-0.004457474,0.013830185,0,
00:08.7,0.001699448,-0.004451752,0.013824463,0,
00:08.7,0.001699448,-0.004463196,0.013824463,0,
00:08.7,0.001710892,-0.004486084,0.013824463,0,
00:08.7,0.00170517,-0.004457474,0.013824463,0,
00:08.7,0.00170517,-0.00444603,0.013818741,0,
00:08.7,0.001693726,-0.00447464,0.013824463,0,
00:08.7,0.001676559,-0.00447464,0.013818741,0,
00:08.7,0.001688004,-0.004468918,0.013818741,0,
00:08.7,0.001693726,-0.004480362,0.013813019,0,
00:08.7,0.001693726,-0.004486084,0.013807297,0,
00:08.7,0.001682281,-0.004497528,0.013813019,0,
00:08.7,0.00170517,-0.00447464,0.013790131,0,
00:08.8,0.00170517,-0.004463196,0.013807297,0,
00:08.8,0.001716614,-0.004428864,0.013824463,0,
00:08.8,0.001722336,-0.004417419,0.013818741,0,
00:08.8,0.001716614,-0.004423141,0.013807297,0,
00:08.8,0.00170517,-0.004440308,0.013801575,0,
00:08.8,0.001682281,-0.004486084,0.013807297,0,
00:08.8,0.001693726,-0.004480362,0.013813019,0,
00:08.8,0.001710892,-0.004434586,0.013813019,0,
00:08.8,0.001722336,-0.00444603,0.013801575,0,
00:08.8,0.00170517,-0.004457474,0.013801575,0,
00:08.8,0.00170517,-0.004434586,0.013807297,0,
00:08.8,0.001716614,-0.004434586,0.013807297,0,
00:08.8,0.001710892,-0.004451752,0.013795853,0,
00:08.8,0.001693726,-0.004463196,0.013795853,0,
00:08.8,0.001699448,-0.004463196,0.013795853,0,
00:08.8,0.001710892,-0.004434586,0.013790131,0,
00:08.8,0.001699448,-0.00444603,0.013807297,0,
00:08.8,0.001699448,-0.004451752,0.013795853,0,
00:08.8,0.001716614,-0.004434586,0.013778687,0,
00:08.8,0.001710892,-0.004428864,0.013784409,0,
00:08.8,0.001722336,-0.004428864,0.013795853,0,
00:08.8,0.001722336,-0.00444603,0.013813019,0,
00:08.8,0.001716614,-0.004451752,0.013801575,0,
00:08.8,0.001716614,-0.004440308,0.013784409,0,
00:08.8,0.001699448,-0.00444603,0.013790131,0,
00:08.9,0.00170517,-0.004457474,0.013790131,0,
00:08.9,0.001693726,-0.004468918,0.013795853,0,
00:08.9,0.001693726,-0.004463196,0.013784409,0,
00:08.9,0.001710892,-0.004434586,0.013790131,0,
00:08.9,0.001710892,-0.004434586,0.013784409,0,
00:08.9,0.001710892,-0.004434586,0.013790131,0,
00:08.9,0.001722336,-0.004440308,0.013790131,0,
00:08.9,0.001710892,-0.00444603,0.013790131,0,
00:08.9,0.001699448,-0.004463196,0.013790131,0,
00:08.9,0.00170517,-0.004457474,0.013784409,0,
00:08.9,0.001710892,-0.004428864,0.013778687,0,
00:08.9,0.001716614,-0.004423141,0.013772964,0,
00:08.9,0.001716614,-0.004428864,0.013795853,0,
00:08.9,0.001710892,-0.004417419,0.013790131,0,
00:08.9,0.00170517,-0.004423141,0.013778687,0,
00:08.9,0.001710892,-0.004440308,0.013790131,0,
00:08.9,0.00170517,-0.004457474,0.013784409,0,
00:08.9,0.00170517,-0.004451752,0.013778687,0,
00:08.9,0.001716614,-0.004440308,0.013767242,0,
00:08.9,0.001716614,-0.004428864,0.01376152,0,
00:08.9,0.001710892,-0.004428864,0.013772964,0,
00:08.9,0.001722336,-0.004417419,0.013778687,0,
00:08.9,0.001716614,-0.004434586,0.013778687,0,
00:08.9,0.00170517,-0.00444603,0.013772964,0,
00:08.9,0.001699448,-0.00444603,0.013772964,0,
00:09.0,0.00170517,-0.004451752,0.013778687,0,
00:09.0,0.001710892,-0.004451752,0.013778687,0,
00:09.0,0.001710892,-0.004440308,0.013767242,0,
00:09.0,0.001710892,-0.004417419,0.01376152,0,
00:09.0,0.001716614,-0.004423141,0.013755798,0,
00:09.0,0.001710892,-0.004428864,0.013772964,0,
00:09.0,0.00170517,-0.004440308,0.013767242,0,
00:09.0,0.00170517,-0.004440308,0.013772964,0,
00:09.0,0.00170517,-0.004440308,0.013755798,0,
00:09.0,0.00170517,-0.004440308,0.013750076,0,
00:09.0,0.001699448,-0.00444603,0.013744354,0,
00:09.0,0.001693726,-0.004463196,0.013744354,0,
00:00:09,0.00170517,-0.004428864,0.01376152,0,
00:09.0,0.00170517,-0.004428864,0.013755798,0,
00:09.0,0.001699448,-0.004451752,0.013750076,0,
00:09.0,0.001699448,-0.00444603,0.013755798,0,
00:09.0,0.00170517,-0.004440308,0.013755798,0,
00:09.0,0.001710892,-0.004434586,0.013755798,0,
00:09.0,0.001699448,-0.004440308,0.013744354,0,
00:09.0,0.00170517,-0.004423141,0.013738632,0,
00:09.0,0.001716614,-0.004417419,0.013755798,0,
00:09.0,0.001710892,-0.004411697,0.01376152,0,
00:09.0,0.001710892,-0.004423141,0.013750076,0,
00:09.0,0.001699448,-0.004451752,0.013738632,0,
00:09.0,0.00170517,-0.004457474,0.013738632,0,
00:09.1,0.001699448,-0.004451752,0.013744354,0,
00:09.1,0.001716614,-0.004428864,0.013738632,0,
00:09.1,0.001710892,-0.004434586,0.01373291,0,
00:09.1,0.001693726,-0.004451752,0.013744354,0,
00:09.1,0.001699448,-0.004440308,0.013738632,0,
00:09.1,0.001710892,-0.004440308,0.013727188,0,
00:09.1,0.001699448,-0.004468918,0.013744354,0,
00:09.1,0.001710892,-0.004428864,0.013744354,0,
00:09.1,0.001716614,-0.004411697,0.01373291,0,
00:09.1,0.00170517,-0.004428864,0.013738632,0,
00:09.1,0.001693726,-0.00444603,0.01373291,0,
00:09.1,0.001693726,-0.004440308,0.013727188,0,
00:09.1,0.001710892,-0.004428864,0.013750076,0,
00:09.1,0.001716614,-0.004423141,0.013744354,0,
00:09.1,0.001716614,-0.004434586,0.013721466,0,
00:09.1,0.00170517,-0.004428864,0.013727188,0,
00:09.1,0.001710892,-0.004423141,0.013727188,0,
00:09.1,0.001699448,-0.004434586,0.01373291,0,
00:09.1,0.001699448,-0.00444603,0.013727188,0,
00:09.1,0.001710892,-0.00444603,0.01373291,0,
00:09.1,0.00170517,-0.004428864,0.013721466,0,
00:09.1,0.001722336,-0.004405975,0.01373291,0,
00:09.1,0.001710892,-0.004428864,0.013727188,0,
00:09.1,0.001693726,-0.00444603,0.013727188,0,
00:09.1,0.001699448,-0.00444603,0.01373291,0,
00:09.2,0.001722336,-0.004417419,0.013721466,0,
00:09.2,0.001722336,-0.004411697,0.013715744,0,
00:09.2,0.001710892,-0.004434586,0.013738632,0,
00:09.2,0.00170517,-0.004434586,0.013727188,0,
00:09.2,0.001716614,-0.004428864,0.013721466,0,
00:09.2,0.001722336,-0.004428864,0.013721466,0,
00:09.2,0.00170517,-0.004440308,0.01373291,0,
00:09.2,0.00170517,-0.004428864,0.013727188,0,
00:09.2,0.00170517,-0.004434586,0.013710022,0,
00:09.2,0.001710892,-0.004428864,0.013710022,0,
00:09.2,0.001699448,-0.004440308,0.013715744,0,
00:09.2,0.001693726,-0.00444603,0.013715744,0,
00:09.2,0.001699448,-0.004440308,0.013721466,0,
00:09.2,0.00170517,-0.004428864,0.013710022,0,
00:09.2,0.001710892,-0.004417419,0.013698578,0,
00:09.2,0.001699448,-0.004428864,0.013715744,0,
00:09.2,0.001710892,-0.004434586,0.013698578,0,
00:09.2,0.001710892,-0.004428864,0.013698578,0,
00:09.2,0.001722336,-0.004417419,0.013715744,0,
00:09.2,0.00173378,-0.004400253,0.0137043,0,
00:09.2,0.001716614,-0.004400253,0.013710022,0,
00:09.2,0.001699448,-0.004451752,0.013727188,0,
00:09.2,0.001693726,-0.004451752,0.013710022,0,
00:09.2,0.001693726,-0.004434586,0.0137043,0,
00:09.2,0.001710892,-0.004423141,0.0137043,0,
00:09.3,0.001710892,-0.004428864,0.013698578,0,
00:09.3,0.001699448,-0.004428864,0.013710022,0,
00:09.3,0.001710892,-0.004417419,0.013710022,0,
00:09.3,0.001716614,-0.004411697,0.013698578,0,
00:09.3,0.001716614,-0.004411697,0.013692856,0,
00:09.3,0.001710892,-0.004417419,0.013710022,0,
00:09.3,0.00170517,-0.004417419,0.013715744,0,
00:09.3,0.001716614,-0.004405975,0.013687134,0,
00:09.3,0.001716614,-0.004434586,0.01367569,0,
00:09.3,0.00170517,-0.004428864,0.013710022,0,
00:09.3,0.001693726,-0.004434586,0.013715744,0,
00:09.3,0.001699448,-0.004428864,0.0137043,0,
00:09.3,0.001710892,-0.004411697,0.013692856,0,
00:09.3,0.001710892,-0.004423141,0.013687134,0,
00:09.3,0.00170517,-0.004417419,0.013681412,0,
00:09.3,0.001710892,-0.004428864,0.0137043,0,
00:09.3,0.001693726,-0.004428864,0.013710022,0,
00:09.3,0.001693726,-0.004405975,0.013681412,0,
00:09.3,0.001716614,-0.004423141,0.013681412,0,
00:09.3,0.001716614,-0.004428864,0.013687134,0,
00:09.3,0.001710892,-0.004428864,0.0137043,0,
00:09.3,0.001710892,-0.004428864,0.0137043,0,
00:09.3,0.00170517,-0.004411697,0.013681412,0,
00:09.3,0.001710892,-0.004400253,0.013687134,0,
00:09.3,0.001716614,-0.004411697,0.013710022,0,
00:09.4,0.001716614,-0.004411697,0.0137043,0,
00:09.4,0.001716614,-0.004405975,0.013687134,0,
00:09.4,0.001716614,-0.004400253,0.013698578,0,
00:09.4,0.00170517,-0.004411697,0.013692856,0,
00:09.4,0.00170517,-0.004417419,0.013687134,0,
00:09.4,0.00170517,-0.004417419,0.013698578,0,
00:09.4,0.001699448,-0.004423141,0.013698578,0,
00:09.4,0.001716614,-0.004417419,0.013687134,0,
00:09.4,0.001716614,-0.004417419,0.013664246,0,
00:09.4,0.00170517,-0.004411697,0.013687134,0,
00:09.4,0.00170517,-0.004417419,0.013692856,0,
00:09.4,0.00170517,-0.004417419,0.013692856,0,
00:09.4,0.00170517,-0.004411697,0.013698578,0,
00:09.4,0.001699448,-0.004434586,0.013692856,0,
00:09.4,0.001710892,-0.004428864,0.01367569,0,
00:09.4,0.00173378,-0.004388809,0.013698578,0,
00:09.4,0.001722336,-0.004394531,0.013692856,0,
00:09.4,0.001699448,-0.004428864,0.013687134,0,
00:09.4,0.00170517,-0.004423141,0.01367569,0,
00:09.4,0.00170517,-0.004417419,0.013658524,0,
00:09.4,0.001699448,-0.004428864,0.013664246,0,
00:09.4,0.001710892,-0.004411697,0.013692856,0,
00:09.4,0.001716614,-0.004411697,0.013710022,0,
00:09.4,0.00170517,-0.004423141,0.013692856,0,
00:09.4,0.00170517,-0.004400253,0.01367569,0,
00:09.5,0.001716614,-0.004400253,0.013692856,0,
00:09.5,0.001728058,-0.004394531,0.013692856,0,
00:09.5,0.001722336,-0.004400253,0.01367569,0,
00:09.5,0.001699448,-0.004417419,0.013669968,0,
00:09.5,0.001688004,-0.004417419,0.01367569,0,
00:09.5,0.001716614,-0.004405975,0.013692856,0,
00:09.5,0.00173378,-0.004394531,0.013687134,0,
00:09.5,0.001716614,-0.004394531,0.013681412,0,
00:09.5,0.001722336,-0.004400253,0.013681412,0,
00:09.5,0.001716614,-0.004411697,0.013687134,0,
00:09.5,0.001710892,-0.004411697,0.013692856,0,
00:09.5,0.001699448,-0.004417419,0.0137043,0,
00:09.5,0.001699448,-0.004411697,0.013692856,0,
00:09.5,0.00170517,-0.004405975,0.013669968,0,
00:09.5,0.001722336,-0.004394531,0.013692856,0,
00:09.5,0.001710892,-0.004400253,0.013698578,0,
00:09.5,0.00170517,-0.004417419,0.01367569,0,
00:09.5,0.001710892,-0.004417419,0.01367569,0,
00:09.5,0.001710892,-0.004423141,0.013692856,0,
00:09.5,0.001716614,-0.004417419,0.013687134,0,
00:09.5,0.001722336,-0.004394531,0.01367569,0,
00:09.5,0.00170517,-0.004405975,0.01367569,0,
00:09.5,0.001693726,-0.004434586,0.013698578,0,
00:09.5,0.001693726,-0.004428864,0.013687134,0,
00:09.5,0.001710892,-0.004400253,0.01367569,0,
00:09.6,0.001722336,-0.004400253,0.013664246,0,
00:09.6,0.001710892,-0.004411697,0.013692856,0,
00:09.6,0.001710892,-0.004417419,0.01367569,0,
00:09.6,0.001710892,-0.004417419,0.013687134,0,
00:09.6,0.001699448,-0.004428864,0.013681412,0,
00:09.6,0.001710892,-0.004440308,0.013692856,0,
00:09.6,0.001716614,-0.004400253,0.013698578,0,
00:09.6,0.001745224,-0.004360199,0.01367569,0,
00:09.6,0.001722336,-0.004383087,0.013681412,0,
00:09.6,0.001693726,-0.004411697,0.01367569,0,
00:09.6,0.001716614,-0.004400253,0.013698578,0,
00:09.6,0.001699448,-0.004417419,0.013658524,0,
00:09.6,0.001699448,-0.004434586,0.013681412,0,
00:09.6,0.001710892,-0.004428864,0.013698578,0,
00:09.6,0.001710892,-0.004423141,0.013692856,0,
00:09.6,0.001699448,-0.004428864,0.01367569,0,
00:09.6,0.00170517,-0.004405975,0.013669968,0,
00:09.6,0.001728058,-0.004377365,0.013692856,0,
00:09.6,0.001710892,-0.004400253,0.013687134,0,
00:09.6,0.001710892,-0.004423141,0.013681412,0,
00:09.6,0.00170517,-0.004417419,0.013687134,0,
00:09.6,0.00170517,-0.004405975,0.013692856,0,
00:09.6,0.001716614,-0.004388809,0.01367569,0,
00:09.6,0.001716614,-0.004394531,0.013669968,0,
00:09.6,0.001688004,-0.004440308,0.013681412,0,
00:09.7,0.001693726,-0.004417419,0.013681412,0,
00:09.7,0.00170517,-0.004405975,0.013681412,0,
00:09.7,0.00170517,-0.004411697,0.013669968,0,
00:09.7,0.001710892,-0.004400253,0.01367569,0,
00:09.7,0.00170517,-0.004394531,0.013652802,0,
00:09.7,0.001716614,-0.004383087,0.01367569,0,
00:09.7,0.001716614,-0.004388809,0.01367569,0,
00:09.7,0.001699448,-0.004400253,0.013664246,0,
00:09.7,0.001693726,-0.004428864,0.013692856,0,
00:09.7,0.001699448,-0.004428864,0.01367569,0,
00:09.7,0.00170517,-0.004405975,0.013681412,0,
00:09.7,0.001693726,-0.004411697,0.013681412,0,
00:09.7,0.001688004,-0.004400253,0.013681412,0,
00:09.7,0.001710892,-0.004388809,0.013658524,0,
00:09.7,0.001710892,-0.004411697,0.013658524,0,
00:09.7,0.001688004,-0.004428864,0.013664246,0,
00:09.7,0.001693726,-0.004417419,0.013681412,0,
00:09.7,0.001699448,-0.004405975,0.013698578,0,
00:09.7,0.001710892,-0.004405975,0.01367569,0,
00:09.7,0.001710892,-0.004383087,0.013652802,0,
00:09.7,0.001710892,-0.004394531,0.013664246,0,
00:09.7,0.00170517,-0.004417419,0.01367569,0,
00:09.7,0.00170517,-0.004411697,0.013681412,0,
00:09.7,0.001699448,-0.004417419,0.013687134,0,
00:09.7,0.00170517,-0.004411697,0.013669968,0,
00:09.8,0.001699448,-0.004394531,0.013664246,0,
00:09.8,0.001693726,-0.004405975,0.013681412,0,
00:09.8,0.001693726,-0.004405975,0.013669968,0,
00:09.8,0.00170517,-0.004400253,0.013664246,0,
00:09.8,0.001710892,-0.004405975,0.01367569,0,
00:09.8,0.00170517,-0.004394531,0.01367569,0,
00:09.8,0.00170517,-0.004388809,0.01367569,0,
00:09.8,0.001710892,-0.004388809,0.013681412,0,
00:09.8,0.00170517,-0.004400253,0.013681412,0,
00:09.8,0.001693726,-0.004400253,0.013647079,0,
00:09.8,0.00170517,-0.004400253,0.013658524,0,
00:09.8,0.001710892,-0.004383087,0.013698578,0,
00:09.8,0.00170517,-0.004400253,0.013681412,0,
00:09.8,0.001710892,-0.004400253,0.013669968,0,
00:09.8,0.001699448,-0.004388809,0.013681412,0,
00:09.8,0.00170517,-0.004388809,0.013681412,0,
00:09.8,0.001699448,-0.004400253,0.013669968,0,
00:09.8,0.001699448,-0.004405975,0.013669968,0,
00:09.8,0.001699448,-0.004394531,0.013669968,0,
00:09.8,0.001688004,-0.004400253,0.013664246,0,
00:09.8,0.001693726,-0.004411697,0.01367569,0,
00:09.8,0.001693726,-0.004411697,0.01367569,0,
00:09.8,0.001699448,-0.004405975,0.01367569,0,
00:09.8,0.001699448,-0.004394531,0.01367569,0,
00:09.8,0.001699448,-0.004400253,0.013664246,0,
00:09.9,0.00170517,-0.004400253,0.01367569,0,
00:09.9,0.00170517,-0.004371643,0.013664246,0,
00:09.9,0.00170517,-0.004394531,0.013658524,0,
00:09.9,0.001710892,-0.004405975,0.013669968,0,
00:09.9,0.001693726,-0.004405975,0.013658524,0,
00:09.9,0.001688004,-0.004411697,0.013652802,0,
00:09.9,0.001699448,-0.004394531,0.013658524,0,
00:09.9,0.001710892,-0.004371643,0.013658524,0,
00:09.9,0.00170517,-0.004383087,0.01367569,0,
00:09.9,0.001699448,-0.004394531,0.013647079,0,
00:09.9,0.001710892,-0.004388809,0.013647079,0,
00:09.9,0.001710892,-0.004394531,0.013687134,0,
00:09.9,0.001699448,-0.004394531,0.013669968,0,
00:09.9,0.001693726,-0.004400253,0.013664246,0,
00:09.9,0.001688004,-0.004405975,0.013664246,0,
00:09.9,0.001699448,-0.004394531,0.013652802,0,
00:09.9,0.00170517,-0.004388809,0.013658524,0,
00:09.9,0.00170517,-0.004400253,0.013669968,0,
00:09.9,0.001699448,-0.004405975,0.013658524,0,
00:09.9,0.00170517,-0.004383087,0.013658524,0,
00:09.9,0.001710892,-0.004383087,0.013652802,0,
00:09.9,0.00170517,-0.004400253,0.013658524,0,
00:09.9,0.001682281,-0.004388809,0.013669968,0,
00:09.9,0.001699448,-0.004394531,0.013652802,0,
00:09.9,0.00170517,-0.004388809,0.013658524,0,
00:10.0,0.00170517,-0.004405975,0.013647079,0,
00:10.0,0.00170517,-0.004400253,0.013669968,0,
00:10.0,0.001693726,-0.004400253,0.013658524,0,
00:10.0,0.001693726,-0.004423141,0.013658524,0,
00:10.0,0.001699448,-0.004411697,0.013647079,0,
00:10.0,0.00170517,-0.004400253,0.013658524,0,
00:10.0,0.00170517,-0.004388809,0.013652802,0,
00:10.0,0.00170517,-0.004383087,0.013658524,0,
00:10.0,0.001710892,-0.004388809,0.013658524,0,
00:10.0,0.001710892,-0.004394531,0.013658524,0,
00:10.0,0.001699448,-0.004394531,0.013652802,0,
00:10.0,0.001693726,-0.004411697,0.013647079,0,
00:00:10,0.001688004,-0.004417419,0.013664246,0,
00:10.0,0.001693726,-0.004394531,0.013652802,0,
00:10.0,0.001699448,-0.004371643,0.013652802,0,
00:10.0,0.001710892,-0.004371643,0.013658524,0,
00:10.0,0.001722336,-0.004383087,0.013658524,0,
00:10.0,0.00170517,-0.004388809,0.013652802,0,
00:10.0,0.00170517,-0.004388809,0.013658524,0,
00:10.0,0.001693726,-0.004405975,0.013652802,0,
00:10.0,0.001682281,-0.004405975,0.013664246,0,
00:10.0,0.001693726,-0.004400253,0.013652802,0,
00:10.0,0.00170517,-0.004400253,0.013647079,0,
00:10.0,0.001710892,-0.004388809,0.013647079,0,
00:10.0,0.001710892,-0.004365921,0.013647079,0,
