Elapsed_Time,EMG1,EMG2,EMG3,BioRadio Event,Unnamed: 5
00:00:00,0.001298904,-0.00646019,0.014757156,0,
00:00.0,0.001321793,-0.006425858,0.014751434,0,
00:00.0,0.001338959,-0.006408691,0.014757156,0,
00:00.0,0.001316071,-0.00643158,0.0147686,0,
00:00.0,0.001316071,-0.006443024,0.014757156,0,
00:00.0,0.001327515,-0.006408691,0.014757156,0,
00:00.0,0.001321793,-0.00646019,0.014774323,0,
00:00.0,0.001298904,-0.006505966,0.014791489,0,
00:00.0,0.001316071,-0.00646019,0.014797211,0,
00:00.0,0.001327515,-0.00643158,0.014785767,0,
00:00.0,0.001338959,-0.006397247,0.014774323,0,
00:00.0,0.001338959,-0.006391525,0.014774323,0,
00:00.0,0.001304626,-0.006477356,0.014780045,0,
00:00.1,0.001298904,-0.006471634,0.014797211,0,
00:00.1,0.001344681,-0.006414413,0.014825821,0,
00:00.1,0.001327515,-0.00643158,0.014814377,0,
00:00.1,0.001321793,-0.006471634,0.014802933,0,
00:00.1,0.001333237,-0.00646019,0.014814377,0,
00:00.1,0.001316071,-0.006448746,0.014808655,0,
00:00.1,0.001321793,-0.00643158,0.014820099,0,
00:00.1,0.001327515,-0.006420135,0.014831543,0,
00:00.1,0.001338959,-0.006420135,0.014865875,0,
00:00.1,0.001367569,-0.006408691,0.014825821,0,
00:00.1,0.001338959,-0.006420135,0.014837265,0,
00:00.1,0.001298904,-0.006500244,0.014848709,0,
00:00.1,0.001293182,-0.006505966,0.014854431,0,
00:00.1,0.001310349,-0.006443024,0.014860153,0,
00:00.1,0.001338959,-0.00643158,0.014883041,0,
00:00.1,0.001333237,-0.00643158,0.014877319,0,
00:00.1,0.001344681,-0.006408691,0.014871597,0,
00:00.1,0.001327515,-0.006443024,0.014871597,0,
00:00.1,0.001321793,-0.00646019,0.014865875,0,
00:00.1,0.001321793,-0.00646019,0.014883041,0,
00:00.1,0.001293182,-0.006483078,0.014911652,0,
00:00.1,0.001310349,-0.006465912,0.014894485,0,
00:00.1,0.001333237,-0.006420135,0.014911652,0,
00:00.1,0.001356125,-0.006414413,0.014894485,0,
00:00.1,0.001379013,-0.006374359,0.01490593,0,
00:00.2,0.001327515,-0.006448746,0.014928818,0,
00:00.2,0.001327515,-0.006443024,0.014911652,0,
00:00.2,0.001293182,-0.006511688,0.014945984,0,
00:00.2,0.001304626,-0.006443024,0.014928818,0,
00:00.2,0.001327515,-0.006397247,0.014900208,0,
00:00.2,0.001350403,-0.006408691,0.014917374,0,
00:00.2,0.001304626,-0.006511688,0.014951706,0,
00:00.2,0.001316071,-0.00646019,0.01493454,0,
00:00.2,0.001344681,-0.006443024,0.014928818,0,
00:00.2,0.001344681,-0.006471634,0.014940262,0,
00:00.2,0.001316071,-0.006471634,0.014928818,0,
00:00.2,0.001321793,-0.00646019,0.014974594,0,
00:00.2,0.001344681,-0.006420135,0.014986038,0,
00:00.2,0.001333237,-0.006425858,0.014974594,0,
00:00.2,0.001327515,-0.006448746,0.014986038,0,
00:00.2,0.001316071,-0.006483078,0.014980316,0,
00:00.2,0.001333237,-0.006483078,0.014968872,0,
00:00.2,0.001344681,-0.006437302,0.014974594,0,
00:00.2,0.001338959,-0.006448746,0.014980316,0,
00:00.2,0.001321793,-0.00646019,0.014997482,0,
00:00.2,0.001338959,-0.006420135,0.015008926,0,
00:00.2,0.001327515,-0.006437302,0.014980316,0,
00:00.2,0.001350403,-0.006420135,0.015014648,0,
00:00.2,0.001316071,-0.00646019,0.015003204,0,
00:00.2,0.001373291,-0.006402969,0.01499176,0,
00:00.3,0.001361847,-0.006397247,0.01499176,0,
00:00.3,0.001316071,-0.006477356,0.015008926,0,
00:00.3,0.001310349,-0.006494522,0.015031815,0,
00:00.3,0.001356125,-0.006443024,0.015014648,0,
00:00.3,0.001333237,-0.006500244,0.015048981,0,
00:00.3,0.001338959,-0.0064888,0.015048981,0,
00:00.3,0.001338959,-0.006465912,0.01502037,0,
00:00.3,0.001338959,-0.006437302,0.015014648,0,
00:00.3,0.001321793,-0.006454468,0.015054703,0,
00:00.3,0.001350403,-0.006414413,0.015054703,0,
00:00.3,0.001344681,-0.006443024,0.015043259,0,
00:00.3,0.001333237,-0.006477356,0.015048981,0,
00:00.3,0.001356125,-0.006454468,0.015037537,0,
00:00.3,0.001338959,-0.006465912,0.015060425,0,
00:00.3,0.001338959,-0.006448746,0.015071869,0,
00:00.3,0.001338959,-0.006448746,0.015071869,0,
00:00.3,0.001333237,-0.006471634,0.015066147,0,
00:00.3,0.001338959,-0.00646019,0.015060425,0,
00:00.3,0.001367569,-0.006402969,0.015066147,0,
00:00.3,0.001350403,-0.006437302,0.015077591,0,
00:00.3,0.001344681,-0.006443024,0.015094757,0,
00:00.3,0.001327515,-0.00643158,0.015089035,0,
00:00.3,0.001338959,-0.006437302,0.015106201,0,
00:00.3,0.001361847,-0.00643158,0.015111923,0,
00:00.3,0.001344681,-0.006477356,0.015100479,0,
00:00.4,0.001344681,-0.006477356,0.015094757,0,
00:00.4,0.001367569,-0.006425858,0.015123367,0,
00:00.4,0.001327515,-0.006483078,0.015111923,0,
00:00.4,0.001361847,-0.006443024,0.015106201,0,
00:00.4,0.001344681,-0.006471634,0.015106201,0,
00:00.4,0.001344681,-0.006454468,0.015117645,0,
00:00.4,0.001344681,-0.00643158,0.015140533,0,
00:00.4,0.001327515,-0.006477356,0.015146255,0,
00:00.4,0.001367569,-0.006437302,0.015123367,0,
00:00.4,0.001356125,-0.006448746,0.015134811,0,
00:00.4,0.001361847,-0.006443024,0.0151577,0,
00:00.4,0.001384735,-0.006391525,0.015140533,0,
00:00.4,0.001344681,-0.006471634,0.015140533,0,
00:00.4,0.001327515,-0.006511688,0.0151577,0,
00:00.4,0.001327515,-0.006500244,0.0151577,0,
00:00.4,0.001356125,-0.006448746,0.015169144,0,
00:00.4,0.001396179,-0.006374359,0.015151978,0,
00:00.4,0.001356125,-0.00643158,0.0151577,0,
00:00.4,0.001356125,-0.006465912,0.015180588,0,
00:00.4,0.001338959,-0.00646019,0.01518631,0,
00:00.4,0.001350403,-0.006437302,0.015174866,0,
00:00.4,0.001350403,-0.00646019,0.015180588,0,
00:00.4,0.001344681,-0.006448746,0.01518631,0,
00:00.4,0.001350403,-0.00646019,0.015192032,0,
00:00.4,0.001373291,-0.006437302,0.015192032,0,
00:00.5,0.001384735,-0.006414413,0.015197754,0,
00:00.5,0.001407623,-0.006340027,0.015174866,0,
00:00.5,0.001344681,-0.006477356,0.015192032,0,
00:00.5,0.001333237,-0.0064888,0.015226364,0,
00:00.5,0.001333237,-0.006494522,0.015209198,0,
00:00.5,0.001356125,-0.006437302,0.015226364,0,
00:00.5,0.001350403,-0.006465912,0.015203476,0,
00:00.5,0.001356125,-0.006465912,0.01521492,0,
00:00.5,0.001367569,-0.006414413,0.015232086,0,
00:00.5,0.001390457,-0.006380081,0.015226364,0,
00:00.5,0.001379013,-0.00646019,0.015232086,0,
00:00.5,0.001344681,-0.006477356,0.015232086,0,
00:00.5,0.001338959,-0.006500244,0.015237808,0,
00:00.5,0.001356125,-0.00646019,0.015237808,0,
00:00.5,0.001379013,-0.006385803,0.015254974,0,
00:00.5,0.001373291,-0.006420135,0.015249252,0,
00:00.5,0.001384735,-0.006425858,0.015237808,0,
00:00.5,0.001367569,-0.006454468,0.01524353,0,
00:00.5,0.001367569,-0.006443024,0.015249252,0,
00:00.5,0.001373291,-0.006420135,0.015249252,0,
00:00.5,0.001356125,-0.00646019,0.015260696,0,
00:00.5,0.001373291,-0.006454468,0.015260696,0,
00:00.5,0.001396179,-0.006402969,0.015260696,0,
00:00.5,0.001373291,-0.006420135,0.015283585,0,
00:00.5,0.001361847,-0.006448746,0.015277863,0,
00:00.6,0.001379013,-0.006420135,0.015289307,0,
00:00.6,0.001384735,-0.006408691,0.015289307,0,
00:00.6,0.001379013,-0.006408691,0.015277863,0,
00:00.6,0.001413345,-0.006357193,0.015266418,0,
00:00.6,0.001373291,-0.006437302,0.015277863,0,
00:00.6,0.001327515,-0.00651741,0.015300751,0,
00:00.6,0.001373291,-0.00646019,0.015300751,0,
00:00.6,0.001379013,-0.006425858,0.015306473,0,
00:00.6,0.001390457,-0.006391525,0.015306473,0,
00:00.6,0.001413345,-0.006374359,0.015306473,0,
00:00.6,0.001390457,-0.006425858,0.015329361,0,
00:00.6,0.001384735,-0.006414413,0.015317917,0,
00:00.6,0.001338959,-0.006494522,0.015317917,0,
00:00.6,0.001321793,-0.006511688,0.015323639,0,
00:00.6,0.001361847,-0.006454468,0.015323639,0,
00:00.6,0.001390457,-0.006414413,0.015340805,0,
00:00.6,0.001436234,-0.006328583,0.015317917,0,
00:00.6,0.001413345,-0.006362915,0.015323639,0,
00:00.6,0.001379013,-0.006425858,0.015335083,0,
00:00.6,0.001373291,-0.006437302,0.015346527,0,
00:00.6,0.001373291,-0.006443024,0.015363693,0,
00:00.6,0.001379013,-0.00643158,0.015357971,0,
00:00.6,0.001401901,-0.006402969,0.015335083,0,
00:00.6,0.001413345,-0.006380081,0.015352249,0,
00:00.6,0.001390457,-0.006420135,0.015357971,0,
00:00.7,0.001390457,-0.006408691,0.015375137,0,
00:00.7,0.001390457,-0.006408691,0.015380859,0,
00:00.7,0.001419067,-0.006385803,0.015363693,0,
00:00.7,0.001436234,-0.006345749,0.015357971,0,
00:00.7,0.001390457,-0.006420135,0.015369415,0,
00:00.7,0.001373291,-0.006448746,0.015375137,0,
00:00.7,0.001373291,-0.006437302,0.015380859,0,
00:00.7,0.001384735,-0.006391525,0.015392303,0,
00:00.7,0.001384735,-0.006414413,0.015386581,0,
00:00.7,0.001390457,-0.006420135,0.015403748,0,
00:00.7,0.001401901,-0.006425858,0.015386581,0,
00:00.7,0.001401901,-0.006408691,0.015386581,0,
00:00.7,0.001396179,-0.006402969,0.015386581,0,
00:00.7,0.001413345,-0.006368637,0.015380859,0,
00:00.7,0.001413345,-0.006368637,0.015398026,0,
00:00.7,0.001401901,-0.006402969,0.015415192,0,
00:00.7,0.001407623,-0.006391525,0.015398026,0,
00:00.7,0.001430511,-0.006345749,0.015392303,0,
00:00.7,0.001441956,-0.006351471,0.015386581,0,
00:00.7,0.001390457,-0.006374359,0.01540947,0,
00:00.7,0.001379013,-0.006425858,0.015426636,0,
00:00.7,0.001379013,-0.00643158,0.015426636,0,
00:00.7,0.001401901,-0.006402969,0.015415192,0,
00:00.7,0.001396179,-0.006408691,0.015415192,0,
00:00.7,0.001407623,-0.006385803,0.015432358,0,
00:00.8,0.001407623,-0.006385803,0.015426636,0,
00:00.8,0.001413345,-0.006380081,0.015420914,0,
00:00.8,0.001436234,-0.006368637,0.01543808,0,
00:00.8,0.001430511,-0.006362915,0.01543808,0,
00:00.8,0.001419067,-0.006368637,0.01543808,0,
00:00.8,0.001373291,-0.006454468,0.015426636,0,
00:00.8,0.001356125,-0.006448746,0.015443802,0,
00:00.8,0.001419067,-0.006345749,0.015443802,0,
00:00.8,0.001441956,-0.006328583,0.015449524,0,
00:00.8,0.001396179,-0.006420135,0.015443802,0,
00:00.8,0.001396179,-0.006391525,0.015455246,0,
00:00.8,0.001436234,-0.006322861,0.015449524,0,
00:00.8,0.001430511,-0.006340027,0.015449524,0,
00:00.8,0.001407623,-0.006402969,0.015449524,0,
00:00.8,0.001413345,-0.006397247,0.015460968,0,
00:00.8,0.001413345,-0.006391525,0.01546669,0,
00:00.8,0.001413345,-0.006380081,0.01546669,0,
00:00.8,0.001436234,-0.006368637,0.01546669,0,
00:00.8,0.001436234,-0.006357193,0.015449524,0,
00:00.8,0.001407623,-0.006385803,0.015478134,0,
00:00.8,0.001401901,-0.006391525,0.015489578,0,
00:00.8,0.001407623,-0.006380081,0.015478134,0,
00:00.8,0.001424789,-0.006374359,0.015472412,0,
00:00.8,0.001430511,-0.006362915,0.015489578,0,
00:00.8,0.001419067,-0.006362915,0.015489578,0,
00:00.9,0.001413345,-0.006408691,0.015478134,0,
00:00.9,0.001419067,-0.006374359,0.015483856,0,
00:00.9,0.001430511,-0.006374359,0.015489578,0,
00:00.9,0.001419067,-0.006385803,0.015501022,0,
00:00.9,0.001413345,-0.006368637,0.015489578,0,
00:00.9,0.001436234,-0.006334305,0.015501022,0,
00:00.9,0.001447678,-0.006322861,0.0154953,0,
00:00.9,0.001419067,-0.006391525,0.015506744,0,
00:00.9,0.001413345,-0.006397247,0.015501022,0,
00:00.9,0.001419067,-0.006374359,0.015501022,0,
00:00.9,0.001424789,-0.006357193,0.015518188,0,
00:00.9,0.001441956,-0.006334305,0.015518188,0,
00:00.9,0.001436234,-0.006357193,0.015512466,0,
00:00.9,0.001424789,-0.006368637,0.015512466,0,
00:00.9,0.001436234,-0.006351471,0.015518188,0,
00:00.9,0.001447678,-0.006345749,0.015512466,0,
00:00.9,0.001430511,-0.006351471,0.015506744,0,
00:00.9,0.001413345,-0.006368637,0.015518188,0,
00:00.9,0.001407623,-0.006380081,0.015535355,0,
00:00.9,0.001436234,-0.006374359,0.015529633,0,
00:00.9,0.001441956,-0.006368637,0.015535355,0,
00:00.9,0.001424789,-0.006351471,0.015535355,0,
00:00.9,0.001441956,-0.006322861,0.015523911,0,
00:00.9,0.001447678,-0.006322861,0.015518188,0,
00:00.9,0.001436234,-0.006340027,0.015535355,0,
00:01.0,0.001413345,-0.006380081,0.015541077,0,
00:01.0,0.001419067,-0.006368637,0.015535355,0,
00:01.0,0.001430511,-0.006345749,0.015529633,0,
00:01.0,0.0014534,-0.006334305,0.015535355,0,
00:01.0,0.001430511,-0.006357193,0.015541077,0,
00:01.0,0.001430511,-0.006357193,0.015546799,0,
00:01.0,0.001441956,-0.006362915,0.015541077,0,
00:01.0,0.001430511,-0.006357193,0.015541077,0,
00:01.0,0.001441956,-0.006357193,0.015552521,0,
00:01.0,0.001459122,-0.006334305,0.015552521,0,
00:01.0,0.001436234,-0.006345749,0.015558243,0,
00:01.0,0.001436234,-0.006334305,0.015552521,0,
00:00:01,0.001436234,-0.006322861,0.015552521,0,
00:01.0,0.001441956,-0.006317139,0.015558243,0,
00:01.0,0.001447678,-0.006345749,0.015563965,0,
00:01.0,0.001470566,-0.006311417,0.015558243,0,
00:01.0,0.0014534,-0.006311417,0.015552521,0,
00:01.0,0.001419067,-0.006385803,0.015569687,0,
00:01.0,0.001441956,-0.006362915,0.015575409,0,
00:01.0,0.001447678,-0.006345749,0.015581131,0,
00:01.0,0.001430511,-0.006334305,0.015586853,0,
00:01.0,0.001430511,-0.006357193,0.015575409,0,
00:01.0,0.001447678,-0.006322861,0.015563965,0,
00:01.0,0.0014534,-0.006317139,0.015581131,0,
00:01.0,0.001447678,-0.006317139,0.015581131,0,
00:01.1,0.0014534,-0.006322861,0.015575409,0,
00:01.1,0.001459122,-0.006311417,0.015581131,0,
00:01.1,0.001464844,-0.006311417,0.015581131,0,
00:01.1,0.001430511,-0.006340027,0.015581131,0,
00:01.1,0.001441956,-0.006299973,0.015586853,0,
00:01.1,0.001447678,-0.006340027,0.015615463,0,
00:01.1,0.001436234,-0.006357193,0.015586853,0,
00:01.1,0.001447678,-0.006345749,0.015592575,0,
00:01.1,0.001436234,-0.006362915,0.015598297,0,
00:01.1,0.001441956,-0.006345749,0.015604019,0,
00:01.1,0.001441956,-0.006328583,0.015609741,0,
00:01.1,0.001441956,-0.006328583,0.015604019,0,
00:01.1,0.001441956,-0.006311417,0.015604019,0,
00:01.1,0.001470566,-0.00629425,0.015604019,0,
00:01.1,0.001476288,-0.00629425,0.015609741,0,
00:01.1,0.001476288,-0.006277084,0.015609741,0,
00:01.1,0.001436234,-0.006357193,0.015604019,0,
00:01.1,0.001436234,-0.006351471,0.015615463,0,
00:01.1,0.001441956,-0.006328583,0.015615463,0,
00:01.1,0.0014534,-0.006334305,0.015621185,0,
00:01.1,0.001447678,-0.006340027,0.015626907,0,
00:01.1,0.0014534,-0.006317139,0.015621185,0,
00:01.1,0.001459122,-0.006311417,0.015621185,0,
00:01.1,0.0014534,-0.006334305,0.015615463,0,
00:01.1,0.0014534,-0.006322861,0.015621185,0,
00:01.2,0.001470566,-0.006282806,0.015626907,0,
00:01.2,0.001459122,-0.006288528,0.015632629,0,
00:01.2,0.001459122,-0.00629425,0.015638351,0,
00:01.2,0.001459122,-0.00629425,0.015621185,0,
00:01.2,0.0014534,-0.006311417,0.015626907,0,
00:01.2,0.001419067,-0.006368637,0.015644073,0,
00:01.2,0.001430511,-0.006362915,0.015626907,0,
00:01.2,0.001459122,-0.006311417,0.015632629,0,
00:01.2,0.0014534,-0.006305695,0.015632629,0,
00:01.2,0.001459122,-0.00629425,0.015638351,0,
00:01.2,0.001470566,-0.006299973,0.015638351,0,
00:01.2,0.001464844,-0.006305695,0.015638351,0,
00:01.2,0.001470566,-0.006288528,0.015638351,0,
00:01.2,0.00148201,-0.006248474,0.015638351,0,
00:01.2,0.0014534,-0.006311417,0.015655518,0,
00:01.2,0.001430511,-0.006368637,0.015655518,0,
00:01.2,0.0014534,-0.006328583,0.015649796,0,
00:01.2,0.001459122,-0.006299973,0.015649796,0,
00:01.2,0.001464844,-0.00629425,0.015649796,0,
00:01.2,0.00148201,-0.006271362,0.015644073,0,
00:01.2,0.001459122,-0.006299973,0.01566124,0,
00:01.2,0.001447678,-0.006322861,0.01566124,0,
00:01.2,0.001459122,-0.006299973,0.015655518,0,
00:01.2,0.00148201,-0.00626564,0.01566124,0,
00:01.2,0.001459122,-0.006305695,0.015649796,0,
00:01.3,0.001447678,-0.006340027,0.015655518,0,
00:01.3,0.001447678,-0.006345749,0.015666962,0,
00:01.3,0.001459122,-0.006305695,0.015666962,0,
00:01.3,0.001459122,-0.006288528,0.015655518,0,
00:01.3,0.0014534,-0.006277084,0.015672684,0,
00:01.3,0.001459122,-0.00629425,0.015666962,0,
00:01.3,0.001459122,-0.00629425,0.015666962,0,
00:01.3,0.001464844,-0.006305695,0.01566124,0,
00:01.3,0.001470566,-0.006299973,0.015666962,0,
00:01.3,0.001459122,-0.006299973,0.015672684,0,
00:01.3,0.0014534,-0.006305695,0.015672684,0,
00:01.3,0.001459122,-0.006299973,0.015672684,0,
00:01.3,0.001459122,-0.006311417,0.015678406,0,
00:01.3,0.001464844,-0.006305695,0.015672684,0,
00:01.3,0.001470566,-0.006305695,0.015672684,0,
00:01.3,0.001464844,-0.00629425,0.015678406,0,
00:01.3,0.001464844,-0.00626564,0.015678406,0,
00:01.3,0.001470566,-0.006277084,0.015672684,0,
00:01.3,0.001447678,-0.006322861,0.015684128,0,
00:01.3,0.001464844,-0.00629425,0.01568985,0,
00:01.3,0.001476288,-0.006271362,0.015695572,0,
00:01.3,0.001470566,-0.006277084,0.015684128,0,
00:01.3,0.001459122,-0.006299973,0.01568985,0,
00:01.3,0.0014534,-0.006305695,0.015684128,0,
00:01.3,0.001464844,-0.006299973,0.015695572,0,
00:01.4,0.001476288,-0.006282806,0.015695572,0,
00:01.4,0.001470566,-0.006311417,0.015684128,0,
00:01.4,0.001470566,-0.006317139,0.015684128,0,
00:01.4,0.001476288,-0.006277084,0.015695572,0,
00:01.4,0.001470566,-0.00626564,0.01568985,0,
00:01.4,0.0014534,-0.006282806,0.015695572,0,
00:01.4,0.001459122,-0.006288528,0.015695572,0,
00:01.4,0.001464844,-0.00626564,0.015695572,0,
00:01.4,0.001459122,-0.006305695,0.015701294,0,
00:01.4,0.001470566,-0.006317139,0.015701294,0,
00:01.4,0.001464844,-0.00629425,0.015695572,0,
00:01.4,0.001470566,-0.006288528,0.015695572,0,
00:01.4,0.001476288,-0.006277084,0.015695572,0,
00:01.4,0.001470566,-0.006288528,0.015707016,0,
00:01.4,0.001476288,-0.006271362,0.015707016,0,
00:01.4,0.001476288,-0.00626564,0.015712738,0,
00:01.4,0.00148201,-0.006277084,0.015695572,0,
00:01.4,0.001470566,-0.006282806,0.015695572,0,
00:01.4,0.0014534,-0.006299973,0.015707016,0,
00:01.4,0.001459122,-0.006305695,0.015724182,0,
00:01.4,0.001476288,-0.00629425,0.015707016,0,
00:01.4,0.001470566,-0.006277084,0.015695572,0,
00:01.4,0.001476288,-0.006277084,0.015707016,0,
00:01.4,0.001470566,-0.00626564,0.015707016,0,
00:01.4,0.001470566,-0.006277084,0.01571846,0,
00:01.5,0.001470566,-0.006282806,0.015724182,0,
00:01.5,0.001487732,-0.006259918,0.015712738,0,
00:01.5,0.001487732,-0.006248474,0.015712738,0,
00:01.5,0.001441956,-0.00629425,0.015724182,0,
00:01.5,0.001436234,-0.006334305,0.01571846,0,
00:01.5,0.0014534,-0.006311417,0.015712738,0,
00:01.5,0.001476288,-0.00626564,0.01571846,0,
00:01.5,0.001464844,-0.00626564,0.015712738,0,
00:01.5,0.001470566,-0.00629425,0.01571846,0,
00:01.5,0.001470566,-0.006299973,0.015724182,0,
00:01.5,0.001464844,-0.006311417,0.01571846,0,
00:01.5,0.001470566,-0.006282806,0.01571846,0,
00:01.5,0.001493454,-0.00623703,0.015707016,0,
00:01.5,0.001476288,-0.00626564,0.015712738,0,
00:01.5,0.001464844,-0.006288528,0.01571846,0,
00:01.5,0.001459122,-0.00629425,0.015724182,0,
00:01.5,0.001470566,-0.006288528,0.01571846,0,
00:01.5,0.001476288,-0.00629425,0.01571846,0,
00:01.5,0.001476288,-0.00626564,0.015729904,0,
00:01.5,0.001470566,-0.006248474,0.015729904,0,
00:01.5,0.0014534,-0.006305695,0.015724182,0,
00:01.5,0.001464844,-0.006305695,0.015724182,0,
00:01.5,0.001476288,-0.00626564,0.015724182,0,
00:01.5,0.001476288,-0.006259918,0.015724182,0,
00:01.5,0.001470566,-0.006288528,0.015729904,0,
00:01.6,0.00148201,-0.006271362,0.015735626,0,
00:01.6,0.00148201,-0.006271362,0.015724182,0,
00:01.6,0.001464844,-0.006282806,0.01571846,0,
00:01.6,0.0014534,-0.00629425,0.015729904,0,
00:01.6,0.0014534,-0.006288528,0.015741348,0,
00:01.6,0.001470566,-0.00626564,0.015729904,0,
00:01.6,0.001476288,-0.006271362,0.015724182,0,
00:01.6,0.001470566,-0.006277084,0.015724182,0,
00:01.6,0.001464844,-0.006288528,0.015724182,0,
00:01.6,0.001459122,-0.00629425,0.015735626,0,
00:01.6,0.001476288,-0.006282806,0.015741348,0,
00:01.6,0.00148201,-0.006271362,0.015729904,0,
00:01.6,0.001487732,-0.006254196,0.015724182,0,
00:01.6,0.001476288,-0.006259918,0.015729904,0,
00:01.6,0.001470566,-0.00626564,0.015735626,0,
00:01.6,0.001459122,-0.006277084,0.015729904,0,
00:01.6,0.001447678,-0.006328583,0.015741348,0,
00:01.6,0.001459122,-0.006277084,0.01574707,0,
00:01.6,0.001470566,-0.00623703,0.015752792,0,
00:01.6,0.001487732,-0.006242752,0.015752792,0,
00:01.6,0.001493454,-0.00626564,0.015735626,0,
00:01.6,0.0014534,-0.006322861,0.015741348,0,
00:01.6,0.0014534,-0.00629425,0.015741348,0,
00:01.6,0.001464844,-0.006271362,0.015741348,0,
00:01.6,0.001476288,-0.006248474,0.015741348,0,
00:01.7,0.00148201,-0.006254196,0.015752792,0,
00:01.7,0.001476288,-0.00626564,0.01574707,0,
00:01.7,0.001441956,-0.006299973,0.01574707,0,
00:01.7,0.001441956,-0.00629425,0.015741348,0,
00:01.7,0.001493454,-0.006242752,0.015752792,0,
00:01.7,0.001476288,-0.00626564,0.01574707,0,
00:01.7,0.001476288,-0.00626564,0.015752792,0,
00:01.7,0.001470566,-0.006271362,0.015752792,0,
00:01.7,0.001464844,-0.00626564,0.01574707,0,
00:01.7,0.001470566,-0.006259918,0.015758514,0,
00:01.7,0.001470566,-0.00626564,0.015752792,0,
00:01.7,0.001459122,-0.006282806,0.01574707,0,
00:01.7,0.001464844,-0.006299973,0.015758514,0,
00:01.7,0.001464844,-0.006271362,0.015758514,0,
00:01.7,0.00148201,-0.006219864,0.015758514,0,
00:01.7,0.001487732,-0.006231308,0.015758514,0,
00:01.7,0.001476288,-0.006242752,0.015758514,0,
00:01.7,0.001476288,-0.006248474,0.015752792,0,
00:01.7,0.001499176,-0.006202698,0.015758514,0,
00:01.7,0.001476288,-0.006248474,0.015758514,0,
00:01.7,0.0014534,-0.00629425,0.015758514,0,
00:01.7,0.001447678,-0.00629425,0.015758514,0,
00:01.7,0.001447678,-0.00629425,0.015758514,0,
00:01.7,0.001476288,-0.006259918,0.015758514,0,
00:01.7,0.001487732,-0.006242752,0.015758514,0,
00:01.8,0.001470566,-0.006259918,0.015764236,0,
00:01.8,0.001470566,-0.006259918,0.015758514,0,
00:01.8,0.001464844,-0.006282806,0.015764236,0,
00:01.8,0.001459122,-0.006282806,0.015758514,0,
00:01.8,0.001470566,-0.006248474,0.015764236,0,
00:01.8,0.00148201,-0.006231308,0.015764236,0,
00:01.8,0.001499176,-0.00620842,0.015758514,0,
00:01.8,0.001487732,-0.00623703,0.015758514,0,
00:01.8,0.001464844,-0.006277084,0.015764236,0,
00:01.8,0.001459122,-0.006282806,0.015769958,0,
00:01.8,0.0014534,-0.006282806,0.015775681,0,
00:01.8,0.001476288,-0.006248474,0.015764236,0,
00:01.8,0.00148201,-0.00623703,0.015764236,0,
00:01.8,0.001476288,-0.006254196,0.015764236,0,
00:01.8,0.001487732,-0.006248474,0.015775681,0,
00:01.8,0.001493454,-0.006225586,0.015775681,0,
00:01.8,0.001499176,-0.00620842,0.015752792,0,
00:01.8,0.00148201,-0.006254196,0.015764236,0,
00:01.8,0.001470566,-0.006271362,0.015769958,0,
00:01.8,0.00148201,-0.00623703,0.015781403,0,
00:01.8,0.001459122,-0.006282806,0.015787125,0,
00:01.8,0.001447678,-0.006311417,0.015769958,0,
00:01.8,0.001470566,-0.00626564,0.015764236,0,
00:01.8,0.001487732,-0.006225586,0.015764236,0,
00:01.8,0.001487732,-0.006219864,0.015775681,0,
00:01.9,0.001476288,-0.006254196,0.015775681,0,
00:01.9,0.001464844,-0.006271362,0.015775681,0,
00:01.9,0.001464844,-0.00626564,0.015769958,0,
00:01.9,0.001470566,-0.006254196,0.015775681,0,
00:01.9,0.00148201,-0.006219864,0.015781403,0,
00:01.9,0.001493454,-0.00620842,0.015781403,0,
00:01.9,0.001487732,-0.006231308,0.015781403,0,
00:01.9,0.001476288,-0.00623703,0.015787125,0,
00:01.9,0.001464844,-0.006254196,0.015775681,0,
00:01.9,0.001464844,-0.006259918,0.015781403,0,
00:01.9,0.001476288,-0.006271362,0.015781403,0,
00:01.9,0.001476288,-0.006248474,0.015781403,0,
00:01.9,0.001487732,-0.00623703,0.015781403,0,
00:01.9,0.001476288,-0.006248474,0.015775681,0,
00:01.9,0.001487732,-0.006214142,0.015781403,0,
00:01.9,0.001470566,-0.006242752,0.015787125,0,
00:01.9,0.001459122,-0.006271362,0.015798569,0,
00:01.9,0.0014534,-0.006271362,0.015781403,0,
00:01.9,0.001459122,-0.006259918,0.015775681,0,
00:01.9,0.001470566,-0.006248474,0.015787125,0,
00:01.9,0.00148201,-0.006254196,0.015775681,0,
00:01.9,0.001470566,-0.006242752,0.015781403,0,
00:01.9,0.00148201,-0.006219864,0.015775681,0,
00:01.9,0.001470566,-0.006231308,0.015787125,0,
00:01.9,0.0014534,-0.006248474,0.015792847,0,
00:02.0,0.001447678,-0.006254196,0.015792847,0,
00:02.0,0.001470566,-0.006254196,0.015792847,0,
00:02.0,0.001487732,-0.00623703,0.015787125,0,
00:02.0,0.001476288,-0.00623703,0.015792847,0,
00:02.0,0.001470566,-0.006231308,0.015804291,0,
00:02.0,0.001476288,-0.006231308,0.015798569,0,
00:02.0,0.001476288,-0.006242752,0.015787125,0,
00:02.0,0.001470566,-0.006254196,0.015787125,0,
00:02.0,0.001470566,-0.006259918,0.015792847,0,
00:02.0,0.00148201,-0.006231308,0.015798569,0,
00:02.0,0.001470566,-0.006231308,0.015798569,0,
00:02.0,0.001464844,-0.006242752,0.015787125,0,
00:00:02,0.001476288,-0.006242752,0.015781403,0,
00:02.0,0.001459122,-0.006271362,0.015787125,0,
00:02.0,0.0014534,-0.006282806,0.015810013,0,
00:02.0,0.001476288,-0.006214142,0.015804291,0,
00:02.0,0.001476288,-0.006191254,0.015798569,0,
00:02.0,0.00148201,-0.006231308,0.015804291,0,
00:02.0,0.001470566,-0.006248474,0.015787125,0,
00:02.0,0.001470566,-0.006242752,0.015792847,0,
00:02.0,0.001470566,-0.006231308,0.015798569,0,
00:02.0,0.001464844,-0.00623703,0.015798569,0,
00:02.0,0.001464844,-0.006248474,0.015798569,0,
00:02.0,0.001470566,-0.006248474,0.015798569,0,
00:02.0,0.001476288,-0.006231308,0.015792847,0,
00:02.1,0.001476288,-0.006231308,0.015792847,0,
00:02.1,0.001470566,-0.006225586,0.015798569,0,
00:02.1,0.0014534,-0.00623703,0.015798569,0,
00:02.1,0.001470566,-0.00623703,0.015798569,0,
00:02.1,0.001470566,-0.006254196,0.015804291,0,
00:02.1,0.001470566,-0.006248474,0.015804291,0,
00:02.1,0.001464844,-0.00623703,0.015798569,0,
00:02.1,0.00148201,-0.006219864,0.015798569,0,
00:02.1,0.001476288,-0.00623703,0.015798569,0,
00:02.1,0.001459122,-0.006248474,0.015798569,0,
00:02.1,0.001476288,-0.006219864,0.015804291,0,
00:02.1,0.001470566,-0.006225586,0.015792847,0,
00:02.1,0.001464844,-0.00623703,0.015798569,0,
00:02.1,0.001459122,-0.006242752,0.015798569,0,
00:02.1,0.001459122,-0.006214142,0.015798569,0,
00:02.1,0.00148201,-0.00620842,0.015798569,0,
00:02.1,0.00148201,-0.006214142,0.015787125,0,
00:02.1,0.001459122,-0.006219864,0.015798569,0,
00:02.1,0.001464844,-0.006225586,0.015798569,0,
00:02.1,0.001476288,-0.006231308,0.015804291,0,
00:02.1,0.001464844,-0.006231308,0.015810013,0,
00:02.1,0.001459122,-0.006242752,0.015804291,0,
00:02.1,0.001459122,-0.006231308,0.015798569,0,
00:02.1,0.001464844,-0.006231308,0.015804291,0,
00:02.1,0.001476288,-0.006219864,0.015810013,0,
00:02.2,0.001464844,-0.006225586,0.015810013,0,
00:02.2,0.001464844,-0.00623703,0.015804291,0,
00:02.2,0.001459122,-0.006248474,0.015804291,0,
00:02.2,0.001459122,-0.006242752,0.015804291,0,
00:02.2,0.0014534,-0.00623703,0.015810013,0,
00:02.2,0.001441956,-0.00623703,0.015810013,0,
00:02.2,0.001459122,-0.00623703,0.015804291,0,
00:02.2,0.001470566,-0.006219864,0.015804291,0,
00:02.2,0.001464844,-0.00620842,0.015810013,0,
00:02.2,0.0014534,-0.006231308,0.015804291,0,
00:02.2,0.0014534,-0.006242752,0.015810013,0,
00:02.2,0.001447678,-0.006231308,0.015804291,0,
00:02.2,0.001459122,-0.006191254,0.015804291,0,
00:02.2,0.001476288,-0.006174088,0.015804291,0,
00:02.2,0.001470566,-0.00620842,0.015810013,0,
00:02.2,0.001459122,-0.006242752,0.015804291,0,
00:02.2,0.001441956,-0.006259918,0.015810013,0,
00:02.2,0.001447678,-0.006259918,0.015810013,0,
00:02.2,0.0014534,-0.006231308,0.015810013,0,
00:02.2,0.001459122,-0.006219864,0.015804291,0,
00:02.2,0.001447678,-0.006242752,0.015815735,0,
00:02.2,0.001436234,-0.006242752,0.015815735,0,
00:02.2,0.001447678,-0.006231308,0.015815735,0,
00:02.2,0.001464844,-0.006191254,0.015815735,0,
00:02.2,0.001470566,-0.006202698,0.015810013,0,
00:02.3,0.001459122,-0.006219864,0.015810013,0,
00:02.3,0.001436234,-0.00626564,0.015810013,0,
00:02.3,0.001436234,-0.006277084,0.015810013,0,
00:02.3,0.001447678,-0.006242752,0.015815735,0,
00:02.3,0.001459122,-0.006185532,0.015821457,0,
00:02.3,0.001459122,-0.00617981,0.015815735,0,
00:02.3,0.001464844,-0.006202698,0.015810013,0,
00:02.3,0.001464844,-0.006214142,0.015804291,0,
00:02.3,0.0014534,-0.006214142,0.015827179,0,
00:02.3,0.001447678,-0.00620842,0.015821457,0,
00:02.3,0.001436234,-0.006231308,0.015815735,0,
00:02.3,0.001430511,-0.006248474,0.015815735,0,
00:02.3,0.001447678,-0.00623703,0.015810013,0,
00:02.3,0.0014534,-0.006242752,0.015815735,0,
00:02.3,0.001447678,-0.006242752,0.015815735,0,
00:02.3,0.001441956,-0.006225586,0.015810013,0,
00:02.3,0.001447678,-0.00620842,0.015810013,0,
00:02.3,0.001447678,-0.006219864,0.015815735,0,
00:02.3,0.001441956,-0.006231308,0.015815735,0,
00:02.3,0.001430511,-0.00623703,0.015821457,0,
00:02.3,0.001430511,-0.006231308,0.015821457,0,
00:02.3,0.001441956,-0.006225586,0.015815735,0,
00:02.3,0.0014534,-0.006214142,0.015810013,0,
00:02.3,0.001464844,-0.006185532,0.015810013,0,
00:02.3,0.001464844,-0.006214142,0.015810013,0,
00:02.4,0.001436234,-0.006242752,0.015832901,0,
00:02.4,0.001436234,-0.006225586,0.015815735,0,
00:02.4,0.001441956,-0.00623703,0.015804291,0,
00:02.4,0.001459122,-0.006214142,0.015810013,0,
00:02.4,0.0014534,-0.00620842,0.015821457,0,
00:02.4,0.001441956,-0.006219864,0.015821457,0,
00:02.4,0.001413345,-0.006259918,0.015821457,0,
00:02.4,0.001419067,-0.006271362,0.015821457,0,
00:02.4,0.001424789,-0.00626564,0.015821457,0,
00:02.4,0.001436234,-0.006225586,0.015827179,0,
00:02.4,0.001441956,-0.006219864,0.015821457,0,
00:02.4,0.001436234,-0.006248474,0.015827179,0,
00:02.4,0.001436234,-0.006248474,0.015815735,0,
00:02.4,0.001447678,-0.006231308,0.015832901,0,
00:02.4,0.0014534,-0.006202698,0.015821457,0,
00:02.4,0.001430511,-0.00623703,0.015815735,0,
00:02.4,0.001419067,-0.006254196,0.015827179,0,
00:02.4,0.001430511,-0.006231308,0.015821457,0,
00:02.4,0.001436234,-0.006219864,0.015821457,0,
00:02.4,0.001436234,-0.006242752,0.015832901,0,
00:02.4,0.001447678,-0.00623703,0.015827179,0,
00:02.4,0.001447678,-0.006219864,0.015815735,0,
00:02.4,0.001436234,-0.006242752,0.015815735,0,
00:02.4,0.001424789,-0.00626564,0.015827179,0,
00:02.4,0.001430511,-0.00623703,0.015838623,0,
00:02.5,0.001424789,-0.006248474,0.015832901,0,
00:02.5,0.001424789,-0.00626564,0.015821457,0,
00:02.5,0.001424789,-0.006259918,0.015815735,0,
00:02.5,0.001430511,-0.006259918,0.015827179,0,
00:02.5,0.001430511,-0.006225586,0.015838623,0,
00:02.5,0.001430511,-0.006231308,0.015838623,0,
00:02.5,0.001419067,-0.006254196,0.015832901,0,
00:02.5,0.001430511,-0.006271362,0.015827179,0,
00:02.5,0.001430511,-0.006254196,0.015832901,0,
00:02.5,0.001419067,-0.006271362,0.015838623,0,
00:02.5,0.001424789,-0.006277084,0.015832901,0,
00:02.5,0.001424789,-0.006254196,0.015832901,0,
00:02.5,0.001430511,-0.006248474,0.015832901,0,
00:02.5,0.001430511,-0.006242752,0.015838623,0,
00:02.5,0.001441956,-0.00623703,0.015832901,0,
00:02.5,0.001441956,-0.006242752,0.015832901,0,
00:02.5,0.001430511,-0.006254196,0.015832901,0,
00:02.5,0.001419067,-0.006277084,0.015827179,0,
00:02.5,0.001419067,-0.006277084,0.015838623,0,
00:02.5,0.001436234,-0.006231308,0.015838623,0,
00:02.5,0.001424789,-0.00626564,0.015827179,0,
00:02.5,0.001401901,-0.006299973,0.015832901,0,
00:02.5,0.001424789,-0.006271362,0.015827179,0,
00:02.5,0.001436234,-0.006242752,0.015832901,0,
00:02.5,0.001430511,-0.006254196,0.015844345,0,
00:02.6,0.001419067,-0.006271362,0.015844345,0,
00:02.6,0.001424789,-0.006271362,0.015827179,0,
00:02.6,0.001419067,-0.006271362,0.015827179,0,
00:02.6,0.001407623,-0.006271362,0.015838623,0,
00:02.6,0.001419067,-0.006271362,0.015850067,0,
00:02.6,0.001419067,-0.006299973,0.015844345,0,
00:02.6,0.001419067,-0.006299973,0.015844345,0,
00:02.6,0.001407623,-0.006288528,0.015838623,0,
00:02.6,0.001419067,-0.00629425,0.015850067,0,
00:02.6,0.001430511,-0.006277084,0.015855789,0,
00:02.6,0.001441956,-0.006242752,0.015855789,0,
00:02.6,0.001441956,-0.006248474,0.015844345,0,
00:02.6,0.001419067,-0.006299973,0.015850067,0,
00:02.6,0.001413345,-0.006305695,0.015855789,0,
00:02.6,0.001419067,-0.006305695,0.015850067,0,
00:02.6,0.001413345,-0.00629425,0.015850067,0,
00:02.6,0.001419067,-0.006282806,0.015861511,0,
00:02.6,0.001424789,-0.006282806,0.015850067,0,
00:02.6,0.001419067,-0.006282806,0.015855789,0,
00:02.6,0.001413345,-0.00629425,0.015867233,0,
00:02.6,0.001413345,-0.006311417,0.015861511,0,
00:02.6,0.001419067,-0.006299973,0.015855789,0,
00:02.6,0.001413345,-0.006299973,0.015855789,0,
00:02.6,0.001430511,-0.006277084,0.015861511,0,
00:02.6,0.001424789,-0.006277084,0.015878677,0,
00:02.7,0.001413345,-0.006305695,0.015878677,0,
00:02.7,0.001407623,-0.006311417,0.015867233,0,
00:02.7,0.001413345,-0.006305695,0.015872955,0,
00:02.7,0.001424789,-0.00629425,0.015872955,0,
00:02.7,0.001419067,-0.006305695,0.015884399,0,
00:02.7,0.001401901,-0.006311417,0.015884399,0,
00:02.7,0.001419067,-0.006299973,0.015878677,0,
00:02.7,0.001424789,-0.006311417,0.015878677,0,
00:02.7,0.001407623,-0.006328583,0.015878677,0,
00:02.7,0.001407623,-0.006317139,0.015890121,0,
00:02.7,0.001424789,-0.006288528,0.015890121,0,
00:02.7,0.001424789,-0.006299973,0.015890121,0,
00:02.7,0.001430511,-0.006288528,0.015878677,0,
00:02.7,0.001401901,-0.006317139,0.015895844,0,
00:02.7,0.001396179,-0.006322861,0.015901566,0,
00:02.7,0.001401901,-0.006322861,0.015895844,0,
00:02.7,0.001419067,-0.006322861,0.015895844,0,
00:02.7,0.001419067,-0.006317139,0.015895844,0,
00:02.7,0.001413345,-0.006317139,0.015895844,0,
00:02.7,0.001424789,-0.006299973,0.015901566,0,
00:02.7,0.001424789,-0.006305695,0.015895844,0,
00:02.7,0.001390457,-0.006357193,0.015895844,0,
00:02.7,0.001396179,-0.006345749,0.015901566,0,
00:02.7,0.001419067,-0.006299973,0.015907288,0,
00:02.7,0.001424789,-0.006311417,0.015901566,0,
00:02.8,0.001413345,-0.006328583,0.015901566,0,
00:02.8,0.001407623,-0.006380081,0.015907288,0,
00:02.8,0.001413345,-0.006357193,0.015901566,0,
00:02.8,0.001413345,-0.006311417,0.01591301,0,
00:02.8,0.001407623,-0.006317139,0.015924454,0,
00:02.8,0.001413345,-0.006340027,0.015924454,0,
00:02.8,0.001401901,-0.006368637,0.01591301,0,
00:02.8,0.001407623,-0.006357193,0.01591301,0,
00:02.8,0.001407623,-0.006345749,0.015924454,0,
00:02.8,0.001407623,-0.006334305,0.015930176,0,
00:02.8,0.001424789,-0.006334305,0.015930176,0,
00:02.8,0.001419067,-0.006334305,0.015930176,0,
00:02.8,0.001413345,-0.006345749,0.015930176,0,
00:02.8,0.001413345,-0.006351471,0.015930176,0,
00:02.8,0.001407623,-0.006357193,0.01594162,0,
00:02.8,0.001419067,-0.006334305,0.015935898,0,
00:02.8,0.001430511,-0.006317139,0.015930176,0,
00:02.8,0.001407623,-0.006368637,0.01594162,0,
00:02.8,0.001401901,-0.006397247,0.015947342,0,
00:02.8,0.001407623,-0.006368637,0.015953064,0,
00:02.8,0.001413345,-0.006340027,0.015947342,0,
00:02.8,0.001430511,-0.006328583,0.015953064,0,
00:02.8,0.001424789,-0.006345749,0.01594162,0,
00:02.8,0.001401901,-0.006374359,0.015953064,0,
00:02.8,0.001401901,-0.006374359,0.01597023,0,
00:02.9,0.001401901,-0.006402969,0.01597023,0,
00:02.9,0.001407623,-0.006385803,0.015958786,0,
00:02.9,0.001419067,-0.006362915,0.015958786,0,
00:02.9,0.001413345,-0.006357193,0.015964508,0,
00:02.9,0.001401901,-0.006374359,0.01597023,0,
00:02.9,0.001413345,-0.006391525,0.015975952,0,
00:02.9,0.001413345,-0.006362915,0.015958786,0,
00:02.9,0.001419067,-0.006357193,0.01597023,0,
00:02.9,0.001419067,-0.006368637,0.015981674,0,
00:02.9,0.001424789,-0.006380081,0.015981674,0,
00:02.9,0.001407623,-0.006391525,0.015981674,0,
00:02.9,0.001413345,-0.006380081,0.015981674,0,
00:02.9,0.001407623,-0.006385803,0.015981674,0,
00:02.9,0.001407623,-0.006420135,0.015987396,0,
00:02.9,0.001413345,-0.006425858,0.01599884,0,
00:02.9,0.001424789,-0.006362915,0.015993118,0,
00:02.9,0.001413345,-0.006374359,0.015993118,0,
00:02.9,0.001419067,-0.006374359,0.015987396,0,
00:02.9,0.001424789,-0.006357193,0.016010284,0,
00:02.9,0.001424789,-0.006362915,0.016004562,0,
00:02.9,0.001419067,-0.006380081,0.01599884,0,
00:02.9,0.001413345,-0.006414413,0.015993118,0,
00:02.9,0.001413345,-0.006414413,0.016010284,0,
00:02.9,0.001401901,-0.00643158,0.016010284,0,
00:02.9,0.001413345,-0.006408691,0.016004562,0,
00:03.0,0.001413345,-0.006397247,0.016010284,0,
00:03.0,0.001424789,-0.006368637,0.016016006,0,
00:03.0,0.001413345,-0.00643158,0.016016006,0,
00:03.0,0.001401901,-0.006448746,0.016027451,0,
00:03.0,0.001396179,-0.006454468,0.016016006,0,
00:03.0,0.001413345,-0.006414413,0.016016006,0,
00:03.0,0.001424789,-0.006402969,0.016016006,0,
00:03.0,0.001424789,-0.006414413,0.016021729,0,
00:03.0,0.001436234,-0.006380081,0.016027451,0,
00:03.0,0.001436234,-0.006391525,0.016033173,0,
00:03.0,0.001419067,-0.006402969,0.016027451,0,
00:03.0,0.001419067,-0.006397247,0.016021729,0,
00:00:03,0.001430511,-0.006408691,0.016033173,0,
00:03.0,0.001430511,-0.006402969,0.016033173,0,
00:03.0,0.001413345,-0.006414413,0.016033173,0,
00:03.0,0.001413345,-0.006437302,0.016033173,0,
00:03.0,0.001419067,-0.006443024,0.016033173,0,
00:03.0,0.001413345,-0.006443024,0.016033173,0,
00:03.0,0.001419067,-0.006437302,0.016050339,0,
00:03.0,0.001430511,-0.00643158,0.016044617,0,
00:03.0,0.001424789,-0.006425858,0.016038895,0,
00:03.0,0.001419067,-0.006443024,0.016038895,0,
00:03.0,0.001413345,-0.006454468,0.016044617,0,
00:03.0,0.001413345,-0.006454468,0.016050339,0,
00:03.0,0.001430511,-0.006425858,0.016044617,0,
00:03.1,0.001436234,-0.006414413,0.016050339,0,
00:03.1,0.001430511,-0.006437302,0.016050339,0,
00:03.1,0.001413345,-0.006477356,0.016050339,0,
00:03.1,0.001407623,-0.006477356,0.016056061,0,
00:03.1,0.001419067,-0.006437302,0.016061783,0,
00:03.1,0.001436234,-0.006414413,0.016056061,0,
00:03.1,0.001436234,-0.006425858,0.016056061,0,
00:03.1,0.001424789,-0.006425858,0.016056061,0,
00:03.1,0.001424789,-0.006448746,0.016067505,0,
00:03.1,0.001424789,-0.00646019,0.016073227,0,
00:03.1,0.001424789,-0.006437302,0.016073227,0,
00:03.1,0.001430511,-0.00643158,0.016067505,0,
00:03.1,0.001436234,-0.006454468,0.016067505,0,
00:03.1,0.001424789,-0.006477356,0.016073227,0,
00:03.1,0.001407623,-0.006483078,0.016073227,0,
00:03.1,0.001413345,-0.006471634,0.016078949,0,
00:03.1,0.001424789,-0.006454468,0.016073227,0,
00:03.1,0.001436234,-0.00646019,0.016067505,0,
00:03.1,0.001447678,-0.00646019,0.016078949,0,
00:03.1,0.001430511,-0.006465912,0.016084671,0,
00:03.1,0.001430511,-0.00646019,0.016090393,0,
00:03.1,0.001424789,-0.006448746,0.016084671,0,
00:03.1,0.001441956,-0.006443024,0.016073227,0,
00:03.1,0.001430511,-0.006483078,0.016078949,0,
00:03.1,0.001430511,-0.006477356,0.016084671,0,
00:03.2,0.001424789,-0.006471634,0.016090393,0,
00:03.2,0.001436234,-0.006454468,0.016090393,0,
00:03.2,0.001436234,-0.00646019,0.016090393,0,
00:03.2,0.001430511,-0.006465912,0.016090393,0,
00:03.2,0.001430511,-0.006465912,0.016101837,0,
00:03.2,0.001436234,-0.006471634,0.016101837,0,
00:03.2,0.001430511,-0.006500244,0.016090393,0,
00:03.2,0.001436234,-0.006483078,0.016090393,0,
00:03.2,0.001441956,-0.006471634,0.016101837,0,
00:03.2,0.001436234,-0.006477356,0.016107559,0,
00:03.2,0.001436234,-0.006471634,0.016101837,0,
00:03.2,0.001424789,-0.0064888,0.016096115,0,
00:03.2,0.001419067,-0.006494522,0.016096115,0,
00:03.2,0.001430511,-0.0064888,0.016101837,0,
00:03.2,0.001447678,-0.00646019,0.016101837,0,
00:03.2,0.001436234,-0.00646019,0.016107559,0,
00:03.2,0.001436234,-0.006477356,0.016096115,0,
00:03.2,0.001436234,-0.0064888,0.016101837,0,
00:03.2,0.001436234,-0.006500244,0.016107559,0,
00:03.2,0.001430511,-0.006505966,0.016113281,0,
00:03.2,0.001436234,-0.0064888,0.016113281,0,
00:03.2,0.001441956,-0.006477356,0.016101837,0,
00:03.2,0.001436234,-0.006477356,0.016107559,0,
00:03.2,0.001441956,-0.006471634,0.016119003,0,
00:03.2,0.001441956,-0.006477356,0.016124725,0,
00:03.3,0.001436234,-0.006500244,0.016113281,0,
00:03.3,0.001430511,-0.006500244,0.016107559,0,
00:03.3,0.001441956,-0.006505966,0.016113281,0,
00:03.3,0.001441956,-0.006500244,0.016113281,0,
00:03.3,0.001447678,-0.006500244,0.016124725,0,
00:03.3,0.001447678,-0.006500244,0.016119003,0,
00:03.3,0.001447678,-0.0064888,0.016113281,0,
00:03.3,0.001436234,-0.006483078,0.016113281,0,
00:03.3,0.001447678,-0.006477356,0.016119003,0,
00:03.3,0.001447678,-0.006511688,0.016124725,0,
00:03.3,0.001447678,-0.006511688,0.016113281,0,
00:03.3,0.001441956,-0.006477356,0.016124725,0,
00:03.3,0.001459122,-0.006465912,0.016119003,0,
00:03.3,0.001430511,-0.006494522,0.016130447,0,
00:03.3,0.001436234,-0.006494522,0.016136169,0,
00:03.3,0.001430511,-0.006523132,0.016124725,0,
00:03.3,0.001441956,-0.006540298,0.016119003,0,
00:03.3,0.0014534,-0.006505966,0.016124725,0,
00:03.3,0.001464844,-0.006465912,0.016119003,0,
00:03.3,0.001464844,-0.006471634,0.016124725,0,
00:03.3,0.0014534,-0.006500244,0.016130447,0,
00:03.3,0.001441956,-0.006528854,0.016124725,0,
00:03.3,0.001447678,-0.006528854,0.016124725,0,
00:03.3,0.0014534,-0.00651741,0.016130447,0,
00:03.3,0.001447678,-0.006500244,0.016141891,0,
00:03.4,0.001459122,-0.006483078,0.016130447,0,
00:03.4,0.0014534,-0.006494522,0.016124725,0,
00:03.4,0.001459122,-0.006500244,0.016119003,0,
00:03.4,0.001441956,-0.006528854,0.016124725,0,
00:03.4,0.0014534,-0.006511688,0.016130447,0,
00:03.4,0.001459122,-0.0064888,0.016130447,0,
00:03.4,0.0014534,-0.0064888,0.016124725,0,
00:03.4,0.001459122,-0.006494522,0.016124725,0,
00:03.4,0.001436234,-0.006523132,0.016130447,0,
00:03.4,0.001430511,-0.006523132,0.016136169,0,
00:03.4,0.001447678,-0.006500244,0.016136169,0,
00:03.4,0.001459122,-0.006494522,0.016124725,0,
00:03.4,0.001476288,-0.006500244,0.016124725,0,
00:03.4,0.001470566,-0.006511688,0.016136169,0,
00:03.4,0.001459122,-0.00651741,0.016136169,0,
00:03.4,0.0014534,-0.006523132,0.016130447,0,
00:03.4,0.001464844,-0.00651741,0.016124725,0,
00:03.4,0.001464844,-0.006505966,0.016119003,0,
00:03.4,0.00148201,-0.006471634,0.016136169,0,
00:03.4,0.0014534,-0.006523132,0.016124725,0,
00:03.4,0.001447678,-0.006528854,0.016124725,0,
00:03.4,0.001464844,-0.006511688,0.016124725,0,
00:03.4,0.001459122,-0.006523132,0.016130447,0,
00:03.4,0.0014534,-0.006523132,0.016136169,0,
00:03.4,0.001464844,-0.006505966,0.016130447,0,
00:03.5,0.001464844,-0.006528854,0.016130447,0,
00:03.5,0.001459122,-0.006523132,0.016119003,0,
00:03.5,0.001470566,-0.0064888,0.016119003,0,
00:03.5,0.001476288,-0.006483078,0.016124725,0,
00:03.5,0.001464844,-0.006511688,0.016130447,0,
00:03.5,0.001441956,-0.006534576,0.016124725,0,
00:03.5,0.001441956,-0.006523132,0.016119003,0,
00:03.5,0.001459122,-0.006511688,0.016124725,0,
00:03.5,0.001470566,-0.006534576,0.016124725,0,
00:03.5,0.001476288,-0.00651741,0.016119003,0,
00:03.5,0.001464844,-0.00651741,0.016119003,0,
00:03.5,0.001470566,-0.006523132,0.016119003,0,
00:03.5,0.001464844,-0.006528854,0.016124725,0,
00:03.5,0.001464844,-0.006511688,0.016119003,0,
00:03.5,0.00148201,-0.006505966,0.016124725,0,
00:03.5,0.001459122,-0.006528854,0.016119003,0,
00:03.5,0.001464844,-0.00651741,0.016119003,0,
00:03.5,0.001459122,-0.006528854,0.016119003,0,
00:03.5,0.001459122,-0.006505966,0.016124725,0,
00:03.5,0.001464844,-0.006500244,0.016130447,0,
00:03.5,0.001487732,-0.006494522,0.016124725,0,
00:03.5,0.001459122,-0.006534576,0.016119003,0,
00:03.5,0.001464844,-0.006523132,0.016119003,0,
00:03.5,0.001470566,-0.00651741,0.016124725,0,
00:03.5,0.001464844,-0.006528854,0.016124725,0,
00:03.6,0.001459122,-0.006540298,0.016130447,0,
00:03.6,0.001476288,-0.006500244,0.016124725,0,
00:03.6,0.00148201,-0.006511688,0.016119003,0,
00:03.6,0.001470566,-0.006551743,0.016124725,0,
00:03.6,0.001464844,-0.006534576,0.016119003,0,
00:03.6,0.001476288,-0.006494522,0.016119003,0,
00:03.6,0.001470566,-0.006505966,0.016119003,0,
00:03.6,0.00148201,-0.006511688,0.016107559,0,
00:03.6,0.001504898,-0.006477356,0.016113281,0,
00:03.6,0.001476288,-0.00651741,0.016119003,0,
00:03.6,0.001464844,-0.006540298,0.016113281,0,
00:03.6,0.001459122,-0.006551743,0.016119003,0,
00:03.6,0.001464844,-0.006534576,0.016119003,0,
00:03.6,0.001464844,-0.006523132,0.016119003,0,
00:03.6,0.001476288,-0.006505966,0.016124725,0,
00:03.6,0.00148201,-0.006505966,0.016119003,0,
00:03.6,0.001470566,-0.006528854,0.016113281,0,
00:03.6,0.001464844,-0.006546021,0.016113281,0,
00:03.6,0.0014534,-0.006534576,0.016119003,0,
00:03.6,0.001487732,-0.006494522,0.016119003,0,
00:03.6,0.001499176,-0.006483078,0.016101837,0,
00:03.6,0.001487732,-0.006534576,0.016107559,0,
00:03.6,0.00148201,-0.006528854,0.016107559,0,
00:03.6,0.001459122,-0.006551743,0.016113281,0,
00:03.6,0.001464844,-0.006551743,0.016107559,0,
00:03.7,0.00148201,-0.006500244,0.016113281,0,
00:03.7,0.001499176,-0.006483078,0.016101837,0,
00:03.7,0.00148201,-0.006523132,0.016096115,0,
00:03.7,0.00148201,-0.006511688,0.016107559,0,
00:03.7,0.001476288,-0.006511688,0.016113281,0,
00:03.7,0.001470566,-0.006528854,0.016101837,0,
00:03.7,0.001470566,-0.006551743,0.016096115,0,
00:03.7,0.00148201,-0.006534576,0.016101837,0,
00:03.7,0.001487732,-0.006505966,0.016107559,0,
00:03.7,0.001470566,-0.006546021,0.016113281,0,
00:03.7,0.0014534,-0.006557465,0.016107559,0,
00:03.7,0.001470566,-0.006540298,0.016096115,0,
00:03.7,0.001487732,-0.006523132,0.016090393,0,
00:03.7,0.001499176,-0.00651741,0.016101837,0,
00:03.7,0.001493454,-0.00651741,0.016101837,0,
00:03.7,0.001487732,-0.006505966,0.016096115,0,
00:03.7,0.001476288,-0.006523132,0.016090393,0,
00:03.7,0.001476288,-0.006523132,0.016084671,0,
00:03.7,0.001487732,-0.006511688,0.016096115,0,
00:03.7,0.001487732,-0.006511688,0.016107559,0,
00:03.7,0.001493454,-0.0064888,0.016096115,0,
00:03.7,0.001499176,-0.006500244,0.016090393,0,
00:03.7,0.001493454,-0.00651741,0.016096115,0,
00:03.7,0.001476288,-0.006540298,0.016101837,0,
00:03.7,0.001493454,-0.006523132,0.016096115,0,
00:03.8,0.001487732,-0.006511688,0.016090393,0,
00:03.8,0.001476288,-0.006528854,0.016090393,0,
00:03.8,0.001476288,-0.006534576,0.016090393,0,
00:03.8,0.001470566,-0.006528854,0.016090393,0,
00:03.8,0.001476288,-0.006546021,0.016096115,0,
00:03.8,0.001459122,-0.006568909,0.016096115,0,
00:03.8,0.001487732,-0.00651741,0.016096115,0,
00:03.8,0.001487732,-0.006505966,0.016084671,0,
00:03.8,0.001487732,-0.006528854,0.016090393,0,
00:03.8,0.001476288,-0.006546021,0.016090393,0,
00:03.8,0.001499176,-0.00651741,0.016084671,0,
00:03.8,0.001499176,-0.006511688,0.016084671,0,
00:03.8,0.00148201,-0.006523132,0.016084671,0,
00:03.8,0.001470566,-0.006534576,0.016096115,0,
00:03.8,0.001476288,-0.006546021,0.016084671,0,
00:03.8,0.001493454,-0.006523132,0.016084671,0,
00:03.8,0.001493454,-0.00651741,0.016084671,0,
00:03.8,0.001487732,-0.006523132,0.016084671,0,
00:03.8,0.001504898,-0.006505966,0.016090393,0,
00:03.8,0.00148201,-0.00651741,0.016090393,0,
00:03.8,0.001470566,-0.006546021,0.016084671,0,
00:03.8,0.001493454,-0.006540298,0.016084671,0,
00:03.8,0.001487732,-0.006528854,0.016084671,0,
00:03.8,0.001493454,-0.00651741,0.016078949,0,
00:03.8,0.001499176,-0.006505966,0.016078949,0,
00:03.9,0.001493454,-0.006523132,0.016078949,0,
00:03.9,0.001487732,-0.006540298,0.016073227,0,
00:03.9,0.00148201,-0.006511688,0.016078949,0,
00:03.9,0.001487732,-0.006511688,0.016090393,0,
00:03.9,0.001487732,-0.006523132,0.016090393,0,
00:03.9,0.001487732,-0.006540298,0.016084671,0,
00:03.9,0.001493454,-0.006528854,0.016067505,0,
00:03.9,0.00151062,-0.006505966,0.016073227,0,
00:03.9,0.001516342,-0.006494522,0.016073227,0,
00:03.9,0.00148201,-0.006505966,0.016073227,0,
00:03.9,0.001487732,-0.00651741,0.016078949,0,
00:03.9,0.001493454,-0.006528854,0.016078949,0,
00:03.9,0.00148201,-0.006534576,0.016078949,0,
00:03.9,0.00148201,-0.006534576,0.016073227,0,
00:03.9,0.001499176,-0.006500244,0.016078949,0,
00:03.9,0.001504898,-0.006494522,0.016073227,0,
00:03.9,0.001499176,-0.006534576,0.016061783,0,
00:03.9,0.001504898,-0.006505966,0.016067505,0,
00:03.9,0.00151062,-0.006483078,0.016067505,0,
00:03.9,0.001493454,-0.006511688,0.016067505,0,
00:03.9,0.001487732,-0.006557465,0.016067505,0,
00:03.9,0.001499176,-0.00651741,0.016061783,0,
00:03.9,0.001493454,-0.00651741,0.016073227,0,
00:03.9,0.001499176,-0.00651741,0.016084671,0,
00:03.9,0.00148201,-0.00651741,0.016073227,0,
00:04.0,0.001493454,-0.006511688,0.016067505,0,
00:04.0,0.00151062,-0.006500244,0.016061783,0,
00:04.0,0.001504898,-0.006494522,0.016067505,0,
00:04.0,0.001504898,-0.00651741,0.016073227,0,
00:04.0,0.001493454,-0.00651741,0.016067505,0,
00:04.0,0.00148201,-0.006523132,0.016067505,0,
00:04.0,0.001504898,-0.006523132,0.016061783,0,
00:04.0,0.001516342,-0.006505966,0.016056061,0,
00:04.0,0.00151062,-0.006505966,0.016067505,0,
00:04.0,0.001487732,-0.006511688,0.016067505,0,
00:04.0,0.001493454,-0.006500244,0.016061783,0,
00:04.0,0.001487732,-0.006540298,0.016056061,0,
00:00:04,0.001499176,-0.006534576,0.016067505,0,
00:04.0,0.001499176,-0.006534576,0.016073227,0,
00:04.0,0.001487732,-0.006546021,0.016073227,0,
00:04.0,0.001499176,-0.006534576,0.016073227,0,
00:04.0,0.001516342,-0.006483078,0.016056061,0,
00:04.0,0.001516342,-0.006465912,0.016044617,0,
00:04.0,0.001504898,-0.006505966,0.016061783,0,
00:04.0,0.00151062,-0.006505966,0.016073227,0,
00:04.0,0.001493454,-0.006534576,0.016061783,0,
00:04.0,0.00148201,-0.006546021,0.016056061,0,
00:04.0,0.001499176,-0.006511688,0.016056061,0,
00:04.0,0.001516342,-0.006477356,0.016061783,0,
00:04.0,0.001516342,-0.006494522,0.016067505,0,
00:04.1,0.001504898,-0.006500244,0.016056061,0,
00:04.1,0.001499176,-0.0064888,0.016056061,0,
00:04.1,0.001499176,-0.006500244,0.016056061,0,
00:04.1,0.001487732,-0.006546021,0.016061783,0,
00:04.1,0.001504898,-0.00651741,0.016061783,0,
00:04.1,0.001516342,-0.006494522,0.016050339,0,
00:04.1,0.00151062,-0.006505966,0.016038895,0,
00:04.1,0.001493454,-0.006534576,0.016038895,0,
00:04.1,0.001499176,-0.006540298,0.016050339,0,
00:04.1,0.00151062,-0.006500244,0.016061783,0,
00:04.1,0.001493454,-0.006494522,0.016050339,0,
00:04.1,0.001499176,-0.0064888,0.016044617,0,
00:04.1,0.00148201,-0.00651741,0.016050339,0,
00:04.1,0.00151062,-0.006505966,0.016056061,0,
00:04.1,0.001516342,-0.006500244,0.016050339,0,
00:04.1,0.001504898,-0.006494522,0.016038895,0,
00:04.1,0.001504898,-0.006494522,0.016033173,0,
00:04.1,0.001499176,-0.006511688,0.016044617,0,
00:04.1,0.001516342,-0.006494522,0.016044617,0,
00:04.1,0.00151062,-0.006500244,0.016050339,0,
00:04.1,0.00151062,-0.006494522,0.016044617,0,
00:04.1,0.00151062,-0.006494522,0.016044617,0,
00:04.1,0.001516342,-0.006494522,0.016044617,0,
00:04.1,0.001499176,-0.006505966,0.016044617,0,
00:04.1,0.001499176,-0.006500244,0.016044617,0,
00:04.2,0.001493454,-0.006505966,0.016044617,0,
00:04.2,0.001487732,-0.006540298,0.016044617,0,
00:04.2,0.001504898,-0.00651741,0.016044617,0,
00:04.2,0.001522064,-0.006483078,0.016044617,0,
00:04.2,0.001522064,-0.006483078,0.016038895,0,
00:04.2,0.00151062,-0.006494522,0.016038895,0,
00:04.2,0.001499176,-0.006511688,0.016038895,0,
00:04.2,0.001499176,-0.006523132,0.016038895,0,
00:04.2,0.001504898,-0.006505966,0.016044617,0,
00:04.2,0.001504898,-0.006494522,0.016044617,0,
00:04.2,0.001522064,-0.0064888,0.016038895,0,
00:04.2,0.001522064,-0.006465912,0.016027451,0,
00:04.2,0.00151062,-0.006500244,0.016033173,0,
00:04.2,0.001504898,-0.006500244,0.016044617,0,
00:04.2,0.001493454,-0.006523132,0.016038895,0,
00:04.2,0.001516342,-0.006500244,0.016033173,0,
00:04.2,0.001522064,-0.006465912,0.016027451,0,
00:04.2,0.001522064,-0.006465912,0.016033173,0,
00:04.2,0.001522064,-0.006483078,0.016038895,0,
00:04.2,0.00151062,-0.006505966,0.016044617,0,
00:04.2,0.001499176,-0.006505966,0.016033173,0,
00:04.2,0.001504898,-0.006477356,0.016033173,0,
00:04.2,0.001527786,-0.006437302,0.016027451,0,
00:04.2,0.00151062,-0.006505966,0.016044617,0,
00:04.2,0.001516342,-0.0064888,0.016033173,0,
00:04.3,0.001504898,-0.0064888,0.016033173,0,
00:04.3,0.001493454,-0.006483078,0.016027451,0,
00:04.3,0.001504898,-0.006511688,0.016027451,0,
00:04.3,0.001516342,-0.006500244,0.016038895,0,
00:04.3,0.001522064,-0.006477356,0.016038895,0,
00:04.3,0.001527786,-0.006448746,0.016027451,0,
00:04.3,0.001516342,-0.006477356,0.016027451,0,
00:04.3,0.001522064,-0.006477356,0.016027451,0,
00:04.3,0.001522064,-0.006471634,0.016027451,0,
00:04.3,0.001499176,-0.006505966,0.016038895,0,
00:04.3,0.001504898,-0.0064888,0.016033173,0,
00:04.3,0.001533508,-0.006454468,0.016021729,0,
00:04.3,0.001533508,-0.006448746,0.016016006,0,
00:04.3,0.001516342,-0.00646019,0.016033173,0,
00:04.3,0.001522064,-0.006448746,0.016033173,0,
00:04.3,0.001499176,-0.006483078,0.016027451,0,
00:04.3,0.001504898,-0.006494522,0.016027451,0,
00:04.3,0.001499176,-0.00651741,0.016021729,0,
00:04.3,0.001499176,-0.006477356,0.016027451,0,
00:04.3,0.001527786,-0.00643158,0.016027451,0,
00:04.3,0.001527786,-0.006420135,0.016021729,0,
00:04.3,0.001527786,-0.00646019,0.016021729,0,
00:04.3,0.001516342,-0.0064888,0.016027451,0,
00:04.3,0.001499176,-0.006505966,0.016027451,0,
00:04.3,0.001499176,-0.006494522,0.016033173,0,
00:04.4,0.00151062,-0.006471634,0.016021729,0,
00:04.4,0.001533508,-0.00646019,0.016021729,0,
00:04.4,0.001516342,-0.00646019,0.016027451,0,
00:04.4,0.00151062,-0.006483078,0.016027451,0,
00:04.4,0.001516342,-0.006477356,0.016027451,0,
00:04.4,0.001522064,-0.006448746,0.016027451,0,
00:04.4,0.001522064,-0.006448746,0.016021729,0,
00:04.4,0.001522064,-0.006465912,0.016016006,0,
00:04.4,0.00151062,-0.006448746,0.016016006,0,
00:04.4,0.00151062,-0.006448746,0.016027451,0,
00:04.4,0.001504898,-0.006483078,0.016021729,0,
00:04.4,0.00151062,-0.006465912,0.016016006,0,
00:04.4,0.001522064,-0.006454468,0.016021729,0,
00:04.4,0.001522064,-0.006437302,0.016027451,0,
00:04.4,0.001516342,-0.00643158,0.016021729,0,
00:04.4,0.001516342,-0.00646019,0.016016006,0,
00:04.4,0.001522064,-0.00646019,0.016010284,0,
00:04.4,0.001516342,-0.00646019,0.016027451,0,
00:04.4,0.001522064,-0.00646019,0.016027451,0,
00:04.4,0.001493454,-0.0064888,0.016021729,0,
00:04.4,0.001504898,-0.006465912,0.016021729,0,
00:04.4,0.001527786,-0.006437302,0.016016006,0,
00:04.4,0.001516342,-0.006454468,0.016016006,0,
00:04.4,0.001504898,-0.00646019,0.016027451,0,
00:04.4,0.001516342,-0.006437302,0.016016006,0,
00:04.5,0.001522064,-0.006437302,0.016016006,0,
00:04.5,0.001516342,-0.00646019,0.016010284,0,
00:04.5,0.001516342,-0.006465912,0.016010284,0,
00:04.5,0.00151062,-0.006454468,0.016021729,0,
00:04.5,0.001522064,-0.00643158,0.016027451,0,
00:04.5,0.001516342,-0.006425858,0.016021729,0,
00:04.5,0.001522064,-0.006437302,0.016016006,0,
00:04.5,0.001533508,-0.006414413,0.016021729,0,
00:04.5,0.001522064,-0.006437302,0.016027451,0,
00:04.5,0.001504898,-0.006465912,0.016027451,0,
00:04.5,0.00151062,-0.006443024,0.016021729,0,
00:04.5,0.001522064,-0.00643158,0.016016006,0,
00:04.5,0.001527786,-0.006420135,0.016016006,0,
00:04.5,0.001527786,-0.006414413,0.016027451,0,
00:04.5,0.00151062,-0.00643158,0.016027451,0,
00:04.5,0.001493454,-0.006477356,0.016021729,0,
00:04.5,0.001493454,-0.0064888,0.016010284,0,
00:04.5,0.001499176,-0.006465912,0.016016006,0,
00:04.5,0.001522064,-0.00643158,0.016021729,0,
00:04.5,0.001533508,-0.006420135,0.016021729,0,
00:04.5,0.001527786,-0.006414413,0.016021729,0,
00:04.5,0.001522064,-0.006414413,0.016010284,0,
00:04.5,0.001527786,-0.006414413,0.016016006,0,
00:04.5,0.001522064,-0.006414413,0.016021729,0,
00:04.5,0.00151062,-0.006443024,0.016016006,0,
00:04.6,0.001504898,-0.00643158,0.016016006,0,
00:04.6,0.001516342,-0.006420135,0.016016006,0,
00:04.6,0.001516342,-0.006443024,0.016016006,0,
00:04.6,0.001522064,-0.006414413,0.016021729,0,
00:04.6,0.001527786,-0.006420135,0.016021729,0,
00:04.6,0.001527786,-0.006414413,0.016010284,0,
00:04.6,0.001522064,-0.006425858,0.016010284,0,
00:04.6,0.001516342,-0.006425858,0.016004562,0,
00:04.6,0.00151062,-0.006425858,0.016021729,0,
00:04.6,0.001493454,-0.006437302,0.016027451,0,
00:04.6,0.001504898,-0.006425858,0.016016006,0,
00:04.6,0.001504898,-0.006443024,0.016010284,0,
00:04.6,0.001522064,-0.006425858,0.016010284,0,
00:04.6,0.001522064,-0.00643158,0.016016006,0,
00:04.6,0.00153923,-0.006402969,0.016010284,0,
00:04.6,0.001527786,-0.006385803,0.016010284,0,
00:04.6,0.001504898,-0.006402969,0.016016006,0,
00:04.6,0.001499176,-0.00643158,0.016016006,0,
00:04.6,0.001516342,-0.006420135,0.016010284,0,
00:04.6,0.001522064,-0.006408691,0.016010284,0,
00:04.6,0.001516342,-0.006402969,0.016010284,0,
00:04.6,0.001516342,-0.006408691,0.016010284,0,
00:04.6,0.001504898,-0.00643158,0.016010284,0,
00:04.6,0.00151062,-0.00643158,0.016004562,0,
00:04.6,0.00151062,-0.00643158,0.016004562,0,
00:04.7,0.001516342,-0.006414413,0.016010284,0,
00:04.7,0.001504898,-0.006420135,0.016010284,0,
00:04.7,0.001499176,-0.006414413,0.016004562,0,
00:04.7,0.00151062,-0.006397247,0.016010284,0,
00:04.7,0.001527786,-0.006402969,0.016010284,0,
00:04.7,0.001499176,-0.006408691,0.016010284,0,
00:04.7,0.001499176,-0.006408691,0.016010284,0,
00:04.7,0.001499176,-0.006420135,0.016010284,0,
00:04.7,0.001527786,-0.006402969,0.016010284,0,
00:04.7,0.001516342,-0.006402969,0.016004562,0,
00:04.7,0.001499176,-0.006420135,0.016004562,0,
00:04.7,0.001504898,-0.006391525,0.016010284,0,
00:04.7,0.00151062,-0.006397247,0.016004562,0,
00:04.7,0.001522064,-0.006380081,0.016010284,0,
00:04.7,0.001516342,-0.006380081,0.01599884,0,
00:04.7,0.001516342,-0.006397247,0.016004562,0,
00:04.7,0.001522064,-0.006397247,0.016004562,0,
00:04.7,0.00151062,-0.006414413,0.015993118,0,
00:04.7,0.00151062,-0.006414413,0.016004562,0,
00:04.7,0.001504898,-0.006402969,0.016004562,0,
00:04.7,0.001499176,-0.006414413,0.015993118,0,
00:04.7,0.00151062,-0.006397247,0.016004562,0,
00:04.7,0.001522064,-0.006368637,0.01599884,0,
00:04.7,0.001516342,-0.006374359,0.01599884,0,
00:04.7,0.001516342,-0.006397247,0.016021729,0,
00:04.8,0.001499176,-0.006408691,0.015993118,0,
00:04.8,0.001516342,-0.006380081,0.015993118,0,
00:04.8,0.00151062,-0.006391525,0.01599884,0,
00:04.8,0.001487732,-0.006420135,0.016004562,0,
00:04.8,0.001476288,-0.006420135,0.016004562,0,
00:04.8,0.00151062,-0.006380081,0.01599884,0,
00:04.8,0.001522064,-0.006374359,0.015993118,0,
00:04.8,0.001533508,-0.006362915,0.016004562,0,
00:04.8,0.001527786,-0.006391525,0.016004562,0,
00:04.8,0.001493454,-0.006420135,0.01599884,0,
00:04.8,0.001493454,-0.006385803,0.015993118,0,
00:04.8,0.001504898,-0.006391525,0.01599884,0,
00:04.8,0.001504898,-0.006402969,0.01599884,0,
00:04.8,0.001516342,-0.006397247,0.01599884,0,
00:04.8,0.001516342,-0.006357193,0.015993118,0,
00:04.8,0.001522064,-0.006362915,0.015993118,0,
00:04.8,0.001493454,-0.006402969,0.015987396,0,
00:04.8,0.001504898,-0.006385803,0.01599884,0,
00:04.8,0.001516342,-0.006380081,0.01599884,0,
00:04.8,0.00151062,-0.006380081,0.01599884,0,
00:04.8,0.001504898,-0.006374359,0.015987396,0,
00:04.8,0.001499176,-0.006397247,0.015993118,0,
00:04.8,0.001499176,-0.006402969,0.015993118,0,
00:04.8,0.001504898,-0.006380081,0.015993118,0,
00:04.8,0.001499176,-0.006368637,0.016004562,0,
00:04.9,0.001504898,-0.006368637,0.015993118,0,
00:04.9,0.001522064,-0.006374359,0.015993118,0,
00:04.9,0.00151062,-0.006397247,0.015993118,0,
00:04.9,0.00151062,-0.006374359,0.01599884,0,
00:04.9,0.001504898,-0.006362915,0.015993118,0,
00:04.9,0.001499176,-0.006357193,0.015987396,0,
00:04.9,0.001499176,-0.006368637,0.015987396,0,
00:04.9,0.001499176,-0.006380081,0.015987396,0,
00:04.9,0.00151062,-0.006368637,0.01599884,0,
00:04.9,0.001504898,-0.006380081,0.015987396,0,
00:04.9,0.001499176,-0.006380081,0.015987396,0,
00:04.9,0.001493454,-0.006380081,0.015987396,0,
00:04.9,0.001493454,-0.006368637,0.015987396,0,
00:04.9,0.001516342,-0.006357193,0.015993118,0,
00:04.9,0.001499176,-0.006362915,0.01599884,0,
00:04.9,0.001504898,-0.006368637,0.01599884,0,
00:04.9,0.001504898,-0.006380081,0.015993118,0,
00:04.9,0.001504898,-0.006374359,0.015993118,0,
00:04.9,0.00151062,-0.006362915,0.01599884,0,
00:04.9,0.001487732,-0.006380081,0.01599884,0,
00:04.9,0.00148201,-0.006397247,0.015993118,0,
00:04.9,0.001487732,-0.006380081,0.015993118,0,
00:04.9,0.00151062,-0.006340027,0.015987396,0,
00:04.9,0.001522064,-0.006317139,0.015993118,0,
00:04.9,0.001527786,-0.006345749,0.015987396,0,
00:05.0,0.00151062,-0.006357193,0.015981674,0,
00:05.0,0.001499176,-0.006385803,0.015987396,0,
00:05.0,0.001493454,-0.006385803,0.015993118,0,
00:05.0,0.001493454,-0.006380081,0.015993118,0,
00:05.0,0.00151062,-0.006345749,0.015993118,0,
00:05.0,0.001487732,-0.006368637,0.015993118,0,
00:05.0,0.001499176,-0.006362915,0.015981674,0,
00:05.0,0.001504898,-0.006351471,0.015981674,0,
00:05.0,0.001504898,-0.006351471,0.015993118,0,
00:05.0,0.00151062,-0.006340027,0.015993118,0,
00:05.0,0.001504898,-0.006362915,0.015981674,0,
00:05.0,0.001493454,-0.006368637,0.015987396,0,
00:00:05,0.00151062,-0.006351471,0.015993118,0,
00:05.0,0.001522064,-0.006317139,0.015987396,0,
00:05.0,0.001493454,-0.006340027,0.015987396,0,
00:05.0,0.001487732,-0.006391525,0.015981674,0,
00:05.0,0.001493454,-0.006385803,0.015987396,0,
00:05.0,0.001504898,-0.006345749,0.015993118,0,
00:05.0,0.001516342,-0.006322861,0.015993118,0,
00:05.0,0.00151062,-0.006340027,0.015993118,0,
00:05.0,0.00151062,-0.006357193,0.015987396,0,
00:05.0,0.001499176,-0.006374359,0.015981674,0,
00:05.0,0.001499176,-0.006351471,0.015981674,0,
00:05.0,0.00151062,-0.006322861,0.015981674,0,
00:05.0,0.001493454,-0.006362915,0.015987396,0,
00:05.1,0.001487732,-0.006351471,0.015981674,0,
00:05.1,0.001499176,-0.006340027,0.015981674,0,
00:05.1,0.001493454,-0.006380081,0.015981674,0,
00:05.1,0.001493454,-0.006368637,0.015987396,0,
00:05.1,0.001504898,-0.006334305,0.015987396,0,
00:05.1,0.001504898,-0.006322861,0.015981674,0,
00:05.1,0.001516342,-0.006311417,0.015987396,0,
00:05.1,0.001504898,-0.006328583,0.015981674,0,
00:05.1,0.001487732,-0.006357193,0.015987396,0,
00:05.1,0.00148201,-0.006368637,0.015981674,0,
00:05.1,0.001487732,-0.006362915,0.015975952,0,
00:05.1,0.00148201,-0.006368637,0.015987396,0,
00:05.1,0.001504898,-0.006328583,0.015981674,0,
00:05.1,0.001516342,-0.006311417,0.015975952,0,
00:05.1,0.00151062,-0.006322861,0.015987396,0,
00:05.1,0.001499176,-0.006322861,0.015981674,0,
00:05.1,0.001499176,-0.006322861,0.015975952,0,
00:05.1,0.001504898,-0.006345749,0.015981674,0,
00:05.1,0.001487732,-0.006362915,0.015981674,0,
00:05.1,0.001493454,-0.006345749,0.015975952,0,
00:05.1,0.001493454,-0.006351471,0.015987396,0,
00:05.1,0.001493454,-0.006368637,0.015981674,0,
00:05.1,0.001499176,-0.006328583,0.015981674,0,
00:05.1,0.001493454,-0.006328583,0.015981674,0,
00:05.1,0.001487732,-0.006340027,0.015987396,0,
00:05.2,0.001504898,-0.006328583,0.015975952,0,
00:05.2,0.001499176,-0.006317139,0.015975952,0,
00:05.2,0.001504898,-0.006322861,0.015981674,0,
00:05.2,0.001493454,-0.006340027,0.015981674,0,
00:05.2,0.001487732,-0.006340027,0.015975952,0,
00:05.2,0.001487732,-0.006340027,0.015975952,0,
00:05.2,0.001493454,-0.006351471,0.015975952,0,
00:05.2,0.001504898,-0.006317139,0.015975952,0,
00:05.2,0.001499176,-0.006317139,0.015981674,0,
00:05.2,0.001487732,-0.006334305,0.015981674,0,
00:05.2,0.001487732,-0.006345749,0.015981674,0,
00:05.2,0.001499176,-0.006334305,0.015975952,0,
00:05.2,0.001504898,-0.006305695,0.015981674,0,
00:05.2,0.001499176,-0.00629425,0.015987396,0,
00:05.2,0.001493454,-0.006322861,0.015981674,0,
00:05.2,0.001487732,-0.006340027,0.015981674,0,
00:05.2,0.001487732,-0.006345749,0.01597023,0,
00:05.2,0.00148201,-0.006328583,0.01597023,0,
00:05.2,0.001487732,-0.006305695,0.015987396,0,
00:05.2,0.001499176,-0.006299973,0.015981674,0,
00:05.2,0.001493454,-0.006311417,0.015975952,0,
00:05.2,0.001499176,-0.006317139,0.015964508,0,
00:05.2,0.00148201,-0.006345749,0.015975952,0,
00:05.2,0.001487732,-0.006328583,0.015981674,0,
00:05.2,0.00148201,-0.006328583,0.015987396,0,
00:05.3,0.001493454,-0.006322861,0.015975952,0,
00:05.3,0.001499176,-0.006322861,0.015975952,0,
00:05.3,0.001493454,-0.006317139,0.015975952,0,
00:05.3,0.001493454,-0.00629425,0.015975952,0,
00:05.3,0.001493454,-0.006305695,0.015981674,0,
00:05.3,0.001487732,-0.006317139,0.015975952,0,
00:05.3,0.001464844,-0.006340027,0.01597023,0,
00:05.3,0.001470566,-0.006334305,0.015975952,0,
00:05.3,0.001499176,-0.006311417,0.015981674,0,
00:05.3,0.001499176,-0.006288528,0.015975952,0,
00:05.3,0.001487732,-0.00629425,0.01597023,0,
00:05.3,0.00148201,-0.006322861,0.015975952,0,
00:05.3,0.001487732,-0.006328583,0.015975952,0,
00:05.3,0.00148201,-0.006322861,0.015975952,0,
00:05.3,0.001487732,-0.006311417,0.015975952,0,
00:05.3,0.00148201,-0.006317139,0.01597023,0,
00:05.3,0.00148201,-0.006317139,0.01597023,0,
00:05.3,0.001476288,-0.006317139,0.01597023,0,
00:05.3,0.001464844,-0.006311417,0.01597023,0,
00:05.3,0.001476288,-0.006340027,0.01597023,0,
00:05.3,0.00148201,-0.006322861,0.015975952,0,
00:05.3,0.001499176,-0.006277084,0.015964508,0,
00:05.3,0.001493454,-0.006277084,0.01597023,0,
00:05.3,0.001493454,-0.006282806,0.01597023,0,
00:05.3,0.001487732,-0.006288528,0.01597023,0,
00:05.4,0.001470566,-0.006305695,0.01597023,0,
00:05.4,0.001464844,-0.006322861,0.01597023,0,
00:05.4,0.001464844,-0.006322861,0.015975952,0,
00:05.4,0.001470566,-0.006311417,0.01597023,0,
00:05.4,0.001487732,-0.00629425,0.015964508,0,
00:05.4,0.001504898,-0.00626564,0.015964508,0,
00:05.4,0.001493454,-0.00629425,0.015964508,0,
00:05.4,0.001487732,-0.006288528,0.01597023,0,
00:05.4,0.001464844,-0.006311417,0.01597023,0,
00:05.4,0.001459122,-0.006334305,0.01597023,0,
00:05.4,0.001464844,-0.006322861,0.01597023,0,
00:05.4,0.001476288,-0.006305695,0.015958786,0,
00:05.4,0.001493454,-0.00626564,0.015964508,0,
00:05.4,0.001476288,-0.006288528,0.01597023,0,
00:05.4,0.001470566,-0.006299973,0.015975952,0,
00:05.4,0.001476288,-0.006305695,0.01597023,0,
00:05.4,0.001487732,-0.006288528,0.015964508,0,
00:05.4,0.001493454,-0.00626564,0.015964508,0,
00:05.4,0.00148201,-0.006282806,0.015975952,0,
00:05.4,0.001476288,-0.006305695,0.01597023,0,
00:05.4,0.001459122,-0.006328583,0.015958786,0,
00:05.4,0.001476288,-0.006299973,0.015958786,0,
00:05.4,0.001464844,-0.006305695,0.01597023,0,
00:05.4,0.001476288,-0.006288528,0.015975952,0,
00:05.4,0.00148201,-0.006277084,0.015964508,0,
00:05.5,0.001487732,-0.006288528,0.015958786,0,
00:05.5,0.001470566,-0.006322861,0.015958786,0,
00:05.5,0.001464844,-0.006311417,0.015964508,0,
00:05.5,0.001476288,-0.006288528,0.01597023,0,
00:05.5,0.001470566,-0.006288528,0.015958786,0,
00:05.5,0.001476288,-0.00626564,0.015953064,0,
00:05.5,0.00148201,-0.00626564,0.015953064,0,
00:05.5,0.00148201,-0.006277084,0.01597023,0,
00:05.5,0.001504898,-0.006254196,0.015964508,0,
00:05.5,0.00148201,-0.006299973,0.015947342,0,
00:05.5,0.001459122,-0.006311417,0.015964508,0,
00:05.5,0.00148201,-0.006271362,0.015964508,0,
00:05.5,0.001476288,-0.006277084,0.015964508,0,
00:05.5,0.001476288,-0.006277084,0.015964508,0,
00:05.5,0.001476288,-0.00629425,0.015958786,0,
00:05.5,0.001464844,-0.006317139,0.015958786,0,
00:05.5,0.001464844,-0.00629425,0.015958786,0,
00:05.5,0.001476288,-0.006277084,0.015958786,0,
00:05.5,0.001476288,-0.00629425,0.015958786,0,
00:05.5,0.001487732,-0.006271362,0.015953064,0,
00:05.5,0.001487732,-0.006254196,0.015953064,0,
00:05.5,0.001470566,-0.00629425,0.015958786,0,
00:05.5,0.001464844,-0.006311417,0.015958786,0,
00:05.5,0.001476288,-0.006288528,0.015958786,0,
00:05.5,0.001464844,-0.006282806,0.015953064,0,
00:05.6,0.001476288,-0.006277084,0.015947342,0,
00:05.6,0.001487732,-0.006277084,0.015953064,0,
00:05.6,0.001499176,-0.006254196,0.015958786,0,
00:05.6,0.001487732,-0.006254196,0.015953064,0,
00:05.6,0.001447678,-0.006311417,0.015958786,0,
00:05.6,0.00148201,-0.006277084,0.015947342,0,
00:05.6,0.001499176,-0.00626564,0.01594162,0,
00:05.6,0.001470566,-0.006282806,0.015953064,0,
00:05.6,0.0014534,-0.006317139,0.015964508,0,
00:05.6,0.001464844,-0.00629425,0.015953064,0,
00:05.6,0.001470566,-0.006282806,0.015947342,0,
00:05.6,0.001470566,-0.006271362,0.015947342,0,
00:05.6,0.001470566,-0.00626564,0.01594162,0,
00:05.6,0.001476288,-0.006259918,0.015947342,0,
00:05.6,0.00148201,-0.006254196,0.015953064,0,
00:05.6,0.001476288,-0.006282806,0.015947342,0,
00:05.6,0.001464844,-0.006299973,0.015935898,0,
00:05.6,0.001470566,-0.00629425,0.015953064,0,
00:05.6,0.001487732,-0.006248474,0.015947342,0,
00:05.6,0.001476288,-0.00626564,0.015947342,0,
00:05.6,0.001470566,-0.006282806,0.01594162,0,
00:05.6,0.001476288,-0.006271362,0.015935898,0,
00:05.6,0.001470566,-0.006277084,0.015947342,0,
00:05.6,0.001464844,-0.00629425,0.015953064,0,
00:05.6,0.001476288,-0.006282806,0.01594162,0,
00:05.7,0.00148201,-0.006259918,0.01594162,0,
00:05.7,0.001476288,-0.006259918,0.015935898,0,
00:05.7,0.001476288,-0.006271362,0.01594162,0,
00:05.7,0.001487732,-0.006248474,0.01594162,0,
00:05.7,0.001476288,-0.006254196,0.01594162,0,
00:05.7,0.001470566,-0.00626564,0.01594162,0,
00:05.7,0.001464844,-0.006277084,0.015935898,0,
00:05.7,0.001464844,-0.006271362,0.015935898,0,
00:05.7,0.001470566,-0.006259918,0.015947342,0,
00:05.7,0.001464844,-0.006282806,0.015953064,0,
00:05.7,0.001459122,-0.006282806,0.015935898,0,
00:05.7,0.001464844,-0.006277084,0.015935898,0,
00:05.7,0.00148201,-0.006254196,0.015935898,0,
00:05.7,0.001476288,-0.006271362,0.01594162,0,
00:05.7,0.001459122,-0.006288528,0.01594162,0,
00:05.7,0.001459122,-0.006282806,0.015935898,0,
00:05.7,0.001476288,-0.006271362,0.015935898,0,
00:05.7,0.001464844,-0.006277084,0.015930176,0,
00:05.7,0.001459122,-0.006288528,0.015935898,0,
00:05.7,0.001464844,-0.006282806,0.01594162,0,
00:05.7,0.001470566,-0.006259918,0.015930176,0,
00:05.7,0.001476288,-0.006231308,0.015935898,0,
00:05.7,0.001476288,-0.00623703,0.015935898,0,
00:05.7,0.001476288,-0.006248474,0.015935898,0,
00:05.7,0.001470566,-0.006248474,0.015935898,0,
00:05.8,0.001470566,-0.006259918,0.015930176,0,
00:05.8,0.001464844,-0.006271362,0.015930176,0,
00:05.8,0.001459122,-0.00626564,0.015930176,0,
00:05.8,0.001447678,-0.006271362,0.015935898,0,
00:05.8,0.0014534,-0.00626564,0.01594162,0,
00:05.8,0.001464844,-0.00626564,0.015935898,0,
00:05.8,0.001459122,-0.006277084,0.015930176,0,
00:05.8,0.001476288,-0.00623703,0.015930176,0,
00:05.8,0.001476288,-0.006231308,0.015935898,0,
00:05.8,0.001464844,-0.006277084,0.015935898,0,
00:05.8,0.001447678,-0.006288528,0.015924454,0,
00:05.8,0.001464844,-0.006248474,0.015924454,0,
00:05.8,0.001470566,-0.006242752,0.015930176,0,
00:05.8,0.001459122,-0.00626564,0.015935898,0,
00:05.8,0.001470566,-0.00623703,0.015924454,0,
00:05.8,0.001470566,-0.00623703,0.015918732,0,
00:05.8,0.001447678,-0.006277084,0.015924454,0,
00:05.8,0.0014534,-0.006271362,0.015924454,0,
00:05.8,0.001459122,-0.006248474,0.015930176,0,
00:05.8,0.001464844,-0.00623703,0.015924454,0,
00:05.8,0.001459122,-0.006248474,0.015924454,0,
00:05.8,0.001470566,-0.00623703,0.015924454,0,
00:05.8,0.001464844,-0.006242752,0.015930176,0,
00:05.8,0.001447678,-0.00626564,0.015930176,0,
00:05.8,0.0014534,-0.006248474,0.015930176,0,
00:05.9,0.001459122,-0.006231308,0.015924454,0,
00:05.9,0.001459122,-0.006254196,0.015930176,0,
00:05.9,0.001459122,-0.006248474,0.015930176,0,
00:05.9,0.001459122,-0.006242752,0.015924454,0,
00:05.9,0.0014534,-0.006259918,0.015924454,0,
00:05.9,0.0014534,-0.006254196,0.015918732,0,
00:05.9,0.0014534,-0.006254196,0.01591301,0,
00:05.9,0.001459122,-0.006242752,0.015924454,0,
00:05.9,0.001459122,-0.006214142,0.015930176,0,
00:05.9,0.001459122,-0.006225586,0.015924454,0,
00:05.9,0.001459122,-0.00623703,0.015924454,0,
00:05.9,0.001447678,-0.006254196,0.015924454,0,
00:05.9,0.001447678,-0.006259918,0.015924454,0,
00:05.9,0.0014534,-0.006242752,0.015924454,0,
00:05.9,0.001459122,-0.006225586,0.015918732,0,
00:05.9,0.001459122,-0.006225586,0.015918732,0,
00:05.9,0.001459122,-0.006225586,0.01591301,0,
00:05.9,0.001447678,-0.006242752,0.015918732,0,
00:05.9,0.001441956,-0.006271362,0.015924454,0,
00:05.9,0.001436234,-0.006288528,0.015924454,0,
00:05.9,0.001441956,-0.006248474,0.015918732,0,
00:05.9,0.001447678,-0.006231308,0.015918732,0,
00:05.9,0.0014534,-0.006225586,0.015918732,0,
00:05.9,0.001441956,-0.006248474,0.015918732,0,
00:05.9,0.001441956,-0.00626564,0.015918732,0,
00:06.0,0.001447678,-0.00626564,0.015918732,0,
00:06.0,0.001447678,-0.006242752,0.015907288,0,
00:06.0,0.001447678,-0.00623703,0.01591301,0,
00:06.0,0.0014534,-0.006219864,0.015924454,0,
00:06.0,0.001459122,-0.006219864,0.015918732,0,
00:06.0,0.001459122,-0.00623703,0.01591301,0,
00:06.0,0.001441956,-0.006259918,0.01591301,0,
00:06.0,0.001447678,-0.006254196,0.015918732,0,
00:06.0,0.001447678,-0.006254196,0.015924454,0,
00:06.0,0.001441956,-0.006254196,0.01591301,0,
00:06.0,0.001441956,-0.006242752,0.015907288,0,
00:06.0,0.0014534,-0.006219864,0.015907288,0,
00:00:06,0.001459122,-0.00620842,0.015918732,0,
00:06.0,0.001436234,-0.006248474,0.015918732,0,
00:06.0,0.001436234,-0.006271362,0.01591301,0,
00:06.0,0.0014534,-0.006242752,0.015901566,0,
00:06.0,0.001464844,-0.006214142,0.015901566,0,
00:06.0,0.001447678,-0.006242752,0.015907288,0,
00:06.0,0.001441956,-0.006259918,0.015918732,0,
00:06.0,0.001447678,-0.006231308,0.01591301,0,
00:06.0,0.001441956,-0.006214142,0.01591301,0,
00:06.0,0.001436234,-0.006259918,0.01591301,0,
00:06.0,0.001441956,-0.006259918,0.015918732,0,
00:06.0,0.001447678,-0.006242752,0.01591301,0,
00:06.0,0.001447678,-0.006231308,0.01591301,0,
00:06.1,0.001447678,-0.006248474,0.015907288,0,
00:06.1,0.001436234,-0.006254196,0.015901566,0,
00:06.1,0.001441956,-0.006231308,0.015918732,0,
00:06.1,0.001447678,-0.006231308,0.01591301,0,
00:06.1,0.001441956,-0.006248474,0.015901566,0,
00:06.1,0.001447678,-0.006225586,0.015901566,0,
00:06.1,0.0014534,-0.006214142,0.015901566,0,
00:06.1,0.001441956,-0.006225586,0.01591301,0,
00:06.1,0.001447678,-0.006254196,0.01591301,0,
00:06.1,0.0014534,-0.006259918,0.015901566,0,
00:06.1,0.0014534,-0.00623703,0.015901566,0,
00:06.1,0.001447678,-0.006254196,0.015901566,0,
00:06.1,0.001441956,-0.00623703,0.015907288,0,
00:06.1,0.001447678,-0.006219864,0.01591301,0,
00:06.1,0.001436234,-0.006231308,0.015907288,0,
00:06.1,0.001441956,-0.006242752,0.015901566,0,
00:06.1,0.001441956,-0.006248474,0.015901566,0,
00:06.1,0.001447678,-0.006231308,0.015907288,0,
00:06.1,0.001447678,-0.006231308,0.01591301,0,
00:06.1,0.001436234,-0.006259918,0.015907288,0,
00:06.1,0.001436234,-0.006242752,0.015890121,0,
00:06.1,0.001436234,-0.006219864,0.015895844,0,
00:06.1,0.001441956,-0.006219864,0.015907288,0,
00:06.1,0.001441956,-0.006242752,0.015907288,0,
00:06.1,0.001459122,-0.006231308,0.015901566,0,
00:06.2,0.0014534,-0.006225586,0.015895844,0,
00:06.2,0.001447678,-0.006219864,0.015895844,0,
00:06.2,0.001430511,-0.006225586,0.015907288,0,
00:06.2,0.001441956,-0.006231308,0.015907288,0,
00:06.2,0.0014534,-0.006242752,0.015901566,0,
00:06.2,0.001436234,-0.006248474,0.015901566,0,
00:06.2,0.001447678,-0.006219864,0.015901566,0,
00:06.2,0.001441956,-0.006231308,0.015901566,0,
00:06.2,0.001430511,-0.006259918,0.015895844,0,
00:06.2,0.001430511,-0.006248474,0.015907288,0,
00:06.2,0.0014534,-0.006219864,0.015895844,0,
00:06.2,0.0014534,-0.006202698,0.015895844,0,
00:06.2,0.001447678,-0.006214142,0.015895844,0,
00:06.2,0.001436234,-0.006225586,0.015895844,0,
00:06.2,0.001424789,-0.006248474,0.015890121,0,
00:06.2,0.001419067,-0.006282806,0.015901566,0,
00:06.2,0.001424789,-0.006254196,0.015895844,0,
00:06.2,0.001436234,-0.00620842,0.015901566,0,
00:06.2,0.001441956,-0.006214142,0.015901566,0,
00:06.2,0.0014534,-0.006214142,0.015895844,0,
00:06.2,0.001436234,-0.006242752,0.015884399,0,
00:06.2,0.001430511,-0.006248474,0.015890121,0,
00:06.2,0.001441956,-0.006214142,0.015901566,0,
00:06.2,0.001436234,-0.006219864,0.015901566,0,
00:06.2,0.001441956,-0.006225586,0.015884399,0,
00:06.3,0.001436234,-0.006225586,0.015884399,0,
00:06.3,0.001424789,-0.006254196,0.015890121,0,
00:06.3,0.001424789,-0.006259918,0.015895844,0,
00:06.3,0.001441956,-0.006225586,0.015895844,0,
00:06.3,0.0014534,-0.006214142,0.015890121,0,
00:06.3,0.001447678,-0.006219864,0.015878677,0,
00:06.3,0.001447678,-0.006219864,0.015884399,0,
00:06.3,0.001441956,-0.006219864,0.015890121,0,
00:06.3,0.001430511,-0.00623703,0.015901566,0,
00:06.3,0.001419067,-0.006242752,0.015895844,0,
00:06.3,0.001424789,-0.00623703,0.015884399,0,
00:06.3,0.001441956,-0.006225586,0.015884399,0,
00:06.3,0.001441956,-0.006225586,0.015884399,0,
00:06.3,0.001441956,-0.006214142,0.015901566,0,
00:06.3,0.001430511,-0.006231308,0.015890121,0,
00:06.3,0.001430511,-0.00623703,0.015884399,0,
00:06.3,0.001430511,-0.006225586,0.015884399,0,
00:06.3,0.001436234,-0.006219864,0.015890121,0,
00:06.3,0.001436234,-0.00623703,0.015890121,0,
00:06.3,0.001430511,-0.006231308,0.015884399,0,
00:06.3,0.001424789,-0.006248474,0.015872955,0,
00:06.3,0.001430511,-0.006231308,0.015884399,0,
00:06.3,0.001436234,-0.006225586,0.015890121,0,
00:06.3,0.001436234,-0.006225586,0.015878677,0,
00:06.3,0.001441956,-0.00620842,0.015878677,0,
00:06.4,0.001436234,-0.00620842,0.015878677,0,
00:06.4,0.001441956,-0.00620842,0.015878677,0,
00:06.4,0.001419067,-0.006254196,0.015878677,0,
00:06.4,0.001419067,-0.006259918,0.015878677,0,
00:06.4,0.001424789,-0.006219864,0.015878677,0,
00:06.4,0.001424789,-0.00620842,0.015878677,0,
00:06.4,0.001430511,-0.006219864,0.015884399,0,
00:06.4,0.001441956,-0.006214142,0.015878677,0,
00:06.4,0.001424789,-0.006231308,0.015884399,0,
00:06.4,0.001413345,-0.006254196,0.015884399,0,
00:06.4,0.001407623,-0.00626564,0.015872955,0,
00:06.4,0.001424789,-0.006254196,0.015872955,0,
00:06.4,0.001441956,-0.006214142,0.015878677,0,
00:06.4,0.001447678,-0.006174088,0.015884399,0,
00:06.4,0.001430511,-0.006191254,0.015867233,0,
00:06.4,0.001430511,-0.006225586,0.015872955,0,
00:06.4,0.001424789,-0.00623703,0.015872955,0,
00:06.4,0.001419067,-0.00623703,0.015878677,0,
00:06.4,0.001436234,-0.00623703,0.015878677,0,
00:06.4,0.001441956,-0.006219864,0.015872955,0,
00:06.4,0.001430511,-0.006214142,0.015878677,0,
00:06.4,0.001419067,-0.006219864,0.015872955,0,
00:06.4,0.001419067,-0.006225586,0.015878677,0,
00:06.4,0.001430511,-0.00620842,0.015884399,0,
00:06.4,0.001424789,-0.006214142,0.015878677,0,
00:06.5,0.001430511,-0.006219864,0.015872955,0,
00:06.5,0.001419067,-0.006225586,0.015872955,0,
00:06.5,0.001407623,-0.006242752,0.015872955,0,
00:06.5,0.001407623,-0.006259918,0.015878677,0,
00:06.5,0.001401901,-0.006248474,0.015867233,0,
00:06.5,0.001419067,-0.006214142,0.015861511,0,
00:06.5,0.001436234,-0.006196976,0.015861511,0,
00:06.5,0.001441956,-0.006191254,0.015872955,0,
00:06.5,0.001430511,-0.006196976,0.015878677,0,
00:06.5,0.001424789,-0.006214142,0.015872955,0,
00:06.5,0.001424789,-0.006259918,0.015867233,0,
00:06.5,0.001419067,-0.006259918,0.015855789,0,
00:06.5,0.001419067,-0.006214142,0.015867233,0,
00:06.5,0.001413345,-0.00620842,0.015872955,0,
00:06.5,0.001419067,-0.006219864,0.015867233,0,
00:06.5,0.001419067,-0.00623703,0.015861511,0,
00:06.5,0.001407623,-0.006242752,0.015867233,0,
00:06.5,0.001424789,-0.006202698,0.015867233,0,
00:06.5,0.001436234,-0.006185532,0.015867233,0,
00:06.5,0.001413345,-0.00623703,0.015867233,0,
00:06.5,0.001407623,-0.006254196,0.015861511,0,
00:06.5,0.001424789,-0.006225586,0.015861511,0,
00:06.5,0.001413345,-0.006225586,0.015861511,0,
00:06.5,0.001407623,-0.006225586,0.015867233,0,
00:06.5,0.001419067,-0.006231308,0.015855789,0,
00:06.6,0.001419067,-0.006214142,0.015861511,0,
00:06.6,0.001430511,-0.006191254,0.015867233,0,
00:06.6,0.001413345,-0.006225586,0.015867233,0,
00:06.6,0.001407623,-0.006231308,0.015861511,0,
00:06.6,0.001413345,-0.006225586,0.015861511,0,
00:06.6,0.001413345,-0.006242752,0.015855789,0,
00:06.6,0.001401901,-0.006254196,0.015861511,0,
00:06.6,0.001413345,-0.006248474,0.015861511,0,
00:06.6,0.001419067,-0.006225586,0.015861511,0,
00:06.6,0.001419067,-0.006202698,0.015855789,0,
00:06.6,0.001424789,-0.006202698,0.015855789,0,
00:06.6,0.001419067,-0.006219864,0.015855789,0,
00:06.6,0.001413345,-0.006231308,0.015855789,0,
00:06.6,0.001413345,-0.006225586,0.015861511,0,
00:06.6,0.001407623,-0.006231308,0.015855789,0,
00:06.6,0.001407623,-0.006231308,0.015850067,0,
00:06.6,0.001413345,-0.006248474,0.015855789,0,
00:06.6,0.001396179,-0.006254196,0.015867233,0,
00:06.6,0.001407623,-0.006219864,0.015861511,0,
00:06.6,0.001419067,-0.006219864,0.015850067,0,
00:06.6,0.001413345,-0.006231308,0.015855789,0,
00:06.6,0.001407623,-0.006231308,0.015855789,0,
00:06.6,0.001401901,-0.006242752,0.015855789,0,
00:06.6,0.001401901,-0.006259918,0.015855789,0,
00:06.6,0.001413345,-0.00623703,0.015855789,0,
00:06.7,0.001419067,-0.006219864,0.015855789,0,
00:06.7,0.001413345,-0.006242752,0.015855789,0,
00:06.7,0.001396179,-0.006242752,0.015861511,0,
00:06.7,0.001401901,-0.006219864,0.015867233,0,
00:06.7,0.001424789,-0.006214142,0.015855789,0,
00:06.7,0.001407623,-0.00623703,0.015850067,0,
00:06.7,0.001396179,-0.006277084,0.015850067,0,
00:06.7,0.001390457,-0.006259918,0.015855789,0,
00:06.7,0.001413345,-0.006219864,0.015861511,0,
00:06.7,0.001419067,-0.006214142,0.015855789,0,
00:06.7,0.001413345,-0.006231308,0.015855789,0,
00:06.7,0.001396179,-0.006254196,0.015855789,0,
00:06.7,0.001384735,-0.006277084,0.015861511,0,
00:06.7,0.001390457,-0.006248474,0.015861511,0,
00:06.7,0.001396179,-0.00623703,0.015855789,0,
00:06.7,0.001413345,-0.00623703,0.015844345,0,
00:06.7,0.001407623,-0.006242752,0.015861511,0,
00:06.7,0.001396179,-0.006254196,0.015855789,0,
00:06.7,0.001396179,-0.006248474,0.015861511,0,
00:06.7,0.001396179,-0.00626564,0.015855789,0,
00:06.7,0.001396179,-0.006259918,0.015855789,0,
00:06.7,0.001401901,-0.006248474,0.015850067,0,
00:06.7,0.001396179,-0.006242752,0.015855789,0,
00:06.7,0.001390457,-0.006271362,0.015861511,0,
00:06.7,0.001390457,-0.00626564,0.015861511,0,
00:06.8,0.001390457,-0.006271362,0.015850067,0,
00:06.8,0.001390457,-0.006271362,0.015850067,0,
00:06.8,0.001401901,-0.006248474,0.015861511,0,
00:06.8,0.001390457,-0.006259918,0.015867233,0,
00:06.8,0.001384735,-0.00626564,0.015855789,0,
00:06.8,0.001396179,-0.006254196,0.015850067,0,
00:06.8,0.001396179,-0.006277084,0.015855789,0,
00:06.8,0.001390457,-0.006254196,0.015855789,0,
00:06.8,0.001390457,-0.006248474,0.015861511,0,
00:06.8,0.001373291,-0.00629425,0.015867233,0,
00:06.8,0.001373291,-0.006299973,0.015861511,0,
00:06.8,0.001396179,-0.006271362,0.015861511,0,
00:06.8,0.001390457,-0.006271362,0.015867233,0,
00:06.8,0.001390457,-0.006277084,0.015867233,0,
00:06.8,0.001401901,-0.006248474,0.015861511,0,
00:06.8,0.001390457,-0.006277084,0.015861511,0,
00:06.8,0.001384735,-0.006299973,0.015861511,0,
00:06.8,0.001384735,-0.006288528,0.015867233,0,
00:06.8,0.001373291,-0.006288528,0.015867233,0,
00:06.8,0.001379013,-0.00629425,0.015867233,0,
00:06.8,0.001390457,-0.006277084,0.015855789,0,
00:06.8,0.001373291,-0.00629425,0.015861511,0,
00:06.8,0.001373291,-0.006299973,0.015878677,0,
00:06.8,0.001396179,-0.006282806,0.015872955,0,
00:06.8,0.001396179,-0.006277084,0.015867233,0,
00:06.9,0.001373291,-0.006299973,0.015855789,0,
00:06.9,0.001361847,-0.006311417,0.015867233,0,
00:06.9,0.001361847,-0.006305695,0.015878677,0,
00:06.9,0.001379013,-0.006305695,0.015872955,0,
00:06.9,0.001379013,-0.006288528,0.015867233,0,
00:06.9,0.001379013,-0.006277084,0.015867233,0,
00:06.9,0.001373291,-0.006305695,0.015872955,0,
00:06.9,0.001384735,-0.006288528,0.015878677,0,
00:06.9,0.001396179,-0.00629425,0.015878677,0,
00:06.9,0.001390457,-0.00629425,0.015872955,0,
00:06.9,0.001384735,-0.00629425,0.015872955,0,
00:06.9,0.001356125,-0.006340027,0.015872955,0,
00:06.9,0.001361847,-0.006322861,0.015884399,0,
00:06.9,0.001373291,-0.006322861,0.015884399,0,
00:06.9,0.001361847,-0.006334305,0.015884399,0,
00:06.9,0.001367569,-0.006340027,0.015878677,0,
00:06.9,0.001384735,-0.006288528,0.015884399,0,
00:06.9,0.001379013,-0.006299973,0.015890121,0,
00:06.9,0.001367569,-0.006328583,0.015890121,0,
00:06.9,0.001361847,-0.006334305,0.015884399,0,
00:06.9,0.001361847,-0.006328583,0.015884399,0,
00:06.9,0.001367569,-0.006334305,0.015890121,0,
00:06.9,0.001367569,-0.006340027,0.015895844,0,
00:06.9,0.001373291,-0.006322861,0.015901566,0,
00:06.9,0.001367569,-0.006334305,0.015895844,0,
00:07.0,0.001361847,-0.006340027,0.015890121,0,
00:07.0,0.001367569,-0.006345749,0.015895844,0,
00:07.0,0.001379013,-0.006334305,0.015901566,0,
00:07.0,0.001373291,-0.006345749,0.015907288,0,
00:07.0,0.001367569,-0.006357193,0.015901566,0,
00:07.0,0.001361847,-0.006357193,0.015907288,0,
00:07.0,0.001373291,-0.006334305,0.01591301,0,
00:07.0,0.001367569,-0.006357193,0.015918732,0,
00:07.0,0.001356125,-0.006391525,0.015918732,0,
00:07.0,0.001361847,-0.006374359,0.015918732,0,
00:07.0,0.001373291,-0.006340027,0.01591301,0,
00:07.0,0.001361847,-0.006351471,0.01591301,0,
00:00:07,0.001361847,-0.006374359,0.015924454,0,
00:07.0,0.001367569,-0.006368637,0.015924454,0,
00:07.0,0.001367569,-0.006368637,0.015924454,0,
00:07.0,0.001367569,-0.006362915,0.015930176,0,
00:07.0,0.001361847,-0.006374359,0.015935898,0,
00:07.0,0.001356125,-0.006368637,0.015935898,0,
00:07.0,0.001367569,-0.006368637,0.015935898,0,
00:07.0,0.001379013,-0.006362915,0.015935898,0,
00:07.0,0.001361847,-0.006385803,0.015947342,0,
00:07.0,0.001356125,-0.006408691,0.01594162,0,
00:07.0,0.001356125,-0.006414413,0.015947342,0,
00:07.0,0.001350403,-0.006414413,0.015953064,0,
00:07.0,0.001373291,-0.006385803,0.015953064,0,
00:07.1,0.001373291,-0.006397247,0.015947342,0,
00:07.1,0.001361847,-0.006408691,0.015947342,0,
00:07.1,0.001373291,-0.006408691,0.015958786,0,
00:07.1,0.001367569,-0.006397247,0.015964508,0,
00:07.1,0.001361847,-0.006397247,0.015964508,0,
00:07.1,0.001367569,-0.006402969,0.015958786,0,
00:07.1,0.001350403,-0.00643158,0.01597023,0,
00:07.1,0.001344681,-0.00643158,0.01597023,0,
00:07.1,0.001356125,-0.006414413,0.015975952,0,
00:07.1,0.001367569,-0.006420135,0.015975952,0,
00:07.1,0.001361847,-0.006425858,0.01597023,0,
00:07.1,0.001356125,-0.006425858,0.015981674,0,
00:07.1,0.001350403,-0.00643158,0.015987396,0,
00:07.1,0.001356125,-0.006425858,0.01599884,0,
00:07.1,0.001361847,-0.006425858,0.015987396,0,
00:07.1,0.001350403,-0.006448746,0.015987396,0,
00:07.1,0.001350403,-0.006477356,0.015993118,0,
00:07.1,0.001361847,-0.006465912,0.01599884,0,
00:07.1,0.001367569,-0.00643158,0.01599884,0,
00:07.1,0.001379013,-0.006420135,0.01599884,0,
00:07.1,0.001367569,-0.006420135,0.016004562,0,
00:07.1,0.001361847,-0.006454468,0.016010284,0,
00:07.1,0.001367569,-0.00646019,0.016010284,0,
00:07.1,0.001367569,-0.006465912,0.016016006,0,
00:07.1,0.001356125,-0.006477356,0.016016006,0,
00:07.2,0.001361847,-0.006454468,0.016010284,0,
00:07.2,0.001384735,-0.006437302,0.016016006,0,
00:07.2,0.001373291,-0.006448746,0.016033173,0,
00:07.2,0.001361847,-0.006465912,0.016027451,0,
00:07.2,0.001361847,-0.006471634,0.016027451,0,
00:07.2,0.001361847,-0.006483078,0.016033173,0,
00:07.2,0.001367569,-0.0064888,0.016033173,0,
00:07.2,0.001356125,-0.006500244,0.016038895,0,
00:07.2,0.001356125,-0.006494522,0.016038895,0,
00:07.2,0.001356125,-0.006511688,0.016038895,0,
00:07.2,0.001350403,-0.006500244,0.016044617,0,
00:07.2,0.001373291,-0.00646019,0.016044617,0,
00:07.2,0.001373291,-0.00646019,0.016050339,0,
00:07.2,0.001379013,-0.006477356,0.016056061,0,
00:07.2,0.001367569,-0.006505966,0.016056061,0,
00:07.2,0.001373291,-0.00651741,0.016050339,0,
00:07.2,0.001373291,-0.006511688,0.016056061,0,
00:07.2,0.001373291,-0.006500244,0.016067505,0,
00:07.2,0.001367569,-0.006511688,0.016067505,0,
00:07.2,0.001344681,-0.006546021,0.016067505,0,
00:07.2,0.001344681,-0.006557465,0.016061783,0,
00:07.2,0.001367569,-0.006511688,0.016073227,0,
00:07.2,0.001390457,-0.006471634,0.016073227,0,
00:07.2,0.001390457,-0.006500244,0.016084671,0,
00:07.2,0.001373291,-0.00651741,0.016073227,0,
00:07.3,0.001361847,-0.006528854,0.016073227,0,
00:07.3,0.001373291,-0.006523132,0.016090393,0,
00:07.3,0.001379013,-0.006540298,0.016090393,0,
00:07.3,0.001356125,-0.006557465,0.016090393,0,
00:07.3,0.001361847,-0.006546021,0.016096115,0,
00:07.3,0.001367569,-0.006528854,0.016096115,0,
00:07.3,0.001361847,-0.006551743,0.016096115,0,
00:07.3,0.001379013,-0.006528854,0.016107559,0,
00:07.3,0.001390457,-0.00651741,0.016107559,0,
00:07.3,0.001379013,-0.006546021,0.016101837,0,
00:07.3,0.001361847,-0.006563187,0.016107559,0,
00:07.3,0.001367569,-0.006557465,0.016107559,0,
00:07.3,0.001379013,-0.006534576,0.016113281,0,
00:07.3,0.001379013,-0.006534576,0.016113281,0,
00:07.3,0.001367569,-0.006591797,0.016113281,0,
00:07.3,0.001367569,-0.006580353,0.016113281,0,
00:07.3,0.001390457,-0.006540298,0.016119003,0,
00:07.3,0.001390457,-0.006551743,0.016119003,0,
00:07.3,0.001384735,-0.006557465,0.016124725,0,
00:07.3,0.001384735,-0.006557465,0.016124725,0,
00:07.3,0.001373291,-0.006574631,0.016119003,0,
00:07.3,0.001373291,-0.006580353,0.016130447,0,
00:07.3,0.001379013,-0.006591797,0.016130447,0,
00:07.3,0.001367569,-0.006574631,0.016141891,0,
00:07.3,0.001379013,-0.006563187,0.016130447,0,
00:07.4,0.001384735,-0.006568909,0.016124725,0,
00:07.4,0.001373291,-0.006586075,0.016130447,0,
00:07.4,0.001379013,-0.006586075,0.016147614,0,
00:07.4,0.001373291,-0.006591797,0.016147614,0,
00:07.4,0.001373291,-0.006603241,0.016141891,0,
00:07.4,0.001379013,-0.006597519,0.016141891,0,
00:07.4,0.001379013,-0.006591797,0.016141891,0,
00:07.4,0.001379013,-0.006603241,0.016153336,0,
00:07.4,0.001367569,-0.006626129,0.016153336,0,
00:07.4,0.001384735,-0.006574631,0.016153336,0,
00:07.4,0.001396179,-0.006580353,0.016147614,0,
00:07.4,0.001396179,-0.006586075,0.016153336,0,
00:07.4,0.001384735,-0.006591797,0.016159058,0,
00:07.4,0.001384735,-0.006591797,0.016159058,0,
00:07.4,0.001384735,-0.006608963,0.016159058,0,
00:07.4,0.001390457,-0.006603241,0.016147614,0,
00:07.4,0.001390457,-0.006626129,0.016153336,0,
00:07.4,0.001373291,-0.006637573,0.016159058,0,
00:07.4,0.001373291,-0.006614685,0.01616478,0,
00:07.4,0.001390457,-0.006603241,0.01616478,0,
00:07.4,0.001384735,-0.006608963,0.016159058,0,
00:07.4,0.001390457,-0.006603241,0.01616478,0,
00:07.4,0.001384735,-0.006620407,0.01616478,0,
00:07.4,0.001379013,-0.006637573,0.016170502,0,
00:07.4,0.001396179,-0.006614685,0.01616478,0,
00:07.5,0.001396179,-0.006597519,0.01616478,0,
00:07.5,0.001396179,-0.006626129,0.01616478,0,
00:07.5,0.001396179,-0.006620407,0.016181946,0,
00:07.5,0.001396179,-0.006620407,0.016181946,0,
00:07.5,0.001396179,-0.006637573,0.016170502,0,
00:07.5,0.001379013,-0.006649017,0.01616478,0,
00:07.5,0.001396179,-0.006620407,0.016170502,0,
00:07.5,0.001396179,-0.006608963,0.016181946,0,
00:07.5,0.001401901,-0.006626129,0.016181946,0,
00:07.5,0.001401901,-0.006637573,0.016170502,0,
00:07.5,0.001396179,-0.006631851,0.01616478,0,
00:07.5,0.001396179,-0.006643295,0.016170502,0,
00:07.5,0.001396179,-0.006637573,0.016181946,0,
00:07.5,0.001396179,-0.006626129,0.016181946,0,
00:07.5,0.001413345,-0.006626129,0.016176224,0,
00:07.5,0.001401901,-0.006649017,0.016176224,0,
00:07.5,0.001373291,-0.006660461,0.016181946,0,
00:07.5,0.001396179,-0.006637573,0.016181946,0,
00:07.5,0.001407623,-0.006626129,0.016181946,0,
00:07.5,0.001413345,-0.006643295,0.016170502,0,
00:07.5,0.001407623,-0.006637573,0.016170502,0,
00:07.5,0.001396179,-0.006654739,0.016170502,0,
00:07.5,0.001396179,-0.006660461,0.016176224,0,
00:07.5,0.001401901,-0.006660461,0.016181946,0,
00:07.5,0.001407623,-0.006637573,0.016170502,0,
00:07.6,0.001407623,-0.006643295,0.01616478,0,
00:07.6,0.001401901,-0.006643295,0.016176224,0,
00:07.6,0.001396179,-0.006671906,0.016181946,0,
00:07.6,0.001407623,-0.006654739,0.016176224,0,
00:07.6,0.001413345,-0.006620407,0.016170502,0,
00:07.6,0.001407623,-0.006637573,0.016170502,0,
00:07.6,0.001401901,-0.006666183,0.016170502,0,
00:07.6,0.001396179,-0.006671906,0.016170502,0,
00:07.6,0.001413345,-0.006654739,0.016170502,0,
00:07.6,0.001419067,-0.006649017,0.016176224,0,
00:07.6,0.001419067,-0.006637573,0.016170502,0,
00:07.6,0.001407623,-0.006654739,0.016176224,0,
00:07.6,0.001396179,-0.006700516,0.016176224,0,
00:07.6,0.001401901,-0.006706238,0.016170502,0,
00:07.6,0.001401901,-0.006666183,0.01616478,0,
00:07.6,0.001407623,-0.006660461,0.01616478,0,
00:07.6,0.001401901,-0.006677628,0.01616478,0,
00:07.6,0.001407623,-0.006694794,0.01616478,0,
00:07.6,0.001413345,-0.006671906,0.016170502,0,
00:07.6,0.001419067,-0.006660461,0.01616478,0,
00:07.6,0.001419067,-0.006666183,0.016170502,0,
00:07.6,0.001419067,-0.006677628,0.01616478,0,
00:07.6,0.001407623,-0.006694794,0.01616478,0,
00:07.6,0.001401901,-0.006689072,0.01616478,0,
00:07.6,0.001424789,-0.006654739,0.016159058,0,
00:07.7,0.001430511,-0.006643295,0.016159058,0,
00:07.7,0.001424789,-0.006649017,0.016159058,0,
00:07.7,0.001419067,-0.006654739,0.016159058,0,
00:07.7,0.001413345,-0.00668335,0.016153336,0,
00:07.7,0.001419067,-0.006671906,0.016153336,0,
00:07.7,0.001407623,-0.00671196,0.016147614,0,
00:07.7,0.001413345,-0.00671196,0.016147614,0,
00:07.7,0.001413345,-0.006671906,0.016153336,0,
00:07.7,0.001424789,-0.006649017,0.016147614,0,
00:07.7,0.001436234,-0.006654739,0.016141891,0,
00:07.7,0.001424789,-0.00668335,0.016136169,0,
00:07.7,0.001419067,-0.006694794,0.016141891,0,
00:07.7,0.001424789,-0.00668335,0.016141891,0,
00:07.7,0.001419067,-0.006689072,0.016147614,0,
00:07.7,0.001419067,-0.00668335,0.016136169,0,
00:07.7,0.001430511,-0.00668335,0.016130447,0,
00:07.7,0.001436234,-0.006689072,0.016130447,0,
00:07.7,0.001424789,-0.00668335,0.016130447,0,
00:07.7,0.001424789,-0.006677628,0.016124725,0,
00:07.7,0.001430511,-0.006671906,0.016113281,0,
00:07.7,0.001436234,-0.00668335,0.016119003,0,
00:07.7,0.001424789,-0.00671196,0.016119003,0,
00:07.7,0.001407623,-0.006706238,0.016124725,0,
00:07.7,0.001441956,-0.006654739,0.016119003,0,
00:07.7,0.0014534,-0.006660461,0.016101837,0,
00:07.8,0.001424789,-0.006700516,0.016101837,0,
00:07.8,0.001407623,-0.006723404,0.016113281,0,
00:07.8,0.001413345,-0.006723404,0.016113281,0,
00:07.8,0.001419067,-0.00671196,0.016101837,0,
00:07.8,0.001436234,-0.006689072,0.016096115,0,
00:07.8,0.001447678,-0.006666183,0.016084671,0,
00:07.8,0.001447678,-0.006671906,0.016090393,0,
00:07.8,0.001430511,-0.006706238,0.016090393,0,
00:07.8,0.001430511,-0.006689072,0.016096115,0,
00:07.8,0.001436234,-0.006677628,0.016084671,0,
00:07.8,0.001447678,-0.006677628,0.016078949,0,
00:07.8,0.001430511,-0.00671196,0.016090393,0,
00:07.8,0.001430511,-0.006700516,0.016084671,0,
00:07.8,0.001430511,-0.006700516,0.016073227,0,
00:07.8,0.001424789,-0.006706238,0.016073227,0,
00:07.8,0.001441956,-0.006677628,0.016061783,0,
00:07.8,0.001447678,-0.006666183,0.016061783,0,
00:07.8,0.001436234,-0.006700516,0.016073227,0,
00:07.8,0.001430511,-0.006706238,0.016056061,0,
00:07.8,0.001447678,-0.006671906,0.016050339,0,
00:07.8,0.001436234,-0.006723404,0.016050339,0,
00:07.8,0.001407623,-0.006729126,0.016044617,0,
00:07.8,0.001419067,-0.006700516,0.016050339,0,
00:07.8,0.0014534,-0.006671906,0.016050339,0,
00:07.8,0.0014534,-0.006689072,0.016038895,0,
00:07.9,0.001441956,-0.006700516,0.016033173,0,
00:07.9,0.001441956,-0.006689072,0.016033173,0,
00:07.9,0.001447678,-0.006660461,0.016027451,0,
00:07.9,0.001447678,-0.006660461,0.016027451,0,
00:07.9,0.0014534,-0.006689072,0.016016006,0,
00:07.9,0.001441956,-0.006717682,0.016016006,0,
00:07.9,0.001447678,-0.006700516,0.016016006,0,
00:07.9,0.001424789,-0.00671196,0.016021729,0,
00:07.9,0.001430511,-0.00668335,0.016004562,0,
00:07.9,0.0014534,-0.006671906,0.01599884,0,
00:07.9,0.0014534,-0.006689072,0.01599884,0,
00:07.9,0.001459122,-0.006694794,0.015993118,0,
00:07.9,0.0014534,-0.00668335,0.01599884,0,
00:07.9,0.001436234,-0.006700516,0.015993118,0,
00:07.9,0.001436234,-0.006694794,0.015981674,0,
00:07.9,0.001441956,-0.006689072,0.01597023,0,
00:07.9,0.001436234,-0.006689072,0.015975952,0,
00:07.9,0.001447678,-0.006671906,0.015975952,0,
00:07.9,0.001470566,-0.006654739,0.015964508,0,
00:07.9,0.001459122,-0.006689072,0.015958786,0,
00:07.9,0.001441956,-0.006723404,0.01597023,0,
00:07.9,0.001430511,-0.00671196,0.015953064,0,
00:07.9,0.001447678,-0.006671906,0.015953064,0,
00:07.9,0.001441956,-0.006694794,0.015953064,0,
00:07.9,0.001447678,-0.006694794,0.015935898,0,
00:08.0,0.001447678,-0.006660461,0.015924454,0,
00:08.0,0.001459122,-0.006637573,0.015924454,0,
00:08.0,0.0014534,-0.006666183,0.015947342,0,
00:08.0,0.001470566,-0.006666183,0.015930176,0,
00:08.0,0.001470566,-0.006677628,0.01591301,0,
00:08.0,0.001459122,-0.006689072,0.01591301,0,
00:08.0,0.0014534,-0.00671196,0.01591301,0,
00:08.0,0.001436234,-0.006723404,0.01591301,0,
00:08.0,0.001459122,-0.006660461,0.015907288,0,
00:08.0,0.001459122,-0.006654739,0.015901566,0,
00:08.0,0.001436234,-0.00671196,0.015895844,0,
00:08.0,0.001436234,-0.006700516,0.015895844,0,
00:00:08,0.0014534,-0.006689072,0.015884399,0,
00:08.0,0.001459122,-0.006689072,0.015884399,0,
00:08.0,0.001447678,-0.006694794,0.015878677,0,
00:08.0,0.0014534,-0.006700516,0.015872955,0,
00:08.0,0.001459122,-0.006677628,0.015884399,0,
00:08.0,0.001459122,-0.006666183,0.015872955,0,
00:08.0,0.0014534,-0.00668335,0.015867233,0,
00:08.0,0.0014534,-0.00668335,0.015867233,0,
00:08.0,0.001459122,-0.00668335,0.015850067,0,
00:08.0,0.001476288,-0.006643295,0.015850067,0,
00:08.0,0.0014534,-0.006660461,0.015850067,0,
00:08.0,0.001447678,-0.006723404,0.015850067,0,
00:08.0,0.001447678,-0.006723404,0.015844345,0,
00:08.1,0.001447678,-0.00668335,0.015838623,0,
00:08.1,0.001459122,-0.006666183,0.015838623,0,
00:08.1,0.001464844,-0.006654739,0.015838623,0,
00:08.1,0.001470566,-0.006660461,0.015838623,0,
00:08.1,0.0014534,-0.006671906,0.015815735,0,
00:08.1,0.001459122,-0.006700516,0.015827179,0,
00:08.1,0.001447678,-0.006694794,0.015815735,0,
00:08.1,0.001447678,-0.006671906,0.015804291,0,
00:08.1,0.001464844,-0.006671906,0.015810013,0,
00:08.1,0.0014534,-0.006689072,0.015804291,0,
00:08.1,0.0014534,-0.006689072,0.015798569,0,
00:08.1,0.001464844,-0.006660461,0.015810013,0,
00:08.1,0.001476288,-0.006671906,0.015798569,0,
00:08.1,0.00148201,-0.006654739,0.015792847,0,
00:08.1,0.0014534,-0.006689072,0.015792847,0,
00:08.1,0.001447678,-0.006694794,0.015781403,0,
00:08.1,0.0014534,-0.006694794,0.015781403,0,
00:08.1,0.001447678,-0.006689072,0.015775681,0,
00:08.1,0.001459122,-0.006660461,0.015781403,0,
00:08.1,0.001464844,-0.006660461,0.015781403,0,
00:08.1,0.001476288,-0.006660461,0.015775681,0,
00:08.1,0.001459122,-0.006660461,0.015781403,0,
00:08.1,0.0014534,-0.006671906,0.015775681,0,
00:08.1,0.001447678,-0.006700516,0.015764236,0,
00:08.1,0.0014534,-0.00668335,0.015758514,0,
00:08.2,0.001447678,-0.006694794,0.015752792,0,
00:08.2,0.001470566,-0.00668335,0.015758514,0,
00:08.2,0.001464844,-0.006677628,0.01574707,0,
00:08.2,0.001447678,-0.006694794,0.015758514,0,
00:08.2,0.001459122,-0.006666183,0.01574707,0,
00:08.2,0.001470566,-0.006649017,0.015752792,0,
00:08.2,0.001464844,-0.00668335,0.01574707,0,
00:08.2,0.001470566,-0.006666183,0.015741348,0,
00:08.2,0.001476288,-0.006649017,0.01574707,0,
00:08.2,0.001470566,-0.006654739,0.015735626,0,
00:08.2,0.001487732,-0.006631851,0.015729904,0,
00:08.2,0.0014534,-0.006677628,0.015729904,0,
00:08.2,0.001441956,-0.00671196,0.015729904,0,
00:08.2,0.0014534,-0.006700516,0.015729904,0,
00:08.2,0.001447678,-0.00668335,0.015729904,0,
00:08.2,0.001459122,-0.006700516,0.015724182,0,
00:08.2,0.001487732,-0.006654739,0.01571846,0,
00:08.2,0.00148201,-0.006649017,0.015712738,0,
00:08.2,0.001476288,-0.006660461,0.01571846,0,
00:08.2,0.001470566,-0.006666183,0.01571846,0,
00:08.2,0.001476288,-0.006677628,0.015712738,0,
00:08.2,0.001441956,-0.006746292,0.015707016,0,
00:08.2,0.001470566,-0.00668335,0.015712738,0,
00:08.2,0.001487732,-0.006643295,0.015712738,0,
00:08.2,0.001470566,-0.006660461,0.015684128,0,
00:08.3,0.001464844,-0.006666183,0.015695572,0,
00:08.3,0.001464844,-0.00668335,0.015712738,0,
00:08.3,0.001493454,-0.006637573,0.015707016,0,
00:08.3,0.00148201,-0.006637573,0.01568985,0,
00:08.3,0.001476288,-0.006666183,0.015672684,0,
00:08.3,0.001493454,-0.006626129,0.01568985,0,
00:08.3,0.001470566,-0.006654739,0.015701294,0,
00:08.3,0.00148201,-0.006660461,0.015695572,0,
00:08.3,0.001470566,-0.006660461,0.015678406,0,
00:08.3,0.001487732,-0.006666183,0.015672684,0,
00:08.3,0.001470566,-0.00668335,0.015678406,0,
00:08.3,0.001470566,-0.00668335,0.015684128,0,
00:08.3,0.001470566,-0.00668335,0.015678406,0,
00:08.3,0.001464844,-0.00668335,0.015678406,0,
00:08.3,0.001470566,-0.006671906,0.01566124,0,
00:08.3,0.001487732,-0.006643295,0.015666962,0,
00:08.3,0.001493454,-0.006631851,0.015678406,0,
00:08.3,0.00148201,-0.006649017,0.015672684,0,
00:08.3,0.00148201,-0.006671906,0.01566124,0,
00:08.3,0.001464844,-0.006694794,0.015666962,0,
00:08.3,0.001470566,-0.006694794,0.015666962,0,
00:08.3,0.001487732,-0.006649017,0.015655518,0,
00:08.3,0.001464844,-0.006671906,0.01566124,0,
00:08.3,0.001476288,-0.006649017,0.01566124,0,
00:08.3,0.001499176,-0.006614685,0.015649796,0,
00:08.4,0.001476288,-0.006671906,0.01566124,0,
00:08.4,0.001487732,-0.006671906,0.015655518,0,
00:08.4,0.001476288,-0.006649017,0.01566124,0,
00:08.4,0.001487732,-0.006649017,0.015655518,0,
00:08.4,0.00151062,-0.006649017,0.015644073,0,
00:08.4,0.001464844,-0.00668335,0.015644073,0,
00:08.4,0.001476288,-0.006649017,0.015655518,0,
00:08.4,0.001499176,-0.006597519,0.01566124,0,
00:08.4,0.001476288,-0.006649017,0.015644073,0,
00:08.4,0.001487732,-0.006660461,0.015638351,0,
00:08.4,0.001487732,-0.006660461,0.015626907,0,
00:08.4,0.001487732,-0.006643295,0.015638351,0,
00:08.4,0.001470566,-0.006660461,0.015649796,0,
00:08.4,0.001476288,-0.006677628,0.015638351,0,
00:08.4,0.00148201,-0.006694794,0.015638351,0,
00:08.4,0.001476288,-0.006689072,0.015632629,0,
00:08.4,0.001487732,-0.006626129,0.015638351,0,
00:08.4,0.00148201,-0.006614685,0.015638351,0,
00:08.4,0.001504898,-0.006631851,0.015632629,0,
00:08.4,0.00151062,-0.006620407,0.015626907,0,
00:08.4,0.001493454,-0.006649017,0.015632629,0,
00:08.4,0.001487732,-0.006660461,0.015632629,0,
00:08.4,0.00148201,-0.006637573,0.015638351,0,
00:08.4,0.001493454,-0.006637573,0.015632629,0,
00:08.4,0.001493454,-0.006654739,0.015626907,0,
00:08.5,0.00151062,-0.006626129,0.015621185,0,
00:08.5,0.001504898,-0.006620407,0.015626907,0,
00:08.5,0.00148201,-0.006643295,0.015621185,0,
00:08.5,0.001476288,-0.006654739,0.015632629,0,
00:08.5,0.00148201,-0.006643295,0.015632629,0,
00:08.5,0.001493454,-0.006643295,0.015626907,0,
00:08.5,0.001493454,-0.006649017,0.015632629,0,
00:08.5,0.00151062,-0.006603241,0.015626907,0,
00:08.5,0.00151062,-0.006614685,0.015621185,0,
00:08.5,0.001476288,-0.006666183,0.015632629,0,
00:08.5,0.001476288,-0.006666183,0.015621185,0,
00:08.5,0.001487732,-0.006666183,0.015621185,0,
00:08.5,0.001487732,-0.006649017,0.015626907,0,
00:08.5,0.001504898,-0.006586075,0.015632629,0,
00:08.5,0.001522064,-0.006563187,0.015626907,0,
00:08.5,0.00151062,-0.006591797,0.015609741,0,
00:08.5,0.001499176,-0.006620407,0.015621185,0,
00:08.5,0.001504898,-0.006608963,0.015626907,0,
00:08.5,0.001493454,-0.006631851,0.015626907,0,
00:08.5,0.001493454,-0.006643295,0.015609741,0,
00:08.5,0.001504898,-0.006620407,0.015609741,0,
00:08.5,0.001504898,-0.006620407,0.015621185,0,
00:08.5,0.001499176,-0.006620407,0.015621185,0,
00:08.5,0.001499176,-0.006614685,0.015621185,0,
00:08.5,0.001504898,-0.006620407,0.015609741,0,
00:08.6,0.00151062,-0.006608963,0.015615463,0,
00:08.6,0.001504898,-0.006614685,0.015626907,0,
00:08.6,0.001499176,-0.006626129,0.015626907,0,
00:08.6,0.001493454,-0.006631851,0.015615463,0,
00:08.6,0.001499176,-0.006649017,0.015621185,0,
00:08.6,0.001504898,-0.006626129,0.015609741,0,
00:08.6,0.001504898,-0.006591797,0.015615463,0,
00:08.6,0.001504898,-0.006591797,0.015621185,0,
00:08.6,0.00151062,-0.006603241,0.015626907,0,
00:08.6,0.001516342,-0.006591797,0.015609741,0,
00:08.6,0.001516342,-0.006608963,0.015609741,0,
00:08.6,0.00151062,-0.006614685,0.015609741,0,
00:08.6,0.00151062,-0.006603241,0.015615463,0,
00:08.6,0.001504898,-0.006586075,0.015621185,0,
00:08.6,0.001516342,-0.006603241,0.015621185,0,
00:08.6,0.001516342,-0.006608963,0.015609741,0,
00:08.6,0.001527786,-0.006586075,0.015621185,0,
00:08.6,0.001522064,-0.006580353,0.015621185,0,
00:08.6,0.00151062,-0.006591797,0.015609741,0,
00:08.6,0.001522064,-0.006580353,0.015609741,0,
00:08.6,0.001527786,-0.006580353,0.015615463,0,
00:08.6,0.001522064,-0.006563187,0.015621185,0,
00:08.6,0.001527786,-0.006546021,0.015615463,0,
00:08.6,0.001504898,-0.006580353,0.015609741,0,
00:08.6,0.001487732,-0.006620407,0.015615463,0,
00:08.7,0.001499176,-0.006591797,0.015615463,0,
00:08.7,0.001522064,-0.006540298,0.015621185,0,
00:08.7,0.00153923,-0.006534576,0.015615463,0,
00:08.7,0.001527786,-0.006528854,0.015621185,0,
00:08.7,0.001516342,-0.006551743,0.015609741,0,
00:08.7,0.001527786,-0.006534576,0.015609741,0,
00:08.7,0.001522064,-0.006546021,0.015626907,0,
00:08.7,0.001516342,-0.006574631,0.015626907,0,
00:08.7,0.00151062,-0.006568909,0.015615463,0,
00:08.7,0.001516342,-0.006557465,0.015615463,0,
00:08.7,0.001527786,-0.006551743,0.015621185,0,
00:08.7,0.00153923,-0.006523132,0.015626907,0,
00:08.7,0.001533508,-0.006546021,0.015621185,0,
00:08.7,0.001522064,-0.006568909,0.015621185,0,
00:08.7,0.001533508,-0.00651741,0.015621185,0,
00:08.7,0.00153923,-0.006523132,0.015615463,0,
00:08.7,0.001527786,-0.006546021,0.015621185,0,
00:08.7,0.001522064,-0.006574631,0.015626907,0,
00:08.7,0.001522064,-0.006563187,0.015621185,0,
00:08.7,0.001522064,-0.006523132,0.015621185,0,
00:08.7,0.001533508,-0.006528854,0.015615463,0,
00:08.7,0.001522064,-0.006551743,0.015621185,0,
00:08.7,0.001516342,-0.006546021,0.015621185,0,
00:08.7,0.001522064,-0.006557465,0.015621185,0,
00:08.7,0.001527786,-0.006568909,0.015615463,0,
00:08.8,0.001533508,-0.006540298,0.015621185,0,
00:08.8,0.00153923,-0.006534576,0.015615463,0,
00:08.8,0.00153923,-0.006505966,0.015626907,0,
00:08.8,0.001544952,-0.006500244,0.015621185,0,
00:08.8,0.00153923,-0.006551743,0.015615463,0,
00:08.8,0.001516342,-0.006586075,0.015621185,0,
00:08.8,0.001533508,-0.006534576,0.015626907,0,
00:08.8,0.001556396,-0.006500244,0.015621185,0,
00:08.8,0.001550674,-0.006505966,0.015621185,0,
00:08.8,0.001544952,-0.006528854,0.015626907,0,
00:08.8,0.001522064,-0.006568909,0.015621185,0,
00:08.8,0.00151062,-0.006574631,0.015638351,0,
00:08.8,0.001527786,-0.006546021,0.015644073,0,
00:08.8,0.001544952,-0.006505966,0.015638351,0,
00:08.8,0.001544952,-0.006505966,0.015621185,0,
00:08.8,0.001544952,-0.006505966,0.015621185,0,
00:08.8,0.001544952,-0.006511688,0.015632629,0,
00:08.8,0.00153923,-0.006523132,0.015638351,0,
00:08.8,0.001533508,-0.006528854,0.015638351,0,
00:08.8,0.00153923,-0.006523132,0.015632629,0,
00:08.8,0.001533508,-0.006523132,0.015632629,0,
00:08.8,0.001533508,-0.006534576,0.015632629,0,
00:08.8,0.001550674,-0.006511688,0.015649796,0,
00:08.8,0.001544952,-0.006500244,0.015632629,0,
00:08.8,0.00153923,-0.00651741,0.015632629,0,
00:08.9,0.001544952,-0.00651741,0.015638351,0,
00:08.9,0.00153923,-0.006528854,0.015644073,0,
00:08.9,0.00153923,-0.006534576,0.015649796,0,
00:08.9,0.001533508,-0.006540298,0.015644073,0,
00:08.9,0.00153923,-0.006540298,0.015638351,0,
00:08.9,0.001544952,-0.006511688,0.015632629,0,
00:08.9,0.001550674,-0.006483078,0.015644073,0,
00:08.9,0.001556396,-0.0064888,0.015649796,0,
00:08.9,0.001550674,-0.006477356,0.015644073,0,
00:08.9,0.001556396,-0.0064888,0.015644073,0,
00:08.9,0.001550674,-0.006505966,0.015644073,0,
00:08.9,0.001544952,-0.006500244,0.015644073,0,
00:08.9,0.001533508,-0.006511688,0.015655518,0,
00:08.9,0.001522064,-0.006523132,0.015655518,0,
00:08.9,0.001533508,-0.006500244,0.015638351,0,
00:08.9,0.001556396,-0.006483078,0.015644073,0,
00:08.9,0.001567841,-0.006465912,0.01566124,0,
00:08.9,0.001550674,-0.006500244,0.015655518,0,
00:08.9,0.001527786,-0.006500244,0.015655518,0,
00:08.9,0.001544952,-0.00651741,0.015655518,0,
00:08.9,0.001544952,-0.006523132,0.015655518,0,
00:08.9,0.00153923,-0.006505966,0.01566124,0,
00:08.9,0.001550674,-0.0064888,0.015655518,0,
00:08.9,0.00153923,-0.006523132,0.01566124,0,
00:08.9,0.00153923,-0.006494522,0.01566124,0,
00:09.0,0.00153923,-0.006477356,0.01566124,0,
00:09.0,0.001533508,-0.006494522,0.015666962,0,
00:09.0,0.001544952,-0.006500244,0.01566124,0,
00:09.0,0.001533508,-0.00651741,0.01566124,0,
00:09.0,0.001533508,-0.00651741,0.01566124,0,
00:09.0,0.001533508,-0.006494522,0.015655518,0,
00:09.0,0.00153923,-0.00646019,0.015666962,0,
00:09.0,0.001544952,-0.0064888,0.015672684,0,
00:09.0,0.001544952,-0.006494522,0.015666962,0,
00:09.0,0.001544952,-0.006477356,0.01566124,0,
00:09.0,0.001550674,-0.006471634,0.015666962,0,
00:09.0,0.00153923,-0.006494522,0.015672684,0,
00:00:09,0.001522064,-0.006551743,0.015678406,0,
00:09.0,0.001533508,-0.006534576,0.015666962,0,
00:09.0,0.001556396,-0.006465912,0.01566124,0,
00:09.0,0.001550674,-0.006471634,0.015666962,0,
00:09.0,0.001556396,-0.006465912,0.015672684,0,
00:09.0,0.001533508,-0.006483078,0.015678406,0,
00:09.0,0.00153923,-0.006471634,0.015678406,0,
00:09.0,0.001544952,-0.0064888,0.015666962,0,
00:09.0,0.001533508,-0.006511688,0.015666962,0,
00:09.0,0.001522064,-0.006505966,0.015672684,0,
00:09.0,0.001533508,-0.006500244,0.015678406,0,
00:09.0,0.001544952,-0.00646019,0.015684128,0,
00:09.0,0.001544952,-0.00646019,0.015672684,0,
00:09.1,0.001522064,-0.00651741,0.015678406,0,
00:09.1,0.001522064,-0.00651741,0.015684128,0,
00:09.1,0.00153923,-0.006500244,0.01568985,0,
00:09.1,0.001544952,-0.006477356,0.015684128,0,
00:09.1,0.001544952,-0.0064888,0.015672684,0,
00:09.1,0.00153923,-0.006494522,0.01568985,0,
00:09.1,0.00153923,-0.006511688,0.01568985,0,
00:09.1,0.00153923,-0.006511688,0.01568985,0,
00:09.1,0.001533508,-0.0064888,0.015684128,0,
00:09.1,0.00153923,-0.006465912,0.01568985,0,
00:09.1,0.001544952,-0.0064888,0.01568985,0,
00:09.1,0.001533508,-0.0064888,0.015701294,0,
00:09.1,0.00153923,-0.006477356,0.015707016,0,
00:09.1,0.001550674,-0.006471634,0.015701294,0,
00:09.1,0.001544952,-0.006483078,0.015695572,0,
00:09.1,0.001527786,-0.006477356,0.015695572,0,
00:09.1,0.001533508,-0.006477356,0.015707016,0,
00:09.1,0.001533508,-0.006505966,0.015712738,0,
00:09.1,0.00153923,-0.006511688,0.015701294,0,
00:09.1,0.001527786,-0.006505966,0.015701294,0,
00:09.1,0.001522064,-0.00651741,0.015707016,0,
00:09.1,0.001527786,-0.006505966,0.015712738,0,
00:09.1,0.001533508,-0.006477356,0.015712738,0,
00:09.1,0.001550674,-0.006471634,0.015712738,0,
00:09.1,0.001544952,-0.0064888,0.015712738,0,
00:09.2,0.00153923,-0.006505966,0.01571846,0,
00:09.2,0.00153923,-0.006500244,0.01571846,0,
00:09.2,0.001533508,-0.006477356,0.015724182,0,
00:09.2,0.001533508,-0.006477356,0.01571846,0,
00:09.2,0.00153923,-0.006494522,0.015712738,0,
00:09.2,0.001533508,-0.006500244,0.01571846,0,
00:09.2,0.001533508,-0.006494522,0.015729904,0,
00:09.2,0.001533508,-0.006500244,0.015735626,0,
00:09.2,0.001533508,-0.006494522,0.015735626,0,
00:09.2,0.001544952,-0.006471634,0.015729904,0,
00:09.2,0.001556396,-0.006465912,0.015729904,0,
00:09.2,0.001533508,-0.006511688,0.015735626,0,
00:09.2,0.001516342,-0.00651741,0.01574707,0,
00:09.2,0.001527786,-0.006500244,0.01574707,0,
00:09.2,0.001533508,-0.006505966,0.015735626,0,
00:09.2,0.001527786,-0.006534576,0.015735626,0,
00:09.2,0.001533508,-0.006534576,0.015741348,0,
00:09.2,0.00153923,-0.006494522,0.01574707,0,
00:09.2,0.001544952,-0.006465912,0.01574707,0,
00:09.2,0.001556396,-0.006471634,0.01574707,0,
00:09.2,0.001562119,-0.006471634,0.015735626,0,
00:09.2,0.001544952,-0.006477356,0.015752792,0,
00:09.2,0.001516342,-0.006528854,0.015758514,0,
00:09.2,0.001522064,-0.006534576,0.015758514,0,
00:09.2,0.00153923,-0.006523132,0.015752792,0,
00:09.3,0.001550674,-0.0064888,0.015758514,0,
00:09.3,0.001544952,-0.0064888,0.015769958,0,
00:09.3,0.00153923,-0.006494522,0.015769958,0,
00:09.3,0.00153923,-0.006505966,0.015775681,0,
00:09.3,0.001527786,-0.006528854,0.015769958,0,
00:09.3,0.001533508,-0.006511688,0.015769958,0,
00:09.3,0.00153923,-0.006500244,0.015775681,0,
00:09.3,0.001544952,-0.0064888,0.015769958,0,
00:09.3,0.001533508,-0.006511688,0.015781403,0,
00:09.3,0.00153923,-0.006528854,0.015787125,0,
00:09.3,0.00153923,-0.0064888,0.015787125,0,
00:09.3,0.001533508,-0.006471634,0.015781403,0,
00:09.3,0.001544952,-0.006500244,0.015792847,0,
00:09.3,0.001550674,-0.006523132,0.015787125,0,
00:09.3,0.00153923,-0.006534576,0.015792847,0,
00:09.3,0.00153923,-0.006523132,0.015792847,0,
00:09.3,0.00153923,-0.00651741,0.015798569,0,
00:09.3,0.001533508,-0.006500244,0.015804291,0,
00:09.3,0.00153923,-0.006500244,0.015804291,0,
00:09.3,0.00153923,-0.006505966,0.015798569,0,
00:09.3,0.001544952,-0.00651741,0.015804291,0,
00:09.3,0.001544952,-0.00651741,0.015810013,0,
00:09.3,0.001533508,-0.006500244,0.015815735,0,
00:09.3,0.001550674,-0.006483078,0.015810013,0,
00:09.3,0.001527786,-0.00651741,0.015810013,0,
00:09.4,0.001533508,-0.006528854,0.015815735,0,
00:09.4,0.00151062,-0.006540298,0.015827179,0,
00:09.4,0.001516342,-0.006568909,0.015821457,0,
00:09.4,0.001522064,-0.006568909,0.015821457,0,
00:09.4,0.00153923,-0.006494522,0.015821457,0,
00:09.4,0.001550674,-0.006471634,0.015827179,0,
00:09.4,0.001533508,-0.006505966,0.015832901,0,
00:09.4,0.001533508,-0.006523132,0.015832901,0,
00:09.4,0.001544952,-0.006505966,0.015827179,0,
00:09.4,0.001550674,-0.006500244,0.015821457,0,
00:09.4,0.001544952,-0.006511688,0.015838623,0,
00:09.4,0.001527786,-0.006534576,0.015844345,0,
00:09.4,0.001533508,-0.006523132,0.015844345,0,
00:09.4,0.001544952,-0.006511688,0.015838623,0,
00:09.4,0.00153923,-0.006511688,0.015832901,0,
00:09.4,0.001533508,-0.006523132,0.015844345,0,
00:09.4,0.00153923,-0.006528854,0.015855789,0,
00:09.4,0.001527786,-0.006557465,0.015855789,0,
00:09.4,0.001522064,-0.006557465,0.015844345,0,
00:09.4,0.00153923,-0.00651741,0.015850067,0,
00:09.4,0.001544952,-0.006511688,0.015850067,0,
00:09.4,0.00153923,-0.006500244,0.015855789,0,
00:09.4,0.001527786,-0.006523132,0.015861511,0,
00:09.4,0.001527786,-0.006523132,0.015861511,0,
00:09.4,0.001550674,-0.006500244,0.015861511,0,
00:09.5,0.001550674,-0.006523132,0.015861511,0,
00:09.5,0.001533508,-0.006557465,0.015872955,0,
00:09.5,0.001522064,-0.006546021,0.015872955,0,
00:09.5,0.001527786,-0.006546021,0.015872955,0,
00:09.5,0.001544952,-0.006523132,0.015867233,0,
00:09.5,0.001550674,-0.006511688,0.015872955,0,
00:09.5,0.001562119,-0.006500244,0.015878677,0,
00:09.5,0.001562119,-0.006500244,0.015884399,0,
00:09.5,0.001527786,-0.006557465,0.015878677,0,
00:09.5,0.001527786,-0.006568909,0.015872955,0,
00:09.5,0.001527786,-0.006574631,0.015878677,0,
00:09.5,0.00153923,-0.006551743,0.015884399,0,
00:09.5,0.001544952,-0.006528854,0.015890121,0,
00:09.5,0.001544952,-0.006500244,0.015895844,0,
00:09.5,0.00153923,-0.00651741,0.015890121,0,
00:09.5,0.001556396,-0.006505966,0.015890121,0,
00:09.5,0.001550674,-0.006528854,0.015901566,0,
00:09.5,0.001527786,-0.006557465,0.015907288,0,
00:09.5,0.00153923,-0.006540298,0.015895844,0,
00:09.5,0.001544952,-0.006528854,0.015895844,0,
00:09.5,0.001533508,-0.006557465,0.015895844,0,
00:09.5,0.001556396,-0.006540298,0.015901566,0,
00:09.5,0.001550674,-0.006540298,0.015907288,0,
00:09.5,0.001544952,-0.006540298,0.015901566,0,
00:09.5,0.001533508,-0.006551743,0.015901566,0,
00:09.6,0.001533508,-0.006568909,0.01591301,0,
00:09.6,0.00153923,-0.006563187,0.01591301,0,
00:09.6,0.001556396,-0.006546021,0.01591301,0,
00:09.6,0.001567841,-0.006540298,0.015907288,0,
00:09.6,0.00153923,-0.006557465,0.015907288,0,
00:09.6,0.001550674,-0.006523132,0.01591301,0,
00:09.6,0.001556396,-0.006528854,0.01591301,0,
00:09.6,0.00153923,-0.006551743,0.015918732,0,
00:09.6,0.00153923,-0.006540298,0.015918732,0,
00:09.6,0.001550674,-0.006540298,0.015918732,0,
00:09.6,0.001533508,-0.006568909,0.015924454,0,
00:09.6,0.00153923,-0.006546021,0.015930176,0,
00:09.6,0.001556396,-0.006523132,0.015930176,0,
00:09.6,0.001550674,-0.006523132,0.01591301,0,
00:09.6,0.001533508,-0.006546021,0.015924454,0,
00:09.6,0.001556396,-0.006534576,0.015930176,0,
00:09.6,0.001556396,-0.006540298,0.015930176,0,
00:09.6,0.001544952,-0.006557465,0.015935898,0,
00:09.6,0.001533508,-0.006580353,0.015924454,0,
00:09.6,0.00153923,-0.006563187,0.015924454,0,
00:09.6,0.001544952,-0.006540298,0.015930176,0,
00:09.6,0.001550674,-0.006546021,0.01594162,0,
00:09.6,0.001550674,-0.006557465,0.015935898,0,
00:09.6,0.00153923,-0.006586075,0.015930176,0,
00:09.6,0.001556396,-0.006546021,0.015930176,0,
00:09.7,0.001562119,-0.006528854,0.015935898,0,
00:09.7,0.00153923,-0.006546021,0.015947342,0,
00:09.7,0.001556396,-0.006534576,0.01594162,0,
00:09.7,0.001556396,-0.006528854,0.01594162,0,
00:09.7,0.001567841,-0.006505966,0.01594162,0,
00:09.7,0.001556396,-0.006546021,0.01594162,0,
00:09.7,0.001550674,-0.006551743,0.01594162,0,
00:09.7,0.001550674,-0.006540298,0.015953064,0,
00:09.7,0.001550674,-0.006546021,0.015935898,0,
00:09.7,0.001533508,-0.006580353,0.015935898,0,
00:09.7,0.00153923,-0.006580353,0.015947342,0,
00:09.7,0.001527786,-0.006568909,0.015947342,0,
00:09.7,0.001544952,-0.006534576,0.015947342,0,
00:09.7,0.001550674,-0.006546021,0.01594162,0,
00:09.7,0.001550674,-0.006546021,0.01594162,0,
00:09.7,0.001544952,-0.006563187,0.015930176,0,
00:09.7,0.001544952,-0.006580353,0.015953064,0,
00:09.7,0.001550674,-0.006574631,0.015953064,0,
00:09.7,0.001544952,-0.006557465,0.015935898,0,
00:09.7,0.001533508,-0.006534576,0.015947342,0,
00:09.7,0.001544952,-0.00651741,0.01594162,0,
00:09.7,0.001562119,-0.006534576,0.015947342,0,
00:09.7,0.001556396,-0.006534576,0.015947342,0,
00:09.7,0.001562119,-0.006528854,0.015930176,0,
00:09.7,0.001556396,-0.006540298,0.015935898,0,
00:09.8,0.001522064,-0.006568909,0.015947342,0,
00:09.8,0.001550674,-0.006546021,0.015947342,0,
00:09.8,0.001567841,-0.00651741,0.01594162,0,
00:09.8,0.001556396,-0.006557465,0.01594162,0,
00:09.8,0.001544952,-0.006580353,0.015930176,0,
00:09.8,0.001533508,-0.006591797,0.015935898,0,
00:09.8,0.001550674,-0.006540298,0.015953064,0,
00:09.8,0.001562119,-0.006511688,0.015947342,0,
00:09.8,0.001556396,-0.00651741,0.015935898,0,
00:09.8,0.001556396,-0.006546021,0.015930176,0,
00:09.8,0.001550674,-0.006546021,0.015930176,0,
00:09.8,0.001544952,-0.006557465,0.015924454,0,
00:09.8,0.00153923,-0.006568909,0.01594162,0,
00:09.8,0.001527786,-0.006574631,0.015930176,0,
00:09.8,0.001550674,-0.006551743,0.015924454,0,
00:09.8,0.001562119,-0.006523132,0.015924454,0,
00:09.8,0.001573563,-0.006500244,0.015930176,0,
00:09.8,0.001556396,-0.006546021,0.015935898,0,
00:09.8,0.001544952,-0.006557465,0.015918732,0,
00:09.8,0.001544952,-0.006528854,0.015930176,0,
00:09.8,0.001550674,-0.006528854,0.015924454,0,
00:09.8,0.001550674,-0.006534576,0.015918732,0,
00:09.8,0.001556396,-0.006528854,0.015918732,0,
00:09.8,0.001544952,-0.006557465,0.015907288,0,
00:09.8,0.001544952,-0.006568909,0.015895844,0,
00:09.9,0.001544952,-0.006580353,0.01591301,0,
00:09.9,0.001550674,-0.006551743,0.015924454,0,
00:09.9,0.001562119,-0.006511688,0.015907288,0,
00:09.9,0.001573563,-0.006500244,0.015901566,0,
00:09.9,0.001550674,-0.006546021,0.015901566,0,
00:09.9,0.001550674,-0.006551743,0.015895844,0,
00:09.9,0.001544952,-0.006551743,0.015907288,0,
00:09.9,0.001527786,-0.006551743,0.015890121,0,
00:09.9,0.001550674,-0.006528854,0.015895844,0,
00:09.9,0.001550674,-0.006523132,0.015890121,0,
00:09.9,0.001556396,-0.006534576,0.015895844,0,
00:09.9,0.001556396,-0.00651741,0.015890121,0,
00:09.9,0.001550674,-0.006523132,0.015884399,0,
00:09.9,0.00153923,-0.006534576,0.015878677,0,
00:09.9,0.00153923,-0.006528854,0.015878677,0,
00:09.9,0.001544952,-0.006534576,0.015872955,0,
00:09.9,0.001562119,-0.006511688,0.015878677,0,
00:09.9,0.001544952,-0.00651741,0.015861511,0,
00:09.9,0.001544952,-0.006511688,0.015850067,0,
00:09.9,0.00153923,-0.006546021,0.015855789,0,
00:09.9,0.001544952,-0.006546021,0.015855789,0,
00:09.9,0.00153923,-0.006528854,0.015850067,0,
00:09.9,0.001550674,-0.006511688,0.015861511,0,
00:09.9,0.001562119,-0.0064888,0.015844345,0,
00:09.9,0.001556396,-0.006511688,0.015832901,0,
00:10.0,0.001550674,-0.006523132,0.015844345,0,
00:10.0,0.001544952,-0.006557465,0.015844345,0,
00:10.0,0.001544952,-0.006557465,0.015844345,0,
00:10.0,0.001550674,-0.006523132,0.015821457,0,
00:10.0,0.001567841,-0.006477356,0.015815735,0,
00:10.0,0.001567841,-0.006494522,0.015815735,0,
00:10.0,0.001556396,-0.006523132,0.015815735,0,
00:10.0,0.001567841,-0.006505966,0.015827179,0,
00:10.0,0.001544952,-0.006534576,0.015804291,0,
00:10.0,0.001544952,-0.006528854,0.015792847,0,
00:10.0,0.001567841,-0.0064888,0.015810013,0,
00:10.0,0.001567841,-0.006500244,0.015798569,0,
00:00:10,0.001567841,-0.006500244,0.015798569,0,
00:10.0,0.001562119,-0.00651741,0.015787125,0,
00:10.0,0.001556396,-0.006523132,0.015781403,0,
00:10.0,0.001556396,-0.006511688,0.015775681,0,
00:10.0,0.001550674,-0.006534576,0.015781403,0,
00:10.0,0.001556396,-0.006523132,0.015798569,0,
00:10.0,0.001567841,-0.006505966,0.015764236,0,
00:10.0,0.001562119,-0.006500244,0.015752792,0,
00:10.0,0.001567841,-0.006494522,0.015764236,0,
00:10.0,0.001579285,-0.006494522,0.015769958,0,
00:10.0,0.001562119,-0.00651741,0.01574707,0,
00:10.0,0.001550674,-0.006523132,0.015741348,0,
00:10.0,0.001567841,-0.006494522,0.015735626,0,
00:10.1,0.001573563,-0.006523132,0.015741348,0,
00:10.1,0.001550674,-0.006546021,0.015735626,0,
00:10.1,0.001550674,-0.006534576,0.015735626,0,
00:10.1,0.001579285,-0.006477356,0.015724182,0,
00:10.1,0.001590729,-0.006454468,0.015724182,0,
00:10.1,0.001567841,-0.006500244,0.01571846,0,
