Elapsed_Time,EMG1,EMG2,EMG3,BioRadio Event,Unnamed: 5
00:00:00,0.000555038,-0.005865097,0.009813309,0,
00:00.0,0.00053215,-0.005870819,0.009824753,0,
00:00.0,0.000543594,-0.005859375,0.009819031,0,
00:00.0,0.000577927,-0.005847931,0.009819031,0,
00:00.0,0.000572205,-0.005853653,0.009813309,0,
00:00.0,0.000572205,-0.005859375,0.009819031,0,
00:00.0,0.000555038,-0.005865097,0.009819031,0,
00:00.0,0.000555038,-0.005865097,0.009813309,0,
00:00.0,0.000543594,-0.005870819,0.009824753,0,
00:00.0,0.000555038,-0.005870819,0.009819031,0,
00:00.0,0.00056076,-0.005882263,0.009830475,0,
00:00.0,0.000543594,-0.005887985,0.009830475,0,
00:00.0,0.000543594,-0.005876541,0.009824753,0,
00:00.1,0.000543594,-0.005870819,0.009830475,0,
00:00.1,0.000543594,-0.005876541,0.009824753,0,
00:00.1,0.00056076,-0.005876541,0.009830475,0,
00:00.1,0.000543594,-0.005882263,0.009830475,0,
00:00.1,0.000537872,-0.005893707,0.009836197,0,
00:00.1,0.000549316,-0.005887985,0.009836197,0,
00:00.1,0.000566483,-0.005876541,0.009824753,0,
00:00.1,0.00056076,-0.005882263,0.009830475,0,
00:00.1,0.000549316,-0.005893707,0.009830475,0,
00:00.1,0.000537872,-0.005887985,0.009830475,0,
00:00.1,0.000555038,-0.005882263,0.009830475,0,
00:00.1,0.000555038,-0.005893707,0.009836197,0,
00:00.1,0.000549316,-0.005905151,0.009841919,0,
00:00.1,0.000543594,-0.005905151,0.009824753,0,
00:00.1,0.000537872,-0.005899429,0.009847641,0,
00:00.1,0.000543594,-0.005899429,0.009853363,0,
00:00.1,0.000549316,-0.005905151,0.009841919,0,
00:00.1,0.000543594,-0.005910873,0.009847641,0,
00:00.1,0.000543594,-0.005916595,0.009853363,0,
00:00.1,0.000549316,-0.005922318,0.009847641,0,
00:00.1,0.000543594,-0.005922318,0.009841919,0,
00:00.1,0.00053215,-0.005939484,0.009847641,0,
00:00.1,0.00053215,-0.005922318,0.009847641,0,
00:00.1,0.000543594,-0.005905151,0.009864807,0,
00:00.1,0.000543594,-0.005910873,0.009859085,0,
00:00.2,0.00053215,-0.005922318,0.009853363,0,
00:00.2,0.000537872,-0.005922318,0.009859085,0,
00:00.2,0.000526428,-0.00592804,0.009859085,0,
00:00.2,0.000537872,-0.005939484,0.009859085,0,
00:00.2,0.00053215,-0.005945206,0.009859085,0,
00:00.2,0.000537872,-0.005933762,0.009859085,0,
00:00.2,0.000543594,-0.005933762,0.009859085,0,
00:00.2,0.000537872,-0.005939484,0.009864807,0,
00:00.2,0.000520706,-0.005950928,0.009870529,0,
00:00.2,0.00053215,-0.005950928,0.009864807,0,
00:00.2,0.00053215,-0.005950928,0.009881973,0,
00:00.2,0.000537872,-0.005945206,0.009876251,0,
00:00.2,0.000537872,-0.005950928,0.009881973,0,
00:00.2,0.000537872,-0.005962372,0.009881973,0,
00:00.2,0.000520706,-0.005973816,0.009893417,0,
00:00.2,0.00050354,-0.005973816,0.009887695,0,
00:00.2,0.000520706,-0.005968094,0.009893417,0,
00:00.2,0.000520706,-0.00595665,0.009893417,0,
00:00.2,0.000537872,-0.00595665,0.009893417,0,
00:00.2,0.000543594,-0.005968094,0.009893417,0,
00:00.2,0.00053215,-0.005973816,0.009887695,0,
00:00.2,0.00053215,-0.005962372,0.009893417,0,
00:00.2,0.000520706,-0.005973816,0.009904861,0,
00:00.2,0.000526428,-0.005979538,0.009899139,0,
00:00.2,0.000526428,-0.00598526,0.009887695,0,
00:00.3,0.00053215,-0.005979538,0.009904861,0,
00:00.3,0.000526428,-0.005979538,0.009916306,0,
00:00.3,0.000520706,-0.00598526,0.009910583,0,
00:00.3,0.000526428,-0.005996704,0.009922028,0,
00:00.3,0.000520706,-0.005996704,0.009916306,0,
00:00.3,0.000514984,-0.005996704,0.009916306,0,
00:00.3,0.000514984,-0.005996704,0.009910583,0,
00:00.3,0.000514984,-0.005996704,0.009922028,0,
00:00.3,0.000520706,-0.006002426,0.00992775,0,
00:00.3,0.00050354,-0.006008148,0.009922028,0,
00:00.3,0.000526428,-0.006019592,0.009933472,0,
00:00.3,0.000514984,-0.006025314,0.009933472,0,
00:00.3,0.000520706,-0.00601387,0.009939194,0,
00:00.3,0.000514984,-0.006002426,0.009933472,0,
00:00.3,0.000520706,-0.006025314,0.009939194,0,
00:00.3,0.000509262,-0.006031036,0.009944916,0,
00:00.3,0.000509262,-0.006019592,0.009939194,0,
00:00.3,0.000526428,-0.006031036,0.009944916,0,
00:00.3,0.000514984,-0.006036758,0.00995636,0,
00:00.3,0.000509262,-0.006036758,0.009962082,0,
00:00.3,0.000509262,-0.006031036,0.00995636,0,
00:00.3,0.000520706,-0.00604248,0.00995636,0,
00:00.3,0.000520706,-0.00604248,0.00995636,0,
00:00.3,0.000514984,-0.006048203,0.009967804,0,
00:00.3,0.00050354,-0.006059647,0.009973526,0,
00:00.4,0.000509262,-0.006059647,0.009973526,0,
00:00.4,0.00050354,-0.006065369,0.009973526,0,
00:00.4,0.00050354,-0.006065369,0.009973526,0,
00:00.4,0.00050354,-0.006059647,0.009979248,0,
00:00.4,0.00050354,-0.006059647,0.00998497,0,
00:00.4,0.000497818,-0.006071091,0.00998497,0,
00:00.4,0.000514984,-0.006071091,0.009979248,0,
00:00.4,0.000509262,-0.006076813,0.00998497,0,
00:00.4,0.000509262,-0.006082535,0.009996414,0,
00:00.4,0.00050354,-0.006076813,0.009996414,0,
00:00.4,0.00050354,-0.006076813,0.01001358,0,
00:00.4,0.000509262,-0.006076813,0.010002136,0,
00:00.4,0.000492096,-0.006093979,0.010002136,0,
00:00.4,0.000497818,-0.006099701,0.01001358,0,
00:00.4,0.000497818,-0.006093979,0.01001358,0,
00:00.4,0.00050354,-0.006093979,0.010025024,0,
00:00.4,0.00050354,-0.006099701,0.010019302,0,
00:00.4,0.000497818,-0.006105423,0.010025024,0,
00:00.4,0.000492096,-0.006111145,0.010025024,0,
00:00.4,0.000469208,-0.006116867,0.010025024,0,
00:00.4,0.000497818,-0.006116867,0.010036469,0,
00:00.4,0.000514984,-0.006111145,0.010030746,0,
00:00.4,0.000497818,-0.006116867,0.010030746,0,
00:00.4,0.00050354,-0.006122589,0.010042191,0,
00:00.4,0.000497818,-0.006122589,0.010047913,0,
00:00.5,0.000497818,-0.006128311,0.010036469,0,
00:00.5,0.00050354,-0.006145477,0.010053635,0,
00:00.5,0.000497818,-0.006139755,0.010059357,0,
00:00.5,0.000486374,-0.006134033,0.010065079,0,
00:00.5,0.000486374,-0.006134033,0.010065079,0,
00:00.5,0.000492096,-0.006139755,0.010059357,0,
00:00.5,0.000497818,-0.006151199,0.010059357,0,
00:00.5,0.000497818,-0.006156921,0.010065079,0,
00:00.5,0.000492096,-0.006156921,0.010070801,0,
00:00.5,0.000497818,-0.006151199,0.010076523,0,
00:00.5,0.000486374,-0.006145477,0.010070801,0,
00:00.5,0.000497818,-0.006151199,0.010065079,0,
00:00.5,0.000492096,-0.006162643,0.010087967,0,
00:00.5,0.000492096,-0.006168365,0.010099411,0,
00:00.5,0.000480652,-0.006174088,0.010099411,0,
00:00.5,0.000486374,-0.006174088,0.010099411,0,
00:00.5,0.000480652,-0.006185532,0.010093689,0,
00:00.5,0.00047493,-0.006185532,0.010093689,0,
00:00.5,0.000497818,-0.00617981,0.010087967,0,
00:00.5,0.000492096,-0.006185532,0.010122299,0,
00:00.5,0.000486374,-0.006185532,0.010116577,0,
00:00.5,0.000486374,-0.006191254,0.010116577,0,
00:00.5,0.000492096,-0.006196976,0.010116577,0,
00:00.5,0.000492096,-0.006196976,0.010128021,0,
00:00.5,0.000486374,-0.006202698,0.010128021,0,
00:00.6,0.000486374,-0.006191254,0.010128021,0,
00:00.6,0.000486374,-0.006202698,0.010128021,0,
00:00.6,0.000492096,-0.006214142,0.010133743,0,
00:00.6,0.000492096,-0.006214142,0.010139465,0,
00:00.6,0.000492096,-0.00620842,0.010139465,0,
00:00.6,0.000486374,-0.006214142,0.010139465,0,
00:00.6,0.000497818,-0.00620842,0.010156631,0,
00:00.6,0.000480652,-0.006225586,0.010145187,0,
00:00.6,0.000492096,-0.006231308,0.010145187,0,
00:00.6,0.000486374,-0.006225586,0.010168076,0,
00:00.6,0.000480652,-0.006225586,0.010173798,0,
00:00.6,0.000492096,-0.00623703,0.010162354,0,
00:00.6,0.000486374,-0.00623703,0.010162354,0,
00:00.6,0.000486374,-0.00623703,0.010150909,0,
00:00.6,0.000492096,-0.00623703,0.01017952,0,
00:00.6,0.000492096,-0.00623703,0.010185242,0,
00:00.6,0.000486374,-0.006242752,0.010173798,0,
00:00.6,0.000480652,-0.006248474,0.010185242,0,
00:00.6,0.000486374,-0.006248474,0.010185242,0,
00:00.6,0.000480652,-0.006259918,0.010190964,0,
00:00.6,0.00047493,-0.006277084,0.010190964,0,
00:00.6,0.00047493,-0.006271362,0.010190964,0,
00:00.6,0.000480652,-0.006259918,0.010190964,0,
00:00.6,0.000480652,-0.006259918,0.010202408,0,
00:00.6,0.000480652,-0.006259918,0.010202408,0,
00:00.7,0.000486374,-0.00626564,0.010202408,0,
00:00.7,0.000486374,-0.006277084,0.010202408,0,
00:00.7,0.000480652,-0.006288528,0.01020813,0,
00:00.7,0.000486374,-0.006282806,0.010196686,0,
00:00.7,0.000480652,-0.006271362,0.010219574,0,
00:00.7,0.000486374,-0.006271362,0.010219574,0,
00:00.7,0.000486374,-0.006282806,0.010219574,0,
00:00.7,0.000480652,-0.006282806,0.010225296,0,
00:00.7,0.000486374,-0.006288528,0.010231018,0,
00:00.7,0.000492096,-0.006282806,0.010225296,0,
00:00.7,0.00047493,-0.006282806,0.010219574,0,
00:00.7,0.000492096,-0.00629425,0.010231018,0,
00:00.7,0.000480652,-0.006299973,0.010231018,0,
00:00.7,0.000486374,-0.00629425,0.010231018,0,
00:00.7,0.000486374,-0.006288528,0.010242462,0,
00:00.7,0.000492096,-0.00629425,0.010242462,0,
00:00.7,0.000486374,-0.006305695,0.010248184,0,
00:00.7,0.000480652,-0.006317139,0.010248184,0,
00:00.7,0.000469208,-0.006317139,0.010248184,0,
00:00.7,0.000480652,-0.006305695,0.010253906,0,
00:00.7,0.000486374,-0.006299973,0.010253906,0,
00:00.7,0.000492096,-0.006305695,0.010253906,0,
00:00.7,0.000492096,-0.006305695,0.010259628,0,
00:00.7,0.000492096,-0.006299973,0.010259628,0,
00:00.7,0.000480652,-0.006311417,0.01026535,0,
00:00.8,0.000457764,-0.006322861,0.010253906,0,
00:00.8,0.000480652,-0.006328583,0.010271072,0,
00:00.8,0.000492096,-0.006334305,0.01026535,0,
00:00.8,0.000486374,-0.006328583,0.010276794,0,
00:00.8,0.000480652,-0.006322861,0.010282516,0,
00:00.8,0.000480652,-0.006322861,0.010271072,0,
00:00.8,0.000492096,-0.006334305,0.010271072,0,
00:00.8,0.000486374,-0.006334305,0.010276794,0,
00:00.8,0.000486374,-0.006340027,0.010282516,0,
00:00.8,0.000480652,-0.006334305,0.010282516,0,
00:00.8,0.000492096,-0.006345749,0.010282516,0,
00:00.8,0.000497818,-0.006351471,0.010282516,0,
00:00.8,0.00047493,-0.006345749,0.010282516,0,
00:00.8,0.000492096,-0.006340027,0.010299683,0,
00:00.8,0.000492096,-0.006340027,0.010293961,0,
00:00.8,0.000497818,-0.006357193,0.010288239,0,
00:00.8,0.000480652,-0.006362915,0.010299683,0,
00:00.8,0.000497818,-0.006351471,0.010288239,0,
00:00.8,0.000480652,-0.006351471,0.010305405,0,
00:00.8,0.000497818,-0.006351471,0.010311127,0,
00:00.8,0.000486374,-0.006357193,0.010305405,0,
00:00.8,0.000486374,-0.006368637,0.010305405,0,
00:00.8,0.000480652,-0.006368637,0.010305405,0,
00:00.8,0.000486374,-0.006357193,0.010311127,0,
00:00.8,0.000497818,-0.006357193,0.010311127,0,
00:00.9,0.000509262,-0.006362915,0.010316849,0,
00:00.9,0.000497818,-0.006374359,0.010311127,0,
00:00.9,0.000497818,-0.006374359,0.010311127,0,
00:00.9,0.000480652,-0.006374359,0.010316849,0,
00:00.9,0.000497818,-0.006368637,0.010322571,0,
00:00.9,0.000509262,-0.006374359,0.010316849,0,
00:00.9,0.000497818,-0.006380081,0.010316849,0,
00:00.9,0.000480652,-0.006380081,0.010311127,0,
00:00.9,0.000492096,-0.006374359,0.010316849,0,
00:00.9,0.00050354,-0.006368637,0.010305405,0,
00:00.9,0.000509262,-0.006374359,0.010311127,0,
00:00.9,0.00050354,-0.006385803,0.010334015,0,
00:00.9,0.00050354,-0.006391525,0.010328293,0,
00:00.9,0.000497818,-0.006391525,0.010328293,0,
00:00.9,0.00050354,-0.006380081,0.010328293,0,
00:00.9,0.000509262,-0.006385803,0.010316849,0,
00:00.9,0.000497818,-0.006402969,0.010311127,0,
00:00.9,0.00050354,-0.006391525,0.010305405,0,
00:00.9,0.000509262,-0.006391525,0.010334015,0,
00:00.9,0.000509262,-0.006385803,0.010334015,0,
00:00.9,0.000509262,-0.006385803,0.010322571,0,
00:00.9,0.000509262,-0.006385803,0.010322571,0,
00:00.9,0.000509262,-0.006391525,0.010328293,0,
00:00.9,0.00050354,-0.006391525,0.010328293,0,
00:00.9,0.00050354,-0.006391525,0.010328293,0,
00:01.0,0.000497818,-0.006391525,0.010316849,0,
00:01.0,0.000514984,-0.006408691,0.010322571,0,
00:01.0,0.000509262,-0.006414413,0.010316849,0,
00:01.0,0.000509262,-0.006414413,0.010305405,0,
00:01.0,0.000509262,-0.006402969,0.010334015,0,
00:01.0,0.000514984,-0.006397247,0.010339737,0,
00:01.0,0.000509262,-0.006402969,0.010322571,0,
00:01.0,0.00050354,-0.006408691,0.010322571,0,
00:01.0,0.00050354,-0.006408691,0.010328293,0,
00:01.0,0.00050354,-0.006408691,0.010328293,0,
00:01.0,0.000497818,-0.006420135,0.010316849,0,
00:01.0,0.000509262,-0.006425858,0.010316849,0,
00:00:01,0.00050354,-0.006420135,0.010316849,0,
00:01.0,0.000520706,-0.006408691,0.010316849,0,
00:01.0,0.00050354,-0.006414413,0.010316849,0,
00:01.0,0.000514984,-0.006408691,0.010311127,0,
00:01.0,0.000520706,-0.006414413,0.010316849,0,
00:01.0,0.000520706,-0.006414413,0.010322571,0,
00:01.0,0.000526428,-0.006414413,0.010322571,0,
00:01.0,0.000520706,-0.006414413,0.010322571,0,
00:01.0,0.000526428,-0.006414413,0.010316849,0,
00:01.0,0.000514984,-0.006425858,0.010316849,0,
00:01.0,0.000509262,-0.006425858,0.010311127,0,
00:01.0,0.00050354,-0.006425858,0.010316849,0,
00:01.0,0.000492096,-0.00643158,0.010305405,0,
00:01.1,0.000526428,-0.00643158,0.010293961,0,
00:01.1,0.000520706,-0.006420135,0.010311127,0,
00:01.1,0.00053215,-0.006414413,0.010316849,0,
00:01.1,0.000520706,-0.006420135,0.010316849,0,
00:01.1,0.000520706,-0.00643158,0.010299683,0,
00:01.1,0.000514984,-0.00643158,0.010305405,0,
00:01.1,0.000509262,-0.00643158,0.010316849,0,
00:01.1,0.000526428,-0.006425858,0.010316849,0,
00:01.1,0.000526428,-0.006425858,0.010311127,0,
00:01.1,0.000520706,-0.006437302,0.010311127,0,
00:01.1,0.000514984,-0.006437302,0.010305405,0,
00:01.1,0.000520706,-0.006425858,0.010299683,0,
00:01.1,0.000537872,-0.00643158,0.010299683,0,
00:01.1,0.000537872,-0.006437302,0.010305405,0,
00:01.1,0.000537872,-0.00643158,0.010299683,0,
00:01.1,0.000526428,-0.006437302,0.010299683,0,
00:01.1,0.000520706,-0.006437302,0.010288239,0,
00:01.1,0.000520706,-0.00643158,0.010305405,0,
00:01.1,0.000520706,-0.00643158,0.010299683,0,
00:01.1,0.000520706,-0.00643158,0.010299683,0,
00:01.1,0.000537872,-0.006437302,0.010293961,0,
00:01.1,0.00053215,-0.006443024,0.010293961,0,
00:01.1,0.000520706,-0.006437302,0.010299683,0,
00:01.1,0.000526428,-0.006425858,0.010293961,0,
00:01.1,0.000520706,-0.006425858,0.010299683,0,
00:01.2,0.00053215,-0.00643158,0.010305405,0,
00:01.2,0.000526428,-0.006454468,0.010293961,0,
00:01.2,0.00053215,-0.006448746,0.010282516,0,
00:01.2,0.000526428,-0.006448746,0.010288239,0,
00:01.2,0.000520706,-0.006454468,0.010299683,0,
00:01.2,0.000520706,-0.006437302,0.010288239,0,
00:01.2,0.000549316,-0.00643158,0.010282516,0,
00:01.2,0.000537872,-0.00643158,0.010288239,0,
00:01.2,0.000526428,-0.006443024,0.010288239,0,
00:01.2,0.000520706,-0.006437302,0.010288239,0,
00:01.2,0.00053215,-0.00643158,0.010282516,0,
00:01.2,0.00053215,-0.006443024,0.010276794,0,
00:01.2,0.000537872,-0.006448746,0.010276794,0,
00:01.2,0.000526428,-0.006454468,0.010282516,0,
00:01.2,0.000526428,-0.006454468,0.010276794,0,
00:01.2,0.000526428,-0.006448746,0.010282516,0,
00:01.2,0.00053215,-0.006448746,0.010276794,0,
00:01.2,0.00053215,-0.006437302,0.010271072,0,
00:01.2,0.00053215,-0.00643158,0.010276794,0,
00:01.2,0.00053215,-0.006448746,0.010276794,0,
00:01.2,0.00053215,-0.006443024,0.010271072,0,
00:01.2,0.00053215,-0.006437302,0.010259628,0,
00:01.2,0.000537872,-0.006443024,0.010259628,0,
00:01.2,0.000537872,-0.006443024,0.01026535,0,
00:01.2,0.000549316,-0.006443024,0.010276794,0,
00:01.3,0.000537872,-0.006454468,0.01026535,0,
00:01.3,0.00053215,-0.006454468,0.010259628,0,
00:01.3,0.00053215,-0.006448746,0.01026535,0,
00:01.3,0.000526428,-0.006448746,0.01026535,0,
00:01.3,0.000514984,-0.006454468,0.010253906,0,
00:01.3,0.000537872,-0.006448746,0.010259628,0,
00:01.3,0.000543594,-0.006443024,0.01026535,0,
00:01.3,0.00053215,-0.006437302,0.010259628,0,
00:01.3,0.000543594,-0.006437302,0.010253906,0,
00:01.3,0.000543594,-0.006437302,0.010253906,0,
00:01.3,0.000543594,-0.006448746,0.010248184,0,
00:01.3,0.000537872,-0.00646019,0.010242462,0,
00:01.3,0.00053215,-0.006465912,0.010248184,0,
00:01.3,0.000543594,-0.006443024,0.010248184,0,
00:01.3,0.000543594,-0.006437302,0.010248184,0,
00:01.3,0.000543594,-0.006443024,0.01023674,0,
00:01.3,0.000543594,-0.006437302,0.01023674,0,
00:01.3,0.000543594,-0.006443024,0.010242462,0,
00:01.3,0.000537872,-0.006454468,0.010248184,0,
00:01.3,0.000537872,-0.006454468,0.010242462,0,
00:01.3,0.000549316,-0.006454468,0.01023674,0,
00:01.3,0.000543594,-0.00646019,0.01023674,0,
00:01.3,0.000537872,-0.006448746,0.01023674,0,
00:01.3,0.000549316,-0.006437302,0.01023674,0,
00:01.3,0.000549316,-0.006437302,0.010231018,0,
00:01.4,0.000549316,-0.006443024,0.010225296,0,
00:01.4,0.000543594,-0.006448746,0.010225296,0,
00:01.4,0.000549316,-0.006448746,0.010225296,0,
00:01.4,0.000543594,-0.006454468,0.010231018,0,
00:01.4,0.000537872,-0.006448746,0.010225296,0,
00:01.4,0.000549316,-0.006437302,0.010231018,0,
00:01.4,0.000555038,-0.006437302,0.01023674,0,
00:01.4,0.000543594,-0.006443024,0.010225296,0,
00:01.4,0.000549316,-0.006443024,0.010231018,0,
00:01.4,0.000537872,-0.006448746,0.010231018,0,
00:01.4,0.000537872,-0.006448746,0.010219574,0,
00:01.4,0.000549316,-0.006454468,0.010213852,0,
00:01.4,0.000555038,-0.00646019,0.01020813,0,
00:01.4,0.000543594,-0.006465912,0.010231018,0,
00:01.4,0.000543594,-0.00646019,0.010225296,0,
00:01.4,0.000555038,-0.006437302,0.010213852,0,
00:01.4,0.000549316,-0.00643158,0.010219574,0,
00:01.4,0.000555038,-0.00643158,0.010225296,0,
00:01.4,0.00056076,-0.006437302,0.010219574,0,
00:01.4,0.000549316,-0.00643158,0.010213852,0,
00:01.4,0.000555038,-0.006437302,0.010213852,0,
00:01.4,0.000555038,-0.006437302,0.010213852,0,
00:01.4,0.000555038,-0.006443024,0.010219574,0,
00:01.4,0.000555038,-0.006448746,0.010219574,0,
00:01.4,0.000555038,-0.006443024,0.010213852,0,
00:01.5,0.000549316,-0.006437302,0.010202408,0,
00:01.5,0.000566483,-0.006437302,0.010196686,0,
00:01.5,0.00056076,-0.006443024,0.010213852,0,
00:01.5,0.000572205,-0.00643158,0.010219574,0,
00:01.5,0.000566483,-0.00643158,0.010219574,0,
00:01.5,0.00056076,-0.006443024,0.01020813,0,
00:01.5,0.000555038,-0.006443024,0.01020813,0,
00:01.5,0.000555038,-0.006443024,0.010213852,0,
00:01.5,0.00056076,-0.006443024,0.01020813,0,
00:01.5,0.00056076,-0.006437302,0.01020813,0,
00:01.5,0.00056076,-0.006437302,0.01020813,0,
00:01.5,0.000566483,-0.00643158,0.010190964,0,
00:01.5,0.00056076,-0.006437302,0.010190964,0,
00:01.5,0.000549316,-0.006443024,0.01020813,0,
00:01.5,0.00056076,-0.006448746,0.010196686,0,
00:01.5,0.00056076,-0.006443024,0.010196686,0,
00:01.5,0.000549316,-0.006443024,0.010202408,0,
00:01.5,0.000572205,-0.006443024,0.01020813,0,
00:01.5,0.000572205,-0.006443024,0.010202408,0,
00:01.5,0.000566483,-0.006443024,0.010202408,0,
00:01.5,0.000566483,-0.006443024,0.010202408,0,
00:01.5,0.000572205,-0.006437302,0.010196686,0,
00:01.5,0.000555038,-0.006443024,0.010190964,0,
00:01.5,0.00056076,-0.006437302,0.010190964,0,
00:01.5,0.000577927,-0.00643158,0.010196686,0,
00:01.6,0.000583649,-0.00643158,0.010196686,0,
00:01.6,0.000572205,-0.006443024,0.010185242,0,
00:01.6,0.00056076,-0.006454468,0.010190964,0,
00:01.6,0.000555038,-0.006454468,0.010190964,0,
00:01.6,0.000549316,-0.006448746,0.010196686,0,
00:01.6,0.000549316,-0.006443024,0.010185242,0,
00:01.6,0.000572205,-0.006437302,0.010185242,0,
00:01.6,0.00056076,-0.006437302,0.010185242,0,
00:01.6,0.000555038,-0.006448746,0.010190964,0,
00:01.6,0.000572205,-0.006448746,0.010190964,0,
00:01.6,0.000572205,-0.006443024,0.01017952,0,
00:01.6,0.000572205,-0.006443024,0.01017952,0,
00:01.6,0.00056076,-0.006454468,0.010185242,0,
00:01.6,0.000566483,-0.006448746,0.010185242,0,
00:01.6,0.000555038,-0.006443024,0.010185242,0,
00:01.6,0.000566483,-0.006437302,0.010173798,0,
00:01.6,0.00056076,-0.006448746,0.01017952,0,
00:01.6,0.000566483,-0.006448746,0.010185242,0,
00:01.6,0.000572205,-0.006437302,0.010185242,0,
00:01.6,0.000577927,-0.006425858,0.010185242,0,
00:01.6,0.000577927,-0.006425858,0.01017952,0,
00:01.6,0.000555038,-0.00643158,0.010173798,0,
00:01.6,0.000555038,-0.006437302,0.01017952,0,
00:01.6,0.000572205,-0.006443024,0.01017952,0,
00:01.6,0.00056076,-0.006443024,0.01017952,0,
00:01.7,0.00056076,-0.006443024,0.010162354,0,
00:01.7,0.000577927,-0.00643158,0.010168076,0,
00:01.7,0.000566483,-0.00643158,0.01017952,0,
00:01.7,0.000555038,-0.006425858,0.01017952,0,
00:01.7,0.00056076,-0.00643158,0.01017952,0,
00:01.7,0.000583649,-0.006425858,0.010173798,0,
00:01.7,0.000577927,-0.00643158,0.010168076,0,
00:01.7,0.000566483,-0.00643158,0.010162354,0,
00:01.7,0.000572205,-0.006437302,0.010168076,0,
00:01.7,0.000566483,-0.006437302,0.010173798,0,
00:01.7,0.000566483,-0.00643158,0.010168076,0,
00:01.7,0.000577927,-0.006425858,0.010168076,0,
00:01.7,0.000577927,-0.006420135,0.010173798,0,
00:01.7,0.000566483,-0.00643158,0.010173798,0,
00:01.7,0.000555038,-0.00643158,0.010168076,0,
00:01.7,0.000577927,-0.006425858,0.010162354,0,
00:01.7,0.000577927,-0.006425858,0.010162354,0,
00:01.7,0.000566483,-0.00643158,0.010168076,0,
00:01.7,0.000572205,-0.006425858,0.010168076,0,
00:01.7,0.000577927,-0.006420135,0.010168076,0,
00:01.7,0.000572205,-0.006420135,0.010162354,0,
00:01.7,0.000566483,-0.006425858,0.010156631,0,
00:01.7,0.000572205,-0.006425858,0.010162354,0,
00:01.7,0.000566483,-0.00643158,0.010162354,0,
00:01.7,0.000572205,-0.006425858,0.010162354,0,
00:01.8,0.000577927,-0.006414413,0.010162354,0,
00:01.8,0.000572205,-0.006420135,0.010145187,0,
00:01.8,0.000577927,-0.006425858,0.010156631,0,
00:01.8,0.000577927,-0.006420135,0.010162354,0,
00:01.8,0.000572205,-0.006414413,0.010162354,0,
00:01.8,0.000577927,-0.006414413,0.010156631,0,
00:01.8,0.000583649,-0.006402969,0.010150909,0,
00:01.8,0.000595093,-0.006414413,0.010156631,0,
00:01.8,0.000589371,-0.006425858,0.010168076,0,
00:01.8,0.000577927,-0.006425858,0.010162354,0,
00:01.8,0.000572205,-0.00643158,0.010150909,0,
00:01.8,0.000572205,-0.00643158,0.010156631,0,
00:01.8,0.000577927,-0.006420135,0.010156631,0,
00:01.8,0.000577927,-0.006402969,0.010156631,0,
00:01.8,0.000566483,-0.006408691,0.010156631,0,
00:01.8,0.000583649,-0.006420135,0.010139465,0,
00:01.8,0.000589371,-0.006420135,0.010145187,0,
00:01.8,0.000583649,-0.006408691,0.010150909,0,
00:01.8,0.000583649,-0.006408691,0.010156631,0,
00:01.8,0.000577927,-0.006414413,0.010150909,0,
00:01.8,0.000577927,-0.006414413,0.010150909,0,
00:01.8,0.000572205,-0.006414413,0.010150909,0,
00:01.8,0.000572205,-0.006420135,0.010150909,0,
00:01.8,0.000577927,-0.006414413,0.010150909,0,
00:01.8,0.000577927,-0.006420135,0.010145187,0,
00:01.9,0.000572205,-0.006408691,0.010150909,0,
00:01.9,0.000577927,-0.006402969,0.010150909,0,
00:01.9,0.000589371,-0.006391525,0.010150909,0,
00:01.9,0.000583649,-0.006385803,0.010145187,0,
00:01.9,0.000606537,-0.006397247,0.010139465,0,
00:01.9,0.000600815,-0.006397247,0.010145187,0,
00:01.9,0.000577927,-0.006408691,0.010139465,0,
00:01.9,0.000577927,-0.006414413,0.010145187,0,
00:01.9,0.000589371,-0.006414413,0.010145187,0,
00:01.9,0.000577927,-0.006402969,0.010150909,0,
00:01.9,0.000589371,-0.006397247,0.010145187,0,
00:01.9,0.000589371,-0.006397247,0.010145187,0,
00:01.9,0.000583649,-0.006402969,0.010145187,0,
00:01.9,0.000589371,-0.006397247,0.010139465,0,
00:01.9,0.000589371,-0.006397247,0.010139465,0,
00:01.9,0.000583649,-0.006408691,0.010150909,0,
00:01.9,0.000589371,-0.006408691,0.010145187,0,
00:01.9,0.000589371,-0.006414413,0.010145187,0,
00:01.9,0.000589371,-0.006414413,0.010150909,0,
00:01.9,0.000583649,-0.006397247,0.010145187,0,
00:01.9,0.000589371,-0.006391525,0.010145187,0,
00:01.9,0.000595093,-0.006397247,0.010128021,0,
00:01.9,0.000589371,-0.006397247,0.010133743,0,
00:01.9,0.00056076,-0.006402969,0.010150909,0,
00:01.9,0.000583649,-0.006397247,0.010156631,0,
00:02.0,0.000612259,-0.006391525,0.010150909,0,
00:02.0,0.000606537,-0.006391525,0.010145187,0,
00:02.0,0.000600815,-0.006385803,0.010145187,0,
00:02.0,0.000595093,-0.006380081,0.010139465,0,
00:02.0,0.000589371,-0.006380081,0.010156631,0,
00:02.0,0.000595093,-0.006391525,0.010156631,0,
00:02.0,0.000595093,-0.006402969,0.010139465,0,
00:02.0,0.000595093,-0.006397247,0.010139465,0,
00:02.0,0.000589371,-0.006402969,0.010150909,0,
00:02.0,0.000583649,-0.006402969,0.010145187,0,
00:02.0,0.000595093,-0.006402969,0.010133743,0,
00:02.0,0.000600815,-0.006385803,0.010139465,0,
00:00:02,0.000600815,-0.006385803,0.010150909,0,
00:02.0,0.000600815,-0.006385803,0.010150909,0,
00:02.0,0.000600815,-0.006380081,0.010150909,0,
00:02.0,0.000589371,-0.006385803,0.010139465,0,
00:02.0,0.000595093,-0.006391525,0.010145187,0,
00:02.0,0.000595093,-0.006385803,0.010145187,0,
00:02.0,0.000595093,-0.006374359,0.010139465,0,
00:02.0,0.000595093,-0.006385803,0.010150909,0,
00:02.0,0.000595093,-0.006391525,0.010139465,0,
00:02.0,0.000612259,-0.006397247,0.010145187,0,
00:02.0,0.000595093,-0.006385803,0.010150909,0,
00:02.0,0.000606537,-0.006362915,0.010145187,0,
00:02.0,0.000595093,-0.006374359,0.010139465,0,
00:02.1,0.000589371,-0.006385803,0.010145187,0,
00:02.1,0.000606537,-0.006391525,0.010145187,0,
00:02.1,0.000606537,-0.006385803,0.010139465,0,
00:02.1,0.000606537,-0.006362915,0.010139465,0,
00:02.1,0.000606537,-0.006357193,0.010145187,0,
00:02.1,0.000606537,-0.006368637,0.010145187,0,
00:02.1,0.000595093,-0.006385803,0.010139465,0,
00:02.1,0.000595093,-0.006385803,0.010133743,0,
00:02.1,0.000600815,-0.006368637,0.010145187,0,
00:02.1,0.000612259,-0.006368637,0.010150909,0,
00:02.1,0.000606537,-0.006374359,0.010139465,0,
00:02.1,0.000600815,-0.006362915,0.010139465,0,
00:02.1,0.000600815,-0.006357193,0.010139465,0,
00:02.1,0.000600815,-0.006374359,0.010139465,0,
00:02.1,0.000600815,-0.006385803,0.010139465,0,
00:02.1,0.000595093,-0.006391525,0.010133743,0,
00:02.1,0.000595093,-0.006385803,0.010133743,0,
00:02.1,0.000612259,-0.006368637,0.010139465,0,
00:02.1,0.000623703,-0.006357193,0.010139465,0,
00:02.1,0.000600815,-0.006368637,0.010145187,0,
00:02.1,0.000600815,-0.006368637,0.010133743,0,
00:02.1,0.000606537,-0.006368637,0.010128021,0,
00:02.1,0.000606537,-0.006368637,0.010133743,0,
00:02.1,0.000589371,-0.006368637,0.010145187,0,
00:02.1,0.000600815,-0.006362915,0.010150909,0,
00:02.2,0.000612259,-0.006374359,0.010139465,0,
00:02.2,0.000606537,-0.006368637,0.010133743,0,
00:02.2,0.000612259,-0.006357193,0.010139465,0,
00:02.2,0.000617981,-0.006357193,0.010145187,0,
00:02.2,0.000617981,-0.006362915,0.010139465,0,
00:02.2,0.000606537,-0.006368637,0.010133743,0,
00:02.2,0.000595093,-0.006368637,0.010128021,0,
00:02.2,0.000606537,-0.006368637,0.010133743,0,
00:02.2,0.000612259,-0.006362915,0.010145187,0,
00:02.2,0.000612259,-0.006345749,0.010139465,0,
00:02.2,0.000612259,-0.006351471,0.010128021,0,
00:02.2,0.000612259,-0.006368637,0.010128021,0,
00:02.2,0.000600815,-0.006380081,0.010139465,0,
00:02.2,0.000595093,-0.006368637,0.010133743,0,
00:02.2,0.000583649,-0.006362915,0.010133743,0,
00:02.2,0.000617981,-0.006351471,0.010139465,0,
00:02.2,0.000623703,-0.006345749,0.010133743,0,
00:02.2,0.000612259,-0.006351471,0.010128021,0,
00:02.2,0.000623703,-0.006357193,0.010139465,0,
00:02.2,0.000612259,-0.006357193,0.010145187,0,
00:02.2,0.000606537,-0.006362915,0.010133743,0,
00:02.2,0.000595093,-0.006357193,0.010133743,0,
00:02.2,0.000617981,-0.006351471,0.010139465,0,
00:02.2,0.000617981,-0.006351471,0.010139465,0,
00:02.2,0.000617981,-0.006340027,0.010128021,0,
00:02.3,0.000606537,-0.006345749,0.010116577,0,
00:02.3,0.000606537,-0.006345749,0.010128021,0,
00:02.3,0.000612259,-0.006351471,0.010139465,0,
00:02.3,0.000606537,-0.006345749,0.010145187,0,
00:02.3,0.000623703,-0.006345749,0.010133743,0,
00:02.3,0.000606537,-0.006362915,0.010128021,0,
00:02.3,0.000589371,-0.006351471,0.010128021,0,
00:02.3,0.000617981,-0.006328583,0.010128021,0,
00:02.3,0.000635147,-0.006334305,0.010133743,0,
00:02.3,0.000629425,-0.006340027,0.010133743,0,
00:02.3,0.000617981,-0.006340027,0.010122299,0,
00:02.3,0.000606537,-0.006345749,0.010122299,0,
00:02.3,0.000606537,-0.006351471,0.010139465,0,
00:02.3,0.000612259,-0.006357193,0.010139465,0,
00:02.3,0.000606537,-0.006351471,0.010133743,0,
00:02.3,0.000617981,-0.006345749,0.010122299,0,
00:02.3,0.000623703,-0.006345749,0.010116577,0,
00:02.3,0.000617981,-0.006345749,0.010128021,0,
00:02.3,0.000612259,-0.006345749,0.010128021,0,
00:02.3,0.000600815,-0.006340027,0.010133743,0,
00:02.3,0.000617981,-0.006334305,0.010122299,0,
00:02.3,0.000623703,-0.006334305,0.010122299,0,
00:02.3,0.000623703,-0.006340027,0.010128021,0,
00:02.3,0.000612259,-0.006345749,0.010133743,0,
00:02.3,0.000612259,-0.006340027,0.010133743,0,
00:02.4,0.000617981,-0.006334305,0.010128021,0,
00:02.4,0.000606537,-0.006340027,0.010128021,0,
00:02.4,0.000612259,-0.006340027,0.010128021,0,
00:02.4,0.000623703,-0.006334305,0.010128021,0,
00:02.4,0.000617981,-0.006328583,0.010128021,0,
00:02.4,0.000617981,-0.006322861,0.010122299,0,
00:02.4,0.000617981,-0.006328583,0.010110855,0,
00:02.4,0.000612259,-0.006340027,0.010122299,0,
00:02.4,0.000617981,-0.006345749,0.010133743,0,
00:02.4,0.000600815,-0.006340027,0.010128021,0,
00:02.4,0.000617981,-0.006334305,0.010122299,0,
00:02.4,0.000612259,-0.006345749,0.010110855,0,
00:02.4,0.000617981,-0.006340027,0.010122299,0,
00:02.4,0.000623703,-0.006328583,0.010128021,0,
00:02.4,0.000617981,-0.006317139,0.010128021,0,
00:02.4,0.000612259,-0.006317139,0.010128021,0,
00:02.4,0.000606537,-0.006322861,0.010122299,0,
00:02.4,0.000623703,-0.006328583,0.010116577,0,
00:02.4,0.000629425,-0.006322861,0.010128021,0,
00:02.4,0.000617981,-0.006328583,0.010128021,0,
00:02.4,0.000612259,-0.006340027,0.010116577,0,
00:02.4,0.000612259,-0.006328583,0.010116577,0,
00:02.4,0.000617981,-0.006334305,0.010122299,0,
00:02.4,0.000623703,-0.006334305,0.010122299,0,
00:02.4,0.000623703,-0.006317139,0.010122299,0,
00:02.5,0.000617981,-0.006317139,0.010116577,0,
00:02.5,0.000623703,-0.006322861,0.010116577,0,
00:02.5,0.000623703,-0.006322861,0.010116577,0,
00:02.5,0.000612259,-0.006334305,0.010122299,0,
00:02.5,0.000600815,-0.006340027,0.010128021,0,
00:02.5,0.000617981,-0.006322861,0.010116577,0,
00:02.5,0.000635147,-0.006311417,0.010116577,0,
00:02.5,0.000629425,-0.006317139,0.010116577,0,
00:02.5,0.000623703,-0.006317139,0.010122299,0,
00:02.5,0.000617981,-0.006317139,0.010122299,0,
00:02.5,0.000617981,-0.006317139,0.010116577,0,
00:02.5,0.000629425,-0.006311417,0.010105133,0,
00:02.5,0.000623703,-0.006311417,0.010122299,0,
00:02.5,0.000612259,-0.006322861,0.010128021,0,
00:02.5,0.000617981,-0.006328583,0.010128021,0,
00:02.5,0.000617981,-0.006328583,0.010122299,0,
00:02.5,0.000617981,-0.006311417,0.010110855,0,
00:02.5,0.000623703,-0.006299973,0.010122299,0,
00:02.5,0.000617981,-0.006311417,0.010128021,0,
00:02.5,0.000623703,-0.006317139,0.010122299,0,
00:02.5,0.000617981,-0.006317139,0.010116577,0,
00:02.5,0.000612259,-0.006322861,0.010110855,0,
00:02.5,0.000612259,-0.006322861,0.010116577,0,
00:02.5,0.000617981,-0.006299973,0.010116577,0,
00:02.5,0.000623703,-0.00629425,0.010122299,0,
00:02.6,0.000623703,-0.006317139,0.010116577,0,
00:02.6,0.000629425,-0.006317139,0.010110855,0,
00:02.6,0.000617981,-0.006311417,0.010122299,0,
00:02.6,0.000612259,-0.006305695,0.010122299,0,
00:02.6,0.000606537,-0.006311417,0.010116577,0,
00:02.6,0.000623703,-0.006311417,0.010110855,0,
00:02.6,0.000617981,-0.006311417,0.010116577,0,
00:02.6,0.000612259,-0.006311417,0.010116577,0,
00:02.6,0.000623703,-0.006299973,0.010116577,0,
00:02.6,0.000635147,-0.006299973,0.010116577,0,
00:02.6,0.000623703,-0.006311417,0.010110855,0,
00:02.6,0.000617981,-0.006311417,0.010099411,0,
00:02.6,0.000612259,-0.006299973,0.010099411,0,
00:02.6,0.000617981,-0.00629425,0.010116577,0,
00:02.6,0.000623703,-0.006305695,0.010128021,0,
00:02.6,0.000617981,-0.006305695,0.010116577,0,
00:02.6,0.000617981,-0.006305695,0.010110855,0,
00:02.6,0.000612259,-0.006305695,0.010116577,0,
00:02.6,0.000600815,-0.006311417,0.010110855,0,
00:02.6,0.000612259,-0.006299973,0.010105133,0,
00:02.6,0.000635147,-0.00629425,0.010110855,0,
00:02.6,0.000629425,-0.00629425,0.010110855,0,
00:02.6,0.000629425,-0.00629425,0.010116577,0,
00:02.6,0.000617981,-0.00629425,0.010110855,0,
00:02.6,0.000623703,-0.00629425,0.010110855,0,
00:02.7,0.000617981,-0.00629425,0.010110855,0,
00:02.7,0.000623703,-0.006299973,0.010110855,0,
00:02.7,0.000617981,-0.006305695,0.010110855,0,
00:02.7,0.000617981,-0.006305695,0.010105133,0,
00:02.7,0.000612259,-0.006299973,0.010116577,0,
00:02.7,0.000623703,-0.006288528,0.010110855,0,
00:02.7,0.000617981,-0.006282806,0.010105133,0,
00:02.7,0.000617981,-0.006299973,0.010105133,0,
00:02.7,0.000617981,-0.006299973,0.010110855,0,
00:02.7,0.000606537,-0.006288528,0.010110855,0,
00:02.7,0.000629425,-0.00629425,0.010099411,0,
00:02.7,0.000623703,-0.006299973,0.010105133,0,
00:02.7,0.000617981,-0.00629425,0.010099411,0,
00:02.7,0.000617981,-0.00629425,0.010105133,0,
00:02.7,0.000623703,-0.00629425,0.010110855,0,
00:02.7,0.000623703,-0.006299973,0.010099411,0,
00:02.7,0.000623703,-0.006299973,0.010099411,0,
00:02.7,0.000612259,-0.006299973,0.010116577,0,
00:02.7,0.000612259,-0.006305695,0.010116577,0,
00:02.7,0.000612259,-0.00629425,0.010110855,0,
00:02.7,0.000629425,-0.006277084,0.010099411,0,
00:02.7,0.000635147,-0.006271362,0.010087967,0,
00:02.7,0.000623703,-0.006282806,0.010099411,0,
00:02.7,0.000623703,-0.006288528,0.010105133,0,
00:02.7,0.000617981,-0.00629425,0.010099411,0,
00:02.8,0.000612259,-0.006311417,0.010105133,0,
00:02.8,0.000600815,-0.006311417,0.010099411,0,
00:02.8,0.000612259,-0.006288528,0.010099411,0,
00:02.8,0.000617981,-0.006282806,0.010099411,0,
00:02.8,0.000629425,-0.006277084,0.010105133,0,
00:02.8,0.000629425,-0.006277084,0.010099411,0,
00:02.8,0.000629425,-0.006282806,0.010099411,0,
00:02.8,0.000623703,-0.006277084,0.010093689,0,
00:02.8,0.000623703,-0.006282806,0.010087967,0,
00:02.8,0.000617981,-0.006299973,0.010105133,0,
00:02.8,0.000617981,-0.006305695,0.010093689,0,
00:02.8,0.000617981,-0.006299973,0.010099411,0,
00:02.8,0.000623703,-0.006277084,0.010093689,0,
00:02.8,0.000623703,-0.00626564,0.010093689,0,
00:02.8,0.000612259,-0.006282806,0.010099411,0,
00:02.8,0.000617981,-0.006282806,0.010087967,0,
00:02.8,0.000623703,-0.006277084,0.010087967,0,
00:02.8,0.000606537,-0.006277084,0.010093689,0,
00:02.8,0.000623703,-0.006271362,0.010099411,0,
00:02.8,0.000640869,-0.006271362,0.010093689,0,
00:02.8,0.000629425,-0.006271362,0.010099411,0,
00:02.8,0.000617981,-0.006277084,0.010087967,0,
00:02.8,0.000623703,-0.00629425,0.010093689,0,
00:02.8,0.000617981,-0.006299973,0.010105133,0,
00:02.8,0.000612259,-0.006282806,0.010093689,0,
00:02.9,0.000612259,-0.00626564,0.010087967,0,
00:02.9,0.000617981,-0.006271362,0.010087967,0,
00:02.9,0.000617981,-0.006277084,0.010093689,0,
00:02.9,0.000629425,-0.006271362,0.010093689,0,
00:02.9,0.000617981,-0.006277084,0.010082245,0,
00:02.9,0.000617981,-0.006271362,0.010093689,0,
00:02.9,0.000617981,-0.00626564,0.010093689,0,
00:02.9,0.000635147,-0.006282806,0.010093689,0,
00:02.9,0.000606537,-0.006277084,0.010087967,0,
00:02.9,0.000595093,-0.006271362,0.010093689,0,
00:02.9,0.000629425,-0.006271362,0.010087967,0,
00:02.9,0.000635147,-0.006271362,0.010082245,0,
00:02.9,0.000629425,-0.00626564,0.010076523,0,
00:02.9,0.000623703,-0.00626564,0.010093689,0,
00:02.9,0.000623703,-0.00626564,0.010093689,0,
00:02.9,0.000623703,-0.006271362,0.010087967,0,
00:02.9,0.000623703,-0.006271362,0.010087967,0,
00:02.9,0.000623703,-0.006259918,0.010087967,0,
00:02.9,0.000623703,-0.00626564,0.010082245,0,
00:02.9,0.000617981,-0.00626564,0.010087967,0,
00:02.9,0.000617981,-0.006254196,0.010087967,0,
00:02.9,0.000623703,-0.006254196,0.010076523,0,
00:02.9,0.000612259,-0.006271362,0.010076523,0,
00:02.9,0.000623703,-0.00626564,0.010087967,0,
00:02.9,0.000617981,-0.006259918,0.010087967,0,
00:03.0,0.000629425,-0.00626564,0.010087967,0,
00:03.0,0.000629425,-0.006259918,0.010082245,0,
00:03.0,0.000617981,-0.006254196,0.010087967,0,
00:03.0,0.000617981,-0.00623703,0.010093689,0,
00:03.0,0.000612259,-0.006248474,0.010087967,0,
00:03.0,0.000612259,-0.00626564,0.010082245,0,
00:03.0,0.000612259,-0.006271362,0.010076523,0,
00:03.0,0.000623703,-0.00626564,0.010076523,0,
00:03.0,0.000617981,-0.00626564,0.010082245,0,
00:03.0,0.000617981,-0.006254196,0.010093689,0,
00:03.0,0.000617981,-0.006242752,0.010082245,0,
00:03.0,0.000629425,-0.006248474,0.010076523,0,
00:00:03,0.000623703,-0.006259918,0.010076523,0,
00:03.0,0.000612259,-0.00626564,0.010082245,0,
00:03.0,0.000606537,-0.006254196,0.010087967,0,
00:03.0,0.000617981,-0.006248474,0.010082245,0,
00:03.0,0.000629425,-0.006242752,0.010082245,0,
00:03.0,0.000617981,-0.006254196,0.010076523,0,
00:03.0,0.000617981,-0.00626564,0.010070801,0,
00:03.0,0.000623703,-0.006259918,0.010076523,0,
00:03.0,0.000617981,-0.006254196,0.010076523,0,
00:03.0,0.000629425,-0.006254196,0.010076523,0,
00:03.0,0.000629425,-0.006242752,0.010076523,0,
00:03.0,0.000623703,-0.006225586,0.010082245,0,
00:03.0,0.000623703,-0.00623703,0.010082245,0,
00:03.1,0.000617981,-0.006248474,0.010076523,0,
00:03.1,0.000606537,-0.006254196,0.010076523,0,
00:03.1,0.000612259,-0.006254196,0.010076523,0,
00:03.1,0.000623703,-0.006254196,0.010082245,0,
00:03.1,0.000623703,-0.006242752,0.010076523,0,
00:03.1,0.000623703,-0.006242752,0.010059357,0,
00:03.1,0.000612259,-0.006248474,0.010065079,0,
00:03.1,0.000629425,-0.006259918,0.010076523,0,
00:03.1,0.000617981,-0.006254196,0.010087967,0,
00:03.1,0.000617981,-0.006242752,0.010076523,0,
00:03.1,0.000623703,-0.006242752,0.010070801,0,
00:03.1,0.000617981,-0.006248474,0.010065079,0,
00:03.1,0.000612259,-0.006248474,0.010070801,0,
00:03.1,0.000617981,-0.006248474,0.010076523,0,
00:03.1,0.000617981,-0.006248474,0.010070801,0,
00:03.1,0.000623703,-0.006242752,0.010053635,0,
00:03.1,0.000629425,-0.006231308,0.010065079,0,
00:03.1,0.000623703,-0.006231308,0.010076523,0,
00:03.1,0.000617981,-0.006248474,0.010076523,0,
00:03.1,0.000600815,-0.006254196,0.010076523,0,
00:03.1,0.000595093,-0.006248474,0.010070801,0,
00:03.1,0.000617981,-0.006242752,0.010065079,0,
00:03.1,0.000652313,-0.006225586,0.010059357,0,
00:03.1,0.000635147,-0.006214142,0.010065079,0,
00:03.1,0.000623703,-0.006225586,0.010070801,0,
00:03.2,0.000617981,-0.006231308,0.010076523,0,
00:03.2,0.000617981,-0.006248474,0.010070801,0,
00:03.2,0.000617981,-0.006254196,0.010065079,0,
00:03.2,0.000617981,-0.006254196,0.010076523,0,
00:03.2,0.000612259,-0.006254196,0.010070801,0,
00:03.2,0.000612259,-0.006242752,0.010065079,0,
00:03.2,0.000617981,-0.006225586,0.010059357,0,
00:03.2,0.000617981,-0.006225586,0.010059357,0,
00:03.2,0.000629425,-0.006231308,0.010065079,0,
00:03.2,0.000623703,-0.006225586,0.010053635,0,
00:03.2,0.000612259,-0.00623703,0.010065079,0,
00:03.2,0.000612259,-0.006242752,0.010070801,0,
00:03.2,0.000606537,-0.006242752,0.010070801,0,
00:03.2,0.000612259,-0.006248474,0.010065079,0,
00:03.2,0.000600815,-0.006254196,0.010065079,0,
00:03.2,0.000600815,-0.00623703,0.010053635,0,
00:03.2,0.000606537,-0.006219864,0.010059357,0,
00:03.2,0.000617981,-0.006214142,0.010065079,0,
00:03.2,0.000629425,-0.006219864,0.010059357,0,
00:03.2,0.000617981,-0.006225586,0.010053635,0,
00:03.2,0.000617981,-0.006225586,0.010059357,0,
00:03.2,0.000612259,-0.006231308,0.010047913,0,
00:03.2,0.000606537,-0.00623703,0.010059357,0,
00:03.2,0.000612259,-0.00623703,0.010070801,0,
00:03.2,0.000617981,-0.006225586,0.010059357,0,
00:03.3,0.000612259,-0.006225586,0.010047913,0,
00:03.3,0.000612259,-0.00623703,0.010053635,0,
00:03.3,0.000617981,-0.00623703,0.010053635,0,
00:03.3,0.000617981,-0.006225586,0.010053635,0,
00:03.3,0.000612259,-0.006219864,0.010053635,0,
00:03.3,0.000617981,-0.006225586,0.010047913,0,
00:03.3,0.000606537,-0.006242752,0.010053635,0,
00:03.3,0.000606537,-0.00623703,0.010059357,0,
00:03.3,0.000617981,-0.006231308,0.010059357,0,
00:03.3,0.000612259,-0.00623703,0.010053635,0,
00:03.3,0.000600815,-0.006242752,0.010053635,0,
00:03.3,0.000600815,-0.006231308,0.010053635,0,
00:03.3,0.000612259,-0.006219864,0.010053635,0,
00:03.3,0.000617981,-0.006225586,0.010047913,0,
00:03.3,0.000612259,-0.006231308,0.010047913,0,
00:03.3,0.000612259,-0.006231308,0.010047913,0,
00:03.3,0.000612259,-0.006231308,0.010047913,0,
00:03.3,0.000606537,-0.006225586,0.010059357,0,
00:03.3,0.000600815,-0.006225586,0.010059357,0,
00:03.3,0.000606537,-0.006225586,0.010053635,0,
00:03.3,0.000617981,-0.006219864,0.010047913,0,
00:03.3,0.000629425,-0.006214142,0.010047913,0,
00:03.3,0.000623703,-0.006219864,0.010042191,0,
00:03.3,0.000617981,-0.006225586,0.010053635,0,
00:03.3,0.000617981,-0.006225586,0.010047913,0,
00:03.4,0.000612259,-0.006231308,0.010042191,0,
00:03.4,0.000606537,-0.006225586,0.010047913,0,
00:03.4,0.000606537,-0.006214142,0.010053635,0,
00:03.4,0.000617981,-0.006214142,0.010047913,0,
00:03.4,0.000617981,-0.006231308,0.010042191,0,
00:03.4,0.000617981,-0.006231308,0.010042191,0,
00:03.4,0.000617981,-0.006214142,0.010042191,0,
00:03.4,0.000617981,-0.00620842,0.010047913,0,
00:03.4,0.000606537,-0.006214142,0.010042191,0,
00:03.4,0.000600815,-0.006219864,0.010053635,0,
00:03.4,0.000600815,-0.006231308,0.010042191,0,
00:03.4,0.000595093,-0.00623703,0.010036469,0,
00:03.4,0.000623703,-0.006225586,0.010030746,0,
00:03.4,0.000623703,-0.00620842,0.010047913,0,
00:03.4,0.000612259,-0.006202698,0.010047913,0,
00:03.4,0.000606537,-0.006225586,0.010042191,0,
00:03.4,0.000612259,-0.00623703,0.010042191,0,
00:03.4,0.000623703,-0.006219864,0.010036469,0,
00:03.4,0.000612259,-0.006219864,0.010042191,0,
00:03.4,0.000606537,-0.006219864,0.010042191,0,
00:03.4,0.000600815,-0.006202698,0.010036469,0,
00:03.4,0.000600815,-0.006202698,0.010042191,0,
00:03.4,0.000606537,-0.006214142,0.010042191,0,
00:03.4,0.000612259,-0.00620842,0.010042191,0,
00:03.4,0.000617981,-0.006202698,0.010042191,0,
00:03.5,0.000606537,-0.00620842,0.010030746,0,
00:03.5,0.000600815,-0.006214142,0.010036469,0,
00:03.5,0.000600815,-0.006225586,0.010036469,0,
00:03.5,0.000606537,-0.006219864,0.010036469,0,
00:03.5,0.000606537,-0.006214142,0.010036469,0,
00:03.5,0.000606537,-0.006219864,0.010030746,0,
00:03.5,0.000612259,-0.006214142,0.010036469,0,
00:03.5,0.000612259,-0.006202698,0.010030746,0,
00:03.5,0.000606537,-0.006196976,0.010036469,0,
00:03.5,0.000612259,-0.006196976,0.010036469,0,
00:03.5,0.000606537,-0.00620842,0.010036469,0,
00:03.5,0.000600815,-0.00620842,0.010030746,0,
00:03.5,0.000612259,-0.00620842,0.010025024,0,
00:03.5,0.000612259,-0.00620842,0.010030746,0,
00:03.5,0.000600815,-0.006219864,0.010025024,0,
00:03.5,0.000589371,-0.006225586,0.010019302,0,
00:03.5,0.000600815,-0.00620842,0.010036469,0,
00:03.5,0.000606537,-0.006196976,0.010036469,0,
00:03.5,0.000600815,-0.006202698,0.010036469,0,
00:03.5,0.000600815,-0.00620842,0.010030746,0,
00:03.5,0.000606537,-0.00620842,0.010030746,0,
00:03.5,0.000612259,-0.006214142,0.010030746,0,
00:03.5,0.000600815,-0.006219864,0.010025024,0,
00:03.5,0.000606537,-0.006214142,0.010030746,0,
00:03.5,0.000612259,-0.006191254,0.010036469,0,
00:03.6,0.000617981,-0.006185532,0.010030746,0,
00:03.6,0.000612259,-0.00617981,0.010030746,0,
00:03.6,0.000606537,-0.006196976,0.010030746,0,
00:03.6,0.000617981,-0.00620842,0.010025024,0,
00:03.6,0.000606537,-0.00620842,0.010019302,0,
00:03.6,0.000606537,-0.006202698,0.010025024,0,
00:03.6,0.000600815,-0.006196976,0.010030746,0,
00:03.6,0.000600815,-0.00620842,0.010025024,0,
00:03.6,0.000595093,-0.00620842,0.010030746,0,
00:03.6,0.000600815,-0.006202698,0.010019302,0,
00:03.6,0.000606537,-0.006202698,0.010019302,0,
00:03.6,0.000612259,-0.00620842,0.010025024,0,
00:03.6,0.000600815,-0.006214142,0.010030746,0,
00:03.6,0.000600815,-0.006202698,0.010030746,0,
00:03.6,0.000600815,-0.006196976,0.010025024,0,
00:03.6,0.000600815,-0.006202698,0.010019302,0,
00:03.6,0.000595093,-0.00620842,0.010019302,0,
00:03.6,0.000600815,-0.006219864,0.01001358,0,
00:03.6,0.000600815,-0.006231308,0.010019302,0,
00:03.6,0.000606537,-0.00620842,0.010007858,0,
00:03.6,0.000612259,-0.006185532,0.010019302,0,
00:03.6,0.000606537,-0.006191254,0.010030746,0,
00:03.6,0.000606537,-0.006185532,0.010025024,0,
00:03.6,0.000623703,-0.00617981,0.01001358,0,
00:03.6,0.000612259,-0.006185532,0.010019302,0,
00:03.7,0.000606537,-0.006191254,0.010019302,0,
00:03.7,0.000600815,-0.006196976,0.01001358,0,
00:03.7,0.000606537,-0.006196976,0.01001358,0,
00:03.7,0.000600815,-0.00617981,0.010019302,0,
00:03.7,0.000606537,-0.006185532,0.010025024,0,
00:03.7,0.000606537,-0.006191254,0.010019302,0,
00:03.7,0.000600815,-0.006214142,0.010019302,0,
00:03.7,0.000595093,-0.006219864,0.010019302,0,
00:03.7,0.000595093,-0.00620842,0.010019302,0,
00:03.7,0.000600815,-0.006191254,0.01001358,0,
00:03.7,0.000612259,-0.006191254,0.01001358,0,
00:03.7,0.000600815,-0.006196976,0.01001358,0,
00:03.7,0.000612259,-0.006185532,0.01001358,0,
00:03.7,0.000617981,-0.00617981,0.01001358,0,
00:03.7,0.000595093,-0.006191254,0.010007858,0,
00:03.7,0.000595093,-0.006202698,0.01001358,0,
00:03.7,0.000595093,-0.006202698,0.010007858,0,
00:03.7,0.000606537,-0.006196976,0.010007858,0,
00:03.7,0.000612259,-0.00617981,0.010002136,0,
00:03.7,0.000600815,-0.006185532,0.01001358,0,
00:03.7,0.000600815,-0.006185532,0.010007858,0,
00:03.7,0.000600815,-0.00617981,0.01001358,0,
00:03.7,0.000606537,-0.00617981,0.010007858,0,
00:03.7,0.000612259,-0.006185532,0.010019302,0,
00:03.7,0.000606537,-0.006185532,0.010007858,0,
00:03.8,0.000600815,-0.006185532,0.010007858,0,
00:03.8,0.000606537,-0.00617981,0.01001358,0,
00:03.8,0.000600815,-0.006196976,0.01001358,0,
00:03.8,0.000600815,-0.006191254,0.01001358,0,
00:03.8,0.000606537,-0.006185532,0.010007858,0,
00:03.8,0.000606537,-0.00617981,0.010002136,0,
00:03.8,0.000606537,-0.006174088,0.010002136,0,
00:03.8,0.000595093,-0.00617981,0.010007858,0,
00:03.8,0.000606537,-0.006191254,0.010002136,0,
00:03.8,0.000606537,-0.006174088,0.009996414,0,
00:03.8,0.000612259,-0.006168365,0.010007858,0,
00:03.8,0.000606537,-0.00617981,0.010002136,0,
00:03.8,0.000612259,-0.00617981,0.009996414,0,
00:03.8,0.000606537,-0.00617981,0.010002136,0,
00:03.8,0.000606537,-0.00617981,0.010002136,0,
00:03.8,0.000606537,-0.00617981,0.009990692,0,
00:03.8,0.000606537,-0.006174088,0.009996414,0,
00:03.8,0.000606537,-0.006174088,0.010002136,0,
00:03.8,0.000606537,-0.006174088,0.010007858,0,
00:03.8,0.000606537,-0.00617981,0.009996414,0,
00:03.8,0.000600815,-0.006185532,0.010002136,0,
00:03.8,0.000606537,-0.00617981,0.009996414,0,
00:03.8,0.000600815,-0.006185532,0.010007858,0,
00:03.8,0.000606537,-0.006174088,0.010002136,0,
00:03.8,0.000595093,-0.006174088,0.010002136,0,
00:03.9,0.000577927,-0.006185532,0.009996414,0,
00:03.9,0.000583649,-0.006185532,0.010002136,0,
00:03.9,0.000623703,-0.00617981,0.009996414,0,
00:03.9,0.000612259,-0.006174088,0.009996414,0,
00:03.9,0.000617981,-0.006162643,0.010002136,0,
00:03.9,0.000612259,-0.006174088,0.009996414,0,
00:03.9,0.000600815,-0.006185532,0.009990692,0,
00:03.9,0.000595093,-0.006185532,0.009996414,0,
00:03.9,0.000600815,-0.00617981,0.010002136,0,
00:03.9,0.000600815,-0.006174088,0.009996414,0,
00:03.9,0.000606537,-0.006174088,0.009990692,0,
00:03.9,0.000600815,-0.006168365,0.009979248,0,
00:03.9,0.000606537,-0.006156921,0.00998497,0,
00:03.9,0.000606537,-0.006174088,0.010007858,0,
00:03.9,0.000600815,-0.006191254,0.010002136,0,
00:03.9,0.000595093,-0.006185532,0.009996414,0,
00:03.9,0.000606537,-0.006174088,0.00998497,0,
00:03.9,0.000612259,-0.006174088,0.009996414,0,
00:03.9,0.000595093,-0.006174088,0.009996414,0,
00:03.9,0.000606537,-0.006174088,0.009996414,0,
00:03.9,0.000600815,-0.006191254,0.009990692,0,
00:03.9,0.000595093,-0.00617981,0.009990692,0,
00:03.9,0.000595093,-0.006162643,0.009996414,0,
00:03.9,0.000606537,-0.006151199,0.009996414,0,
00:03.9,0.000612259,-0.006156921,0.00998497,0,
00:04.0,0.000600815,-0.006168365,0.00998497,0,
00:04.0,0.000600815,-0.006168365,0.009990692,0,
00:04.0,0.000583649,-0.00617981,0.009990692,0,
00:04.0,0.000595093,-0.006185532,0.009990692,0,
00:04.0,0.000600815,-0.006174088,0.00998497,0,
00:04.0,0.000606537,-0.006162643,0.009979248,0,
00:04.0,0.000595093,-0.006168365,0.009990692,0,
00:04.0,0.000612259,-0.006162643,0.00998497,0,
00:04.0,0.000606537,-0.006156921,0.009990692,0,
00:04.0,0.000612259,-0.006156921,0.00998497,0,
00:04.0,0.000617981,-0.006156921,0.009973526,0,
00:04.0,0.000606537,-0.006162643,0.009990692,0,
00:00:04,0.000600815,-0.006162643,0.009990692,0,
00:04.0,0.000595093,-0.006162643,0.00998497,0,
00:04.0,0.000600815,-0.006168365,0.00998497,0,
00:04.0,0.000595093,-0.006174088,0.009990692,0,
00:04.0,0.000589371,-0.006174088,0.009979248,0,
00:04.0,0.000595093,-0.006162643,0.00998497,0,
00:04.0,0.000600815,-0.006151199,0.009990692,0,
00:04.0,0.000606537,-0.006145477,0.009990692,0,
00:04.0,0.000600815,-0.006139755,0.009973526,0,
00:04.0,0.000595093,-0.006139755,0.009979248,0,
00:04.0,0.000589371,-0.006174088,0.00998497,0,
00:04.0,0.000606537,-0.00617981,0.00998497,0,
00:04.0,0.000600815,-0.006174088,0.009979248,0,
00:04.1,0.000612259,-0.006151199,0.009967804,0,
00:04.1,0.000612259,-0.006139755,0.009979248,0,
00:04.1,0.000595093,-0.006151199,0.009979248,0,
00:04.1,0.000595093,-0.006162643,0.009979248,0,
00:04.1,0.000589371,-0.006168365,0.009973526,0,
00:04.1,0.000595093,-0.00617981,0.009967804,0,
00:04.1,0.000583649,-0.006162643,0.009962082,0,
00:04.1,0.000600815,-0.006151199,0.009973526,0,
00:04.1,0.000595093,-0.006151199,0.00998497,0,
00:04.1,0.000583649,-0.006162643,0.00998497,0,
00:04.1,0.000589371,-0.006162643,0.009973526,0,
00:04.1,0.000600815,-0.006156921,0.009973526,0,
00:04.1,0.000600815,-0.006151199,0.009967804,0,
00:04.1,0.000595093,-0.006151199,0.009973526,0,
00:04.1,0.000595093,-0.006162643,0.00998497,0,
00:04.1,0.000589371,-0.006174088,0.009967804,0,
00:04.1,0.000600815,-0.006156921,0.009973526,0,
00:04.1,0.000612259,-0.006139755,0.009979248,0,
00:04.1,0.000600815,-0.006139755,0.009979248,0,
00:04.1,0.000595093,-0.006145477,0.009973526,0,
00:04.1,0.000595093,-0.006151199,0.009967804,0,
00:04.1,0.000595093,-0.006151199,0.009967804,0,
00:04.1,0.000589371,-0.006151199,0.009973526,0,
00:04.1,0.000583649,-0.006151199,0.009973526,0,
00:04.1,0.000600815,-0.006151199,0.009967804,0,
00:04.2,0.000600815,-0.006151199,0.00995636,0,
00:04.2,0.000583649,-0.006145477,0.009973526,0,
00:04.2,0.000589371,-0.006145477,0.009973526,0,
00:04.2,0.000600815,-0.006151199,0.009967804,0,
00:04.2,0.000595093,-0.006151199,0.009962082,0,
00:04.2,0.000595093,-0.006145477,0.009962082,0,
00:04.2,0.000595093,-0.006151199,0.009967804,0,
00:04.2,0.000595093,-0.006151199,0.009967804,0,
00:04.2,0.000595093,-0.006156921,0.009973526,0,
00:04.2,0.000595093,-0.006156921,0.009967804,0,
00:04.2,0.000589371,-0.006156921,0.009962082,0,
00:04.2,0.000577927,-0.006156921,0.009962082,0,
00:04.2,0.000589371,-0.006145477,0.009967804,0,
00:04.2,0.000595093,-0.006139755,0.009967804,0,
00:04.2,0.000600815,-0.006139755,0.009962082,0,
00:04.2,0.000595093,-0.006139755,0.00995636,0,
00:04.2,0.000589371,-0.006145477,0.00995636,0,
00:04.2,0.000583649,-0.006151199,0.009962082,0,
00:04.2,0.000583649,-0.006162643,0.009967804,0,
00:04.2,0.000589371,-0.006156921,0.00995636,0,
00:04.2,0.000589371,-0.006145477,0.009950638,0,
00:04.2,0.000589371,-0.006134033,0.009944916,0,
00:04.2,0.000589371,-0.006139755,0.009944916,0,
00:04.2,0.000595093,-0.006139755,0.009967804,0,
00:04.2,0.000595093,-0.006145477,0.009967804,0,
00:04.3,0.000595093,-0.006151199,0.009962082,0,
00:04.3,0.000595093,-0.006151199,0.00995636,0,
00:04.3,0.000595093,-0.006145477,0.00995636,0,
00:04.3,0.000589371,-0.006139755,0.00995636,0,
00:04.3,0.000583649,-0.006145477,0.00995636,0,
00:04.3,0.000589371,-0.006162643,0.009950638,0,
00:04.3,0.000577927,-0.006156921,0.009950638,0,
00:04.3,0.000583649,-0.006139755,0.00995636,0,
00:04.3,0.000583649,-0.006139755,0.00995636,0,
00:04.3,0.000583649,-0.006139755,0.009950638,0,
00:04.3,0.000577927,-0.006151199,0.009950638,0,
00:04.3,0.000595093,-0.006156921,0.009950638,0,
00:04.3,0.000595093,-0.006151199,0.009950638,0,
00:04.3,0.000583649,-0.006145477,0.009950638,0,
00:04.3,0.000577927,-0.006156921,0.009950638,0,
00:04.3,0.000577927,-0.006156921,0.009939194,0,
00:04.3,0.000583649,-0.006156921,0.009944916,0,
00:04.3,0.000583649,-0.006156921,0.009950638,0,
00:04.3,0.000572205,-0.006156921,0.009944916,0,
00:04.3,0.000583649,-0.006156921,0.00995636,0,
00:04.3,0.000595093,-0.006145477,0.009950638,0,
00:04.3,0.000583649,-0.006145477,0.009950638,0,
00:04.3,0.000583649,-0.006145477,0.00995636,0,
00:04.3,0.000583649,-0.006151199,0.00995636,0,
00:04.3,0.000583649,-0.006151199,0.009944916,0,
00:04.4,0.000577927,-0.006151199,0.009944916,0,
00:04.4,0.000577927,-0.006156921,0.009950638,0,
00:04.4,0.000566483,-0.006168365,0.009950638,0,
00:04.4,0.000572205,-0.006168365,0.009950638,0,
00:04.4,0.000577927,-0.006168365,0.009944916,0,
00:04.4,0.000566483,-0.006168365,0.009939194,0,
00:04.4,0.000577927,-0.006156921,0.009939194,0,
00:04.4,0.000577927,-0.006145477,0.009950638,0,
00:04.4,0.000577927,-0.006139755,0.009950638,0,
00:04.4,0.000577927,-0.006156921,0.009944916,0,
00:04.4,0.000577927,-0.006156921,0.009944916,0,
00:04.4,0.000577927,-0.006156921,0.009950638,0,
00:04.4,0.000577927,-0.006151199,0.00995636,0,
00:04.4,0.000572205,-0.006162643,0.00995636,0,
00:04.4,0.00056076,-0.00617981,0.009950638,0,
00:04.4,0.000566483,-0.00617981,0.009944916,0,
00:04.4,0.000572205,-0.006168365,0.009939194,0,
00:04.4,0.000572205,-0.006168365,0.009950638,0,
00:04.4,0.000549316,-0.006162643,0.00995636,0,
00:04.4,0.000577927,-0.006162643,0.009944916,0,
00:04.4,0.00056076,-0.006174088,0.00995636,0,
00:04.4,0.000572205,-0.006168365,0.00995636,0,
00:04.4,0.000572205,-0.006174088,0.00995636,0,
00:04.4,0.000566483,-0.006174088,0.009962082,0,
00:04.4,0.00056076,-0.006174088,0.00995636,0,
00:04.5,0.000566483,-0.006185532,0.009950638,0,
00:04.5,0.00056076,-0.006191254,0.00995636,0,
00:04.5,0.000555038,-0.006185532,0.009973526,0,
00:04.5,0.00056076,-0.00617981,0.009962082,0,
00:04.5,0.000572205,-0.00617981,0.009950638,0,
00:04.5,0.000566483,-0.00617981,0.009962082,0,
00:04.5,0.00056076,-0.00617981,0.009967804,0,
00:04.5,0.00056076,-0.006185532,0.009967804,0,
00:04.5,0.000555038,-0.006191254,0.009973526,0,
00:04.5,0.000555038,-0.006196976,0.009973526,0,
00:04.5,0.00056076,-0.006185532,0.009967804,0,
00:04.5,0.000555038,-0.00617981,0.009967804,0,
00:04.5,0.00056076,-0.006174088,0.009973526,0,
00:04.5,0.000555038,-0.006191254,0.009973526,0,
00:04.5,0.00056076,-0.006191254,0.009967804,0,
00:04.5,0.00056076,-0.006185532,0.009973526,0,
00:04.5,0.000549316,-0.006202698,0.009973526,0,
00:04.5,0.00056076,-0.006219864,0.009973526,0,
00:04.5,0.00056076,-0.00620842,0.009973526,0,
00:04.5,0.00056076,-0.006196976,0.009973526,0,
00:04.5,0.000555038,-0.00620842,0.009979248,0,
00:04.5,0.000572205,-0.006202698,0.009990692,0,
00:04.5,0.00056076,-0.006202698,0.009990692,0,
00:04.5,0.000555038,-0.00620842,0.00998497,0,
00:04.5,0.000555038,-0.006214142,0.009990692,0,
00:04.6,0.000549316,-0.006214142,0.009996414,0,
00:04.6,0.000549316,-0.006214142,0.009996414,0,
00:04.6,0.000555038,-0.006214142,0.009996414,0,
00:04.6,0.00056076,-0.006214142,0.010007858,0,
00:04.6,0.000555038,-0.006219864,0.010002136,0,
00:04.6,0.000543594,-0.006225586,0.010002136,0,
00:04.6,0.000549316,-0.006231308,0.009996414,0,
00:04.6,0.000549316,-0.006225586,0.01001358,0,
00:04.6,0.000555038,-0.006231308,0.01001358,0,
00:04.6,0.000549316,-0.00623703,0.010007858,0,
00:04.6,0.000549316,-0.00623703,0.010019302,0,
00:04.6,0.000555038,-0.006231308,0.010019302,0,
00:04.6,0.000555038,-0.00623703,0.010025024,0,
00:04.6,0.000555038,-0.006242752,0.010030746,0,
00:04.6,0.000555038,-0.006248474,0.010030746,0,
00:04.6,0.000549316,-0.006248474,0.010025024,0,
00:04.6,0.000537872,-0.006254196,0.010030746,0,
00:04.6,0.000555038,-0.006254196,0.010036469,0,
00:04.6,0.000543594,-0.006242752,0.010042191,0,
00:04.6,0.000555038,-0.006248474,0.010036469,0,
00:04.6,0.00056076,-0.006254196,0.010030746,0,
00:04.6,0.000555038,-0.00626564,0.010059357,0,
00:04.6,0.000549316,-0.006259918,0.010059357,0,
00:04.6,0.000549316,-0.00626564,0.010059357,0,
00:04.6,0.000543594,-0.006282806,0.010053635,0,
00:04.7,0.000543594,-0.006282806,0.010059357,0,
00:04.7,0.000555038,-0.006277084,0.010065079,0,
00:04.7,0.000555038,-0.006277084,0.010065079,0,
00:04.7,0.000549316,-0.006277084,0.010070801,0,
00:04.7,0.000543594,-0.006277084,0.010076523,0,
00:04.7,0.00056076,-0.006271362,0.010070801,0,
00:04.7,0.00056076,-0.006271362,0.010070801,0,
00:04.7,0.000549316,-0.006288528,0.010076523,0,
00:04.7,0.000537872,-0.006299973,0.010093689,0,
00:04.7,0.000555038,-0.006299973,0.010099411,0,
00:04.7,0.000549316,-0.006305695,0.010087967,0,
00:04.7,0.000555038,-0.006288528,0.010093689,0,
00:04.7,0.000543594,-0.006288528,0.010099411,0,
00:04.7,0.000555038,-0.00629425,0.010105133,0,
00:04.7,0.000555038,-0.006299973,0.010105133,0,
00:04.7,0.000549316,-0.006311417,0.010105133,0,
00:04.7,0.000555038,-0.006317139,0.010116577,0,
00:04.7,0.000555038,-0.006317139,0.010128021,0,
00:04.7,0.000549316,-0.006311417,0.010128021,0,
00:04.7,0.000549316,-0.006317139,0.010122299,0,
00:04.7,0.000543594,-0.006317139,0.010128021,0,
00:04.7,0.000549316,-0.006328583,0.010133743,0,
00:04.7,0.000555038,-0.006334305,0.010133743,0,
00:04.7,0.000549316,-0.006322861,0.010139465,0,
00:04.7,0.000549316,-0.006317139,0.010156631,0,
00:04.8,0.000555038,-0.006328583,0.010145187,0,
00:04.8,0.00056076,-0.006345749,0.010145187,0,
00:04.8,0.000555038,-0.006357193,0.010162354,0,
00:04.8,0.000555038,-0.006351471,0.010168076,0,
00:04.8,0.000555038,-0.006340027,0.010162354,0,
00:04.8,0.000555038,-0.006351471,0.010168076,0,
00:04.8,0.000543594,-0.006374359,0.010168076,0,
00:04.8,0.000543594,-0.006362915,0.010173798,0,
00:04.8,0.000555038,-0.006345749,0.010185242,0,
00:04.8,0.00056076,-0.006357193,0.010185242,0,
00:04.8,0.000555038,-0.006362915,0.010185242,0,
00:04.8,0.000549316,-0.006368637,0.010196686,0,
00:04.8,0.00056076,-0.006368637,0.010202408,0,
00:04.8,0.000549316,-0.006380081,0.01020813,0,
00:04.8,0.000543594,-0.006385803,0.01020813,0,
00:04.8,0.000555038,-0.006374359,0.01020813,0,
00:04.8,0.00056076,-0.006368637,0.010202408,0,
00:04.8,0.000566483,-0.006374359,0.010202408,0,
00:04.8,0.000566483,-0.006380081,0.010225296,0,
00:04.8,0.00056076,-0.006391525,0.010231018,0,
00:04.8,0.00056076,-0.006391525,0.010225296,0,
00:04.8,0.000566483,-0.006391525,0.010231018,0,
00:04.8,0.000555038,-0.006391525,0.010231018,0,
00:04.8,0.000549316,-0.006391525,0.010219574,0,
00:04.8,0.00056076,-0.006420135,0.01023674,0,
00:04.9,0.000555038,-0.006425858,0.010253906,0,
00:04.9,0.00056076,-0.006408691,0.010253906,0,
00:04.9,0.00056076,-0.006391525,0.010259628,0,
00:04.9,0.000566483,-0.006380081,0.01026535,0,
00:04.9,0.000566483,-0.006402969,0.010271072,0,
00:04.9,0.000566483,-0.006425858,0.010259628,0,
00:04.9,0.00056076,-0.00643158,0.01026535,0,
00:04.9,0.00056076,-0.00643158,0.010276794,0,
00:04.9,0.00056076,-0.006425858,0.010276794,0,
00:04.9,0.00056076,-0.006425858,0.010288239,0,
00:04.9,0.000566483,-0.006420135,0.010282516,0,
00:04.9,0.000572205,-0.006425858,0.010288239,0,
00:04.9,0.000566483,-0.00643158,0.010293961,0,
00:04.9,0.000572205,-0.006437302,0.010299683,0,
00:04.9,0.00056076,-0.006448746,0.010293961,0,
00:04.9,0.000555038,-0.006448746,0.010299683,0,
00:04.9,0.000566483,-0.006443024,0.010311127,0,
00:04.9,0.000555038,-0.006443024,0.010322571,0,
00:04.9,0.000555038,-0.006448746,0.010322571,0,
00:04.9,0.000595093,-0.006448746,0.010322571,0,
00:04.9,0.000583649,-0.006448746,0.010316849,0,
00:04.9,0.000572205,-0.006454468,0.010322571,0,
00:04.9,0.000572205,-0.006454468,0.010328293,0,
00:04.9,0.000572205,-0.006465912,0.010345459,0,
00:04.9,0.000566483,-0.006471634,0.010345459,0,
00:05.0,0.00056076,-0.006471634,0.010345459,0,
00:05.0,0.000566483,-0.006471634,0.010339737,0,
00:05.0,0.000577927,-0.006477356,0.010356903,0,
00:05.0,0.000577927,-0.006477356,0.010356903,0,
00:05.0,0.000577927,-0.006471634,0.010356903,0,
00:05.0,0.000577927,-0.006471634,0.010362625,0,
00:05.0,0.000577927,-0.006477356,0.010362625,0,
00:05.0,0.000577927,-0.006494522,0.010362625,0,
00:05.0,0.000566483,-0.006500244,0.010368347,0,
00:05.0,0.000577927,-0.0064888,0.010362625,0,
00:05.0,0.000589371,-0.006483078,0.010374069,0,
00:05.0,0.000577927,-0.0064888,0.010385513,0,
00:00:05,0.000566483,-0.006494522,0.010385513,0,
00:05.0,0.000583649,-0.006500244,0.010391235,0,
00:05.0,0.000583649,-0.006505966,0.010391235,0,
00:05.0,0.000577927,-0.006511688,0.010391235,0,
00:05.0,0.000577927,-0.006511688,0.010385513,0,
00:05.0,0.000589371,-0.006511688,0.010396957,0,
00:05.0,0.000577927,-0.006505966,0.010414124,0,
00:05.0,0.000583649,-0.006494522,0.010408401,0,
00:05.0,0.000589371,-0.006500244,0.010402679,0,
00:05.0,0.000583649,-0.006511688,0.010408401,0,
00:05.0,0.000577927,-0.006523132,0.010419846,0,
00:05.0,0.000583649,-0.006534576,0.010419846,0,
00:05.0,0.000595093,-0.006534576,0.010425568,0,
00:05.1,0.000589371,-0.006523132,0.010414124,0,
00:05.1,0.000583649,-0.006523132,0.01043129,0,
00:05.1,0.000572205,-0.006534576,0.010425568,0,
00:05.1,0.000577927,-0.006546021,0.010437012,0,
00:05.1,0.000600815,-0.006534576,0.01043129,0,
00:05.1,0.000600815,-0.006523132,0.010425568,0,
00:05.1,0.000595093,-0.006534576,0.010437012,0,
00:05.1,0.000595093,-0.006540298,0.010442734,0,
00:05.1,0.000589371,-0.006528854,0.010448456,0,
00:05.1,0.000595093,-0.006528854,0.010448456,0,
00:05.1,0.000600815,-0.006546021,0.010437012,0,
00:05.1,0.000600815,-0.006551743,0.010437012,0,
00:05.1,0.000583649,-0.006557465,0.010448456,0,
00:05.1,0.000577927,-0.006568909,0.0104599,0,
00:05.1,0.000589371,-0.006557465,0.0104599,0,
00:05.1,0.000595093,-0.006551743,0.010454178,0,
00:05.1,0.000600815,-0.006557465,0.0104599,0,
00:05.1,0.000600815,-0.006557465,0.010454178,0,
00:05.1,0.000595093,-0.006557465,0.0104599,0,
00:05.1,0.000589371,-0.006557465,0.0104599,0,
00:05.1,0.000595093,-0.006563187,0.0104599,0,
00:05.1,0.000600815,-0.006568909,0.010477066,0,
00:05.1,0.000595093,-0.006563187,0.010471344,0,
00:05.1,0.000600815,-0.006568909,0.010477066,0,
00:05.1,0.000612259,-0.006568909,0.010477066,0,
00:05.2,0.000606537,-0.006574631,0.010465622,0,
00:05.2,0.000606537,-0.006574631,0.010471344,0,
00:05.2,0.000606537,-0.006580353,0.010471344,0,
00:05.2,0.000600815,-0.006586075,0.010477066,0,
00:05.2,0.000606537,-0.006580353,0.010477066,0,
00:05.2,0.000606537,-0.006586075,0.010482788,0,
00:05.2,0.000600815,-0.006580353,0.010482788,0,
00:05.2,0.000595093,-0.006586075,0.010482788,0,
00:05.2,0.000589371,-0.006603241,0.01048851,0,
00:05.2,0.000600815,-0.006591797,0.01048851,0,
00:05.2,0.000612259,-0.006580353,0.010482788,0,
00:05.2,0.000623703,-0.006580353,0.010482788,0,
00:05.2,0.000612259,-0.006568909,0.010482788,0,
00:05.2,0.000600815,-0.006574631,0.01048851,0,
00:05.2,0.000600815,-0.006597519,0.01048851,0,
00:05.2,0.000600815,-0.006603241,0.010482788,0,
00:05.2,0.000612259,-0.006597519,0.010482788,0,
00:05.2,0.000612259,-0.006597519,0.010494232,0,
00:05.2,0.000612259,-0.006597519,0.010505676,0,
00:05.2,0.000612259,-0.006597519,0.010494232,0,
00:05.2,0.000612259,-0.006597519,0.01048851,0,
00:05.2,0.000606537,-0.006586075,0.01048851,0,
00:05.2,0.000617981,-0.006591797,0.01048851,0,
00:05.2,0.000617981,-0.006597519,0.010482788,0,
00:05.2,0.000629425,-0.006597519,0.010494232,0,
00:05.3,0.000617981,-0.006603241,0.010494232,0,
00:05.3,0.000612259,-0.006614685,0.010494232,0,
00:05.3,0.000612259,-0.006603241,0.010494232,0,
00:05.3,0.000623703,-0.006597519,0.010494232,0,
00:05.3,0.000617981,-0.006597519,0.010494232,0,
00:05.3,0.000612259,-0.006597519,0.010482788,0,
00:05.3,0.000617981,-0.006608963,0.01048851,0,
00:05.3,0.000617981,-0.006614685,0.010494232,0,
00:05.3,0.000617981,-0.006603241,0.01048851,0,
00:05.3,0.000623703,-0.006603241,0.01048851,0,
00:05.3,0.000623703,-0.006603241,0.01048851,0,
00:05.3,0.000617981,-0.006597519,0.01048851,0,
00:05.3,0.000617981,-0.006603241,0.01048851,0,
00:05.3,0.000617981,-0.006603241,0.010482788,0,
00:05.3,0.000623703,-0.006597519,0.010477066,0,
00:05.3,0.000612259,-0.006614685,0.010482788,0,
00:05.3,0.000600815,-0.006626129,0.01048851,0,
00:05.3,0.000629425,-0.006620407,0.010494232,0,
00:05.3,0.000635147,-0.006620407,0.010482788,0,
00:05.3,0.000623703,-0.006614685,0.010482788,0,
00:05.3,0.000623703,-0.006608963,0.010477066,0,
00:05.3,0.000617981,-0.006603241,0.010477066,0,
00:05.3,0.000629425,-0.006608963,0.010477066,0,
00:05.3,0.000629425,-0.006608963,0.010477066,0,
00:05.3,0.000629425,-0.006603241,0.010477066,0,
00:05.4,0.000629425,-0.006608963,0.0104599,0,
00:05.4,0.000623703,-0.006626129,0.010471344,0,
00:05.4,0.000617981,-0.006643295,0.010477066,0,
00:05.4,0.000623703,-0.006626129,0.010471344,0,
00:05.4,0.000629425,-0.006608963,0.0104599,0,
00:05.4,0.000635147,-0.006597519,0.0104599,0,
00:05.4,0.000640869,-0.006597519,0.010454178,0,
00:05.4,0.000640869,-0.006597519,0.010454178,0,
00:05.4,0.000640869,-0.006603241,0.010454178,0,
00:05.4,0.000629425,-0.006614685,0.010448456,0,
00:05.4,0.000629425,-0.006626129,0.010442734,0,
00:05.4,0.000623703,-0.006614685,0.010442734,0,
00:05.4,0.000635147,-0.006603241,0.010448456,0,
00:05.4,0.000640869,-0.006603241,0.010454178,0,
00:05.4,0.000646591,-0.006597519,0.010448456,0,
00:05.4,0.000646591,-0.006603241,0.010442734,0,
00:05.4,0.000646591,-0.006614685,0.010437012,0,
00:05.4,0.000635147,-0.006626129,0.010442734,0,
00:05.4,0.000635147,-0.006608963,0.010437012,0,
00:05.4,0.000646591,-0.006597519,0.010437012,0,
00:05.4,0.000646591,-0.006597519,0.010419846,0,
00:05.4,0.000640869,-0.006608963,0.010425568,0,
00:05.4,0.000640869,-0.006608963,0.01043129,0,
00:05.4,0.000646591,-0.006603241,0.010425568,0,
00:05.4,0.000635147,-0.006603241,0.010414124,0,
00:05.5,0.000629425,-0.006614685,0.010414124,0,
00:05.5,0.000646591,-0.006614685,0.010419846,0,
00:05.5,0.000652313,-0.006603241,0.010419846,0,
00:05.5,0.000652313,-0.006591797,0.010419846,0,
00:05.5,0.000652313,-0.006591797,0.010408401,0,
00:05.5,0.000646591,-0.006597519,0.010402679,0,
00:05.5,0.000652313,-0.006597519,0.010414124,0,
00:05.5,0.000646591,-0.006597519,0.010414124,0,
00:05.5,0.000646591,-0.006597519,0.010402679,0,
00:05.5,0.000652313,-0.006597519,0.010408401,0,
00:05.5,0.000646591,-0.006603241,0.010402679,0,
00:05.5,0.000635147,-0.006603241,0.010402679,0,
00:05.5,0.000646591,-0.006614685,0.010402679,0,
00:05.5,0.000646591,-0.006603241,0.010396957,0,
00:05.5,0.000658035,-0.006586075,0.010379791,0,
00:05.5,0.000658035,-0.006580353,0.010379791,0,
00:05.5,0.000658035,-0.006586075,0.010385513,0,
00:05.5,0.000646591,-0.006597519,0.010385513,0,
00:05.5,0.000646591,-0.006603241,0.010379791,0,
00:05.5,0.000652313,-0.006586075,0.010385513,0,
00:05.5,0.000663757,-0.006563187,0.010374069,0,
00:05.5,0.000658035,-0.006580353,0.010374069,0,
00:05.5,0.000658035,-0.006597519,0.010374069,0,
00:05.5,0.000652313,-0.006597519,0.010362625,0,
00:05.5,0.000646591,-0.006603241,0.010362625,0,
00:05.6,0.000646591,-0.006591797,0.010362625,0,
00:05.6,0.000646591,-0.006580353,0.010362625,0,
00:05.6,0.000652313,-0.006586075,0.010362625,0,
00:05.6,0.000658035,-0.006580353,0.010356903,0,
00:05.6,0.000658035,-0.006574631,0.010351181,0,
00:05.6,0.000658035,-0.006580353,0.010345459,0,
00:05.6,0.000663757,-0.006591797,0.010334015,0,
00:05.6,0.000652313,-0.006580353,0.010339737,0,
00:05.6,0.000652313,-0.006568909,0.010334015,0,
00:05.6,0.000652313,-0.006574631,0.010345459,0,
00:05.6,0.000658035,-0.006574631,0.010339737,0,
00:05.6,0.000663757,-0.006574631,0.010328293,0,
00:05.6,0.000658035,-0.006580353,0.010334015,0,
00:05.6,0.000640869,-0.006586075,0.010328293,0,
00:05.6,0.000646591,-0.006586075,0.010328293,0,
00:05.6,0.000658035,-0.006563187,0.010316849,0,
00:05.6,0.000663757,-0.006551743,0.010311127,0,
00:05.6,0.000663757,-0.006557465,0.010311127,0,
00:05.6,0.000652313,-0.006568909,0.010311127,0,
00:05.6,0.000652313,-0.006563187,0.010305405,0,
00:05.6,0.000658035,-0.006557465,0.010305405,0,
00:05.6,0.000652313,-0.006557465,0.010305405,0,
00:05.6,0.000640869,-0.006586075,0.010305405,0,
00:05.6,0.000646591,-0.006591797,0.010293961,0,
00:05.6,0.000669479,-0.006563187,0.010288239,0,
00:05.7,0.000669479,-0.006540298,0.010288239,0,
00:05.7,0.000658035,-0.006546021,0.010282516,0,
00:05.7,0.000646591,-0.006551743,0.010293961,0,
00:05.7,0.000646591,-0.006557465,0.010282516,0,
00:05.7,0.000669479,-0.006557465,0.010271072,0,
00:05.7,0.000663757,-0.006557465,0.010276794,0,
00:05.7,0.000658035,-0.006546021,0.010276794,0,
00:05.7,0.000658035,-0.006551743,0.010276794,0,
00:05.7,0.000652313,-0.006563187,0.010271072,0,
00:05.7,0.000652313,-0.006557465,0.01026535,0,
00:05.7,0.000658035,-0.006546021,0.010259628,0,
00:05.7,0.000658035,-0.006546021,0.010271072,0,
00:05.7,0.000663757,-0.006540298,0.01026535,0,
00:05.7,0.000663757,-0.006534576,0.010259628,0,
00:05.7,0.000663757,-0.006540298,0.010253906,0,
00:05.7,0.000658035,-0.006546021,0.010248184,0,
00:05.7,0.000658035,-0.006546021,0.010253906,0,
00:05.7,0.000658035,-0.006540298,0.010253906,0,
00:05.7,0.000663757,-0.006540298,0.010253906,0,
00:05.7,0.000652313,-0.006557465,0.010242462,0,
00:05.7,0.000640869,-0.006563187,0.010242462,0,
00:05.7,0.000646591,-0.006540298,0.01023674,0,
00:05.7,0.000675201,-0.006523132,0.01023674,0,
00:05.7,0.000669479,-0.006534576,0.010231018,0,
00:05.7,0.000652313,-0.006540298,0.010225296,0,
00:05.8,0.000658035,-0.006534576,0.010231018,0,
00:05.8,0.000658035,-0.006540298,0.01023674,0,
00:05.8,0.000658035,-0.006546021,0.01023674,0,
00:05.8,0.000658035,-0.006546021,0.010231018,0,
00:05.8,0.000658035,-0.006534576,0.010231018,0,
00:05.8,0.000663757,-0.006528854,0.010219574,0,
00:05.8,0.000663757,-0.006534576,0.010213852,0,
00:05.8,0.000658035,-0.006534576,0.010219574,0,
00:05.8,0.000658035,-0.006534576,0.01023674,0,
00:05.8,0.000658035,-0.006534576,0.010225296,0,
00:05.8,0.000658035,-0.006540298,0.010213852,0,
00:05.8,0.000652313,-0.006534576,0.010213852,0,
00:05.8,0.000675201,-0.006534576,0.010213852,0,
00:05.8,0.000669479,-0.006534576,0.01020813,0,
00:05.8,0.000663757,-0.006523132,0.010202408,0,
00:05.8,0.000663757,-0.00651741,0.010196686,0,
00:05.8,0.000663757,-0.006523132,0.010202408,0,
00:05.8,0.000669479,-0.006523132,0.01020813,0,
00:05.8,0.000669479,-0.006523132,0.01020813,0,
00:05.8,0.000663757,-0.006523132,0.010196686,0,
00:05.8,0.000658035,-0.006523132,0.010190964,0,
00:05.8,0.000658035,-0.00651741,0.010196686,0,
00:05.8,0.000663757,-0.00651741,0.010196686,0,
00:05.8,0.000658035,-0.00651741,0.010190964,0,
00:05.8,0.000669479,-0.006511688,0.010185242,0,
00:05.9,0.000663757,-0.006511688,0.010190964,0,
00:05.9,0.000658035,-0.00651741,0.010196686,0,
00:05.9,0.000646591,-0.00651741,0.010196686,0,
00:05.9,0.000640869,-0.006540298,0.010196686,0,
00:05.9,0.000658035,-0.006551743,0.01017952,0,
00:05.9,0.000675201,-0.006523132,0.010173798,0,
00:05.9,0.000675201,-0.006511688,0.01017952,0,
00:05.9,0.000658035,-0.006523132,0.010190964,0,
00:05.9,0.000663757,-0.00651741,0.010190964,0,
00:05.9,0.000663757,-0.006511688,0.01017952,0,
00:05.9,0.000669479,-0.00651741,0.010173798,0,
00:05.9,0.000663757,-0.00651741,0.010173798,0,
00:05.9,0.000663757,-0.00651741,0.010173798,0,
00:05.9,0.000652313,-0.006523132,0.010173798,0,
00:05.9,0.000652313,-0.006528854,0.010168076,0,
00:05.9,0.000652313,-0.006523132,0.010173798,0,
00:05.9,0.000663757,-0.006505966,0.010168076,0,
00:05.9,0.000663757,-0.006511688,0.010173798,0,
00:05.9,0.000663757,-0.006511688,0.010162354,0,
00:05.9,0.000658035,-0.006511688,0.010162354,0,
00:05.9,0.000652313,-0.00651741,0.010162354,0,
00:05.9,0.000652313,-0.00651741,0.010168076,0,
00:05.9,0.000658035,-0.00651741,0.010168076,0,
00:05.9,0.000658035,-0.006511688,0.010168076,0,
00:05.9,0.000652313,-0.006505966,0.010173798,0,
00:06.0,0.000658035,-0.00651741,0.010168076,0,
00:06.0,0.000652313,-0.006528854,0.010168076,0,
00:06.0,0.000646591,-0.006528854,0.010156631,0,
00:06.0,0.000652313,-0.006511688,0.010168076,0,
00:06.0,0.000652313,-0.006500244,0.010173798,0,
00:06.0,0.000658035,-0.00651741,0.010162354,0,
00:06.0,0.000646591,-0.006523132,0.010162354,0,
00:06.0,0.000646591,-0.00651741,0.010162354,0,
00:06.0,0.000646591,-0.006523132,0.010162354,0,
00:06.0,0.000652313,-0.006523132,0.010162354,0,
00:06.0,0.000646591,-0.006523132,0.010156631,0,
00:06.0,0.000652313,-0.006511688,0.010162354,0,
00:00:06,0.000646591,-0.006528854,0.010156631,0,
00:06.0,0.000646591,-0.006523132,0.010168076,0,
00:06.0,0.000652313,-0.006500244,0.010162354,0,
00:06.0,0.000658035,-0.006494522,0.010150909,0,
00:06.0,0.000658035,-0.006511688,0.010156631,0,
00:06.0,0.000652313,-0.00651741,0.010156631,0,
00:06.0,0.000646591,-0.00651741,0.010162354,0,
00:06.0,0.000652313,-0.006511688,0.010168076,0,
00:06.0,0.000646591,-0.00651741,0.010162354,0,
00:06.0,0.000640869,-0.00651741,0.010162354,0,
00:06.0,0.000646591,-0.00651741,0.010162354,0,
00:06.0,0.000658035,-0.00651741,0.010156631,0,
00:06.0,0.000652313,-0.006511688,0.010150909,0,
00:06.1,0.000658035,-0.006505966,0.010150909,0,
00:06.1,0.000658035,-0.006511688,0.010150909,0,
00:06.1,0.000646591,-0.006511688,0.010139465,0,
00:06.1,0.000652313,-0.006505966,0.010168076,0,
00:06.1,0.000640869,-0.00651741,0.010168076,0,
00:06.1,0.000646591,-0.006528854,0.010162354,0,
00:06.1,0.000646591,-0.006523132,0.010162354,0,
00:06.1,0.000646591,-0.00651741,0.010162354,0,
00:06.1,0.000658035,-0.006505966,0.010156631,0,
00:06.1,0.000663757,-0.006500244,0.010162354,0,
00:06.1,0.000652313,-0.00651741,0.010162354,0,
00:06.1,0.000646591,-0.00651741,0.010162354,0,
00:06.1,0.000652313,-0.006505966,0.010156631,0,
00:06.1,0.000658035,-0.006500244,0.010156631,0,
00:06.1,0.000658035,-0.006500244,0.010156631,0,
00:06.1,0.000658035,-0.006511688,0.010162354,0,
00:06.1,0.000646591,-0.006523132,0.010168076,0,
00:06.1,0.000646591,-0.006523132,0.010162354,0,
00:06.1,0.000646591,-0.006511688,0.010168076,0,
00:06.1,0.000640869,-0.006500244,0.010162354,0,
00:06.1,0.000663757,-0.006505966,0.010156631,0,
00:06.1,0.000658035,-0.006511688,0.010162354,0,
00:06.1,0.000646591,-0.00651741,0.010168076,0,
00:06.1,0.000640869,-0.006511688,0.010168076,0,
00:06.1,0.000652313,-0.006505966,0.010162354,0,
00:06.2,0.000646591,-0.006505966,0.010162354,0,
00:06.2,0.000652313,-0.006511688,0.010150909,0,
00:06.2,0.000652313,-0.006505966,0.010162354,0,
00:06.2,0.000646591,-0.006505966,0.010185242,0,
00:06.2,0.000646591,-0.006511688,0.010173798,0,
00:06.2,0.000646591,-0.00651741,0.010168076,0,
00:06.2,0.000652313,-0.006511688,0.01017952,0,
00:06.2,0.000640869,-0.006505966,0.010173798,0,
00:06.2,0.000658035,-0.006505966,0.010168076,0,
00:06.2,0.000658035,-0.006505966,0.010168076,0,
00:06.2,0.000652313,-0.006511688,0.010173798,0,
00:06.2,0.000646591,-0.006511688,0.010173798,0,
00:06.2,0.000646591,-0.006500244,0.010173798,0,
00:06.2,0.000646591,-0.006500244,0.010173798,0,
00:06.2,0.000658035,-0.006505966,0.010173798,0,
00:06.2,0.000652313,-0.006511688,0.010168076,0,
00:06.2,0.000652313,-0.006494522,0.010168076,0,
00:06.2,0.000652313,-0.006494522,0.010168076,0,
00:06.2,0.000646591,-0.006528854,0.010173798,0,
00:06.2,0.000652313,-0.006534576,0.010168076,0,
00:06.2,0.000658035,-0.006505966,0.010173798,0,
00:06.2,0.000658035,-0.006505966,0.010185242,0,
00:06.2,0.000652313,-0.00651741,0.010190964,0,
00:06.2,0.000652313,-0.006511688,0.010190964,0,
00:06.2,0.000658035,-0.006500244,0.01017952,0,
00:06.3,0.000658035,-0.006500244,0.010173798,0,
00:06.3,0.000658035,-0.006500244,0.010196686,0,
00:06.3,0.000658035,-0.006505966,0.010196686,0,
00:06.3,0.000663757,-0.006505966,0.010185242,0,
00:06.3,0.000646591,-0.00651741,0.010190964,0,
00:06.3,0.000652313,-0.006505966,0.010196686,0,
00:06.3,0.000658035,-0.006500244,0.010190964,0,
00:06.3,0.000658035,-0.006505966,0.010190964,0,
00:06.3,0.000658035,-0.006505966,0.010196686,0,
00:06.3,0.000658035,-0.006511688,0.010196686,0,
00:06.3,0.000663757,-0.00651741,0.010196686,0,
00:06.3,0.000663757,-0.006511688,0.010196686,0,
00:06.3,0.000663757,-0.006494522,0.010202408,0,
00:06.3,0.000658035,-0.0064888,0.01020813,0,
00:06.3,0.000669479,-0.006500244,0.010202408,0,
00:06.3,0.000663757,-0.006511688,0.010196686,0,
00:06.3,0.000658035,-0.006523132,0.01020813,0,
00:06.3,0.000658035,-0.006523132,0.01020813,0,
00:06.3,0.000663757,-0.006511688,0.01020813,0,
00:06.3,0.000669479,-0.006494522,0.01020813,0,
00:06.3,0.000680923,-0.006500244,0.01020813,0,
00:06.3,0.000669479,-0.006500244,0.01020813,0,
00:06.3,0.000675201,-0.006500244,0.01020813,0,
00:06.3,0.000663757,-0.00651741,0.01020813,0,
00:06.3,0.000658035,-0.006523132,0.01020813,0,
00:06.4,0.000658035,-0.006505966,0.010190964,0,
00:06.4,0.000669479,-0.006500244,0.01020813,0,
00:06.4,0.000669479,-0.006500244,0.010225296,0,
00:06.4,0.000675201,-0.006500244,0.010213852,0,
00:06.4,0.000669479,-0.006500244,0.010213852,0,
00:06.4,0.000669479,-0.006500244,0.010213852,0,
00:06.4,0.000669479,-0.006500244,0.010213852,0,
00:06.4,0.000669479,-0.006511688,0.010213852,0,
00:06.4,0.000669479,-0.006500244,0.010219574,0,
00:06.4,0.000669479,-0.006500244,0.01023674,0,
00:06.4,0.000663757,-0.006511688,0.010225296,0,
00:06.4,0.000675201,-0.006511688,0.010219574,0,
00:06.4,0.000675201,-0.006505966,0.01023674,0,
00:06.4,0.000669479,-0.006500244,0.01023674,0,
00:06.4,0.000669479,-0.006500244,0.010231018,0,
00:06.4,0.000686646,-0.006505966,0.010225296,0,
00:06.4,0.000680923,-0.00651741,0.010225296,0,
00:06.4,0.000680923,-0.00651741,0.010231018,0,
00:06.4,0.000686646,-0.006500244,0.010242462,0,
00:06.4,0.000692368,-0.006500244,0.01023674,0,
00:06.4,0.000675201,-0.006505966,0.01023674,0,
00:06.4,0.000675201,-0.006505966,0.01023674,0,
00:06.4,0.000675201,-0.006505966,0.010242462,0,
00:06.4,0.000675201,-0.006511688,0.01023674,0,
00:06.4,0.000675201,-0.006505966,0.01023674,0,
00:06.5,0.000692368,-0.006494522,0.010231018,0,
00:06.5,0.000686646,-0.006500244,0.01023674,0,
00:06.5,0.000686646,-0.006494522,0.010248184,0,
00:06.5,0.000680923,-0.006494522,0.010248184,0,
00:06.5,0.000680923,-0.006505966,0.01023674,0,
00:06.5,0.000675201,-0.006523132,0.010225296,0,
00:06.5,0.000669479,-0.00651741,0.010259628,0,
00:06.5,0.000680923,-0.006500244,0.010271072,0,
00:06.5,0.000692368,-0.006494522,0.010259628,0,
00:06.5,0.000686646,-0.006494522,0.010248184,0,
00:06.5,0.00069809,-0.006500244,0.010248184,0,
00:06.5,0.000692368,-0.006500244,0.010248184,0,
00:06.5,0.000686646,-0.006500244,0.010253906,0,
00:06.5,0.000680923,-0.006494522,0.010253906,0,
00:06.5,0.000692368,-0.006494522,0.010253906,0,
00:06.5,0.000686646,-0.00651741,0.010259628,0,
00:06.5,0.000680923,-0.006523132,0.010259628,0,
00:06.5,0.000675201,-0.00651741,0.01026535,0,
00:06.5,0.000686646,-0.006505966,0.01026535,0,
00:06.5,0.000692368,-0.0064888,0.01026535,0,
00:06.5,0.000692368,-0.006494522,0.01026535,0,
00:06.5,0.000692368,-0.006500244,0.01026535,0,
00:06.5,0.000692368,-0.006500244,0.01026535,0,
00:06.5,0.00069809,-0.006500244,0.010271072,0,
00:06.5,0.000692368,-0.006511688,0.01026535,0,
00:06.6,0.000680923,-0.006505966,0.01026535,0,
00:06.6,0.000680923,-0.006505966,0.01026535,0,
00:06.6,0.000692368,-0.006494522,0.010271072,0,
00:06.6,0.000703812,-0.006483078,0.010282516,0,
00:06.6,0.00069809,-0.006494522,0.010276794,0,
00:06.6,0.00069809,-0.006500244,0.010271072,0,
00:06.6,0.000692368,-0.006500244,0.010271072,0,
00:06.6,0.000692368,-0.006500244,0.010288239,0,
00:06.6,0.00069809,-0.006505966,0.010282516,0,
00:06.6,0.00069809,-0.006511688,0.010276794,0,
00:06.6,0.000692368,-0.006500244,0.010282516,0,
00:06.6,0.000692368,-0.006494522,0.010276794,0,
00:06.6,0.000692368,-0.0064888,0.010276794,0,
00:06.6,0.000703812,-0.006483078,0.010293961,0,
00:06.6,0.000703812,-0.006494522,0.010288239,0,
00:06.6,0.000709534,-0.006500244,0.010282516,0,
00:06.6,0.00069809,-0.006505966,0.010288239,0,
00:06.6,0.000692368,-0.006511688,0.010293961,0,
00:06.6,0.00069809,-0.006500244,0.010293961,0,
00:06.6,0.00069809,-0.0064888,0.010288239,0,
00:06.6,0.000703812,-0.006494522,0.010276794,0,
00:06.6,0.000703812,-0.006505966,0.010288239,0,
00:06.6,0.00069809,-0.006511688,0.010299683,0,
00:06.6,0.000703812,-0.0064888,0.010299683,0,
00:06.6,0.000709534,-0.006483078,0.010299683,0,
00:06.7,0.00069809,-0.006511688,0.010293961,0,
00:06.7,0.00069809,-0.00651741,0.010299683,0,
00:06.7,0.000709534,-0.006500244,0.010305405,0,
00:06.7,0.000709534,-0.006494522,0.010299683,0,
00:06.7,0.000703812,-0.006494522,0.010293961,0,
00:06.7,0.000703812,-0.006494522,0.010299683,0,
00:06.7,0.000709534,-0.006494522,0.010299683,0,
00:06.7,0.000703812,-0.006500244,0.010311127,0,
00:06.7,0.000709534,-0.006500244,0.010316849,0,
00:06.7,0.000709534,-0.006494522,0.010305405,0,
00:06.7,0.000709534,-0.006494522,0.010311127,0,
00:06.7,0.000709534,-0.006500244,0.010311127,0,
00:06.7,0.000715256,-0.006494522,0.010311127,0,
00:06.7,0.000709534,-0.006483078,0.010311127,0,
00:06.7,0.000715256,-0.006477356,0.010305405,0,
00:06.7,0.000709534,-0.006500244,0.010316849,0,
00:06.7,0.000709534,-0.00651741,0.010311127,0,
00:06.7,0.00069809,-0.006505966,0.010311127,0,
00:06.7,0.000709534,-0.006483078,0.010322571,0,
00:06.7,0.000715256,-0.006483078,0.010316849,0,
00:06.7,0.000709534,-0.006494522,0.010311127,0,
00:06.7,0.000709534,-0.006494522,0.010322571,0,
00:06.7,0.000709534,-0.0064888,0.010322571,0,
00:06.7,0.000715256,-0.0064888,0.010322571,0,
00:06.7,0.000703812,-0.006494522,0.010316849,0,
00:06.8,0.000709534,-0.006494522,0.010316849,0,
00:06.8,0.000715256,-0.006483078,0.010322571,0,
00:06.8,0.000720978,-0.006483078,0.010316849,0,
00:06.8,0.000720978,-0.006477356,0.010322571,0,
00:06.8,0.000720978,-0.006477356,0.010322571,0,
00:06.8,0.000715256,-0.006494522,0.010328293,0,
00:06.8,0.000715256,-0.006505966,0.010328293,0,
00:06.8,0.000709534,-0.006494522,0.010328293,0,
00:06.8,0.000709534,-0.0064888,0.010328293,0,
00:06.8,0.000720978,-0.006494522,0.010316849,0,
00:06.8,0.000715256,-0.006505966,0.010322571,0,
00:06.8,0.000715256,-0.006494522,0.010339737,0,
00:06.8,0.000720978,-0.006471634,0.010345459,0,
00:06.8,0.000720978,-0.006483078,0.010345459,0,
00:06.8,0.000715256,-0.006500244,0.010334015,0,
00:06.8,0.0007267,-0.006483078,0.010334015,0,
00:06.8,0.000738144,-0.006477356,0.010334015,0,
00:06.8,0.000732422,-0.0064888,0.010345459,0,
00:06.8,0.000715256,-0.0064888,0.010339737,0,
00:06.8,0.000715256,-0.0064888,0.010339737,0,
00:06.8,0.000720978,-0.0064888,0.010334015,0,
00:06.8,0.000709534,-0.006494522,0.010339737,0,
00:06.8,0.000709534,-0.0064888,0.010345459,0,
00:06.8,0.000720978,-0.006477356,0.010339737,0,
00:06.8,0.000732422,-0.006477356,0.010334015,0,
00:06.9,0.000732422,-0.006477356,0.010339737,0,
00:06.9,0.0007267,-0.006477356,0.010339737,0,
00:06.9,0.000720978,-0.0064888,0.010345459,0,
00:06.9,0.0007267,-0.0064888,0.010345459,0,
00:06.9,0.000720978,-0.006494522,0.010334015,0,
00:06.9,0.000720978,-0.0064888,0.010339737,0,
00:06.9,0.000720978,-0.006494522,0.010345459,0,
00:06.9,0.0007267,-0.006505966,0.010345459,0,
00:06.9,0.000720978,-0.006494522,0.010351181,0,
00:06.9,0.000715256,-0.0064888,0.010351181,0,
00:06.9,0.000720978,-0.006477356,0.010345459,0,
00:06.9,0.000738144,-0.006454468,0.010356903,0,
00:06.9,0.000738144,-0.006465912,0.010356903,0,
00:06.9,0.000732422,-0.006483078,0.010351181,0,
00:06.9,0.000720978,-0.0064888,0.010345459,0,
00:06.9,0.0007267,-0.006483078,0.010345459,0,
00:06.9,0.0007267,-0.006483078,0.010351181,0,
00:06.9,0.000738144,-0.006477356,0.010362625,0,
00:06.9,0.0007267,-0.006477356,0.010356903,0,
00:06.9,0.0007267,-0.0064888,0.010351181,0,
00:06.9,0.0007267,-0.006494522,0.010345459,0,
00:06.9,0.0007267,-0.0064888,0.010356903,0,
00:06.9,0.000720978,-0.006483078,0.010356903,0,
00:06.9,0.000732422,-0.0064888,0.010351181,0,
00:06.9,0.000732422,-0.0064888,0.010345459,0,
00:07.0,0.0007267,-0.006477356,0.010356903,0,
00:07.0,0.000732422,-0.006477356,0.010362625,0,
00:07.0,0.0007267,-0.006471634,0.010362625,0,
00:07.0,0.000738144,-0.006471634,0.010362625,0,
00:07.0,0.0007267,-0.006477356,0.010356903,0,
00:07.0,0.000732422,-0.006483078,0.010356903,0,
00:07.0,0.000738144,-0.006477356,0.010362625,0,
00:07.0,0.000738144,-0.006471634,0.010362625,0,
00:07.0,0.000738144,-0.006477356,0.010368347,0,
00:07.0,0.000732422,-0.006477356,0.010356903,0,
00:07.0,0.000732422,-0.006471634,0.010368347,0,
00:07.0,0.000738144,-0.006465912,0.010362625,0,
00:00:07,0.000732422,-0.006471634,0.010374069,0,
00:07.0,0.0007267,-0.006477356,0.010368347,0,
00:07.0,0.0007267,-0.006483078,0.010356903,0,
00:07.0,0.000732422,-0.006477356,0.010356903,0,
00:07.0,0.000743866,-0.006471634,0.010356903,0,
00:07.0,0.000738144,-0.006483078,0.010356903,0,
00:07.0,0.0007267,-0.006494522,0.010368347,0,
00:07.0,0.000732422,-0.006483078,0.010368347,0,
00:07.0,0.000738144,-0.006471634,0.010368347,0,
00:07.0,0.000743866,-0.00646019,0.010368347,0,
00:07.0,0.000749588,-0.006454468,0.010362625,0,
00:07.0,0.000738144,-0.006465912,0.010374069,0,
00:07.0,0.000738144,-0.006471634,0.010368347,0,
00:07.1,0.000738144,-0.006477356,0.010368347,0,
00:07.1,0.000738144,-0.0064888,0.010368347,0,
00:07.1,0.000738144,-0.0064888,0.010362625,0,
00:07.1,0.000743866,-0.00646019,0.010374069,0,
00:07.1,0.000738144,-0.006454468,0.010362625,0,
00:07.1,0.000738144,-0.006454468,0.010362625,0,
00:07.1,0.000738144,-0.00646019,0.010362625,0,
00:07.1,0.000738144,-0.006471634,0.010368347,0,
00:07.1,0.000738144,-0.006477356,0.010374069,0,
00:07.1,0.0007267,-0.006494522,0.010362625,0,
00:07.1,0.000732422,-0.006505966,0.010368347,0,
00:07.1,0.000743866,-0.006483078,0.010374069,0,
00:07.1,0.000743866,-0.00646019,0.010374069,0,
00:07.1,0.000749588,-0.006448746,0.010374069,0,
00:07.1,0.000743866,-0.006448746,0.010368347,0,
00:07.1,0.000743866,-0.00646019,0.010356903,0,
00:07.1,0.000743866,-0.006465912,0.010374069,0,
00:07.1,0.000743866,-0.006477356,0.010374069,0,
00:07.1,0.000738144,-0.006477356,0.010362625,0,
00:07.1,0.000743866,-0.006465912,0.010362625,0,
00:07.1,0.000749588,-0.006465912,0.010374069,0,
00:07.1,0.000749588,-0.006465912,0.010374069,0,
00:07.1,0.000749588,-0.006471634,0.010374069,0,
00:07.1,0.000738144,-0.006477356,0.010374069,0,
00:07.1,0.000743866,-0.006465912,0.010368347,0,
00:07.2,0.000743866,-0.006465912,0.010368347,0,
00:07.2,0.000738144,-0.00646019,0.010368347,0,
00:07.2,0.000743866,-0.006471634,0.010374069,0,
00:07.2,0.000738144,-0.006465912,0.010374069,0,
00:07.2,0.00075531,-0.00646019,0.010368347,0,
00:07.2,0.000738144,-0.006471634,0.010368347,0,
00:07.2,0.000738144,-0.006483078,0.010374069,0,
00:07.2,0.000743866,-0.00646019,0.010385513,0,
00:07.2,0.00075531,-0.006448746,0.010379791,0,
00:07.2,0.000749588,-0.006454468,0.010374069,0,
00:07.2,0.000749588,-0.00646019,0.010368347,0,
00:07.2,0.000743866,-0.006465912,0.010374069,0,
00:07.2,0.000749588,-0.006465912,0.010368347,0,
00:07.2,0.000749588,-0.006454468,0.010374069,0,
00:07.2,0.000743866,-0.00646019,0.010379791,0,
00:07.2,0.000749588,-0.00646019,0.010374069,0,
00:07.2,0.000749588,-0.00646019,0.010374069,0,
00:07.2,0.000743866,-0.006465912,0.010379791,0,
00:07.2,0.000743866,-0.006471634,0.010374069,0,
00:07.2,0.000743866,-0.006471634,0.010368347,0,
00:07.2,0.000738144,-0.00646019,0.010379791,0,
00:07.2,0.000738144,-0.006465912,0.010385513,0,
00:07.2,0.000743866,-0.00646019,0.010385513,0,
00:07.2,0.000749588,-0.00646019,0.010379791,0,
00:07.2,0.000743866,-0.006454468,0.010374069,0,
00:07.3,0.000743866,-0.006443024,0.010374069,0,
00:07.3,0.000743866,-0.00646019,0.010368347,0,
00:07.3,0.000738144,-0.006465912,0.010362625,0,
00:07.3,0.000743866,-0.00646019,0.010379791,0,
00:07.3,0.000743866,-0.006465912,0.010385513,0,
00:07.3,0.000738144,-0.006465912,0.010374069,0,
00:07.3,0.000749588,-0.006448746,0.010374069,0,
00:07.3,0.00075531,-0.006448746,0.010379791,0,
00:07.3,0.000749588,-0.006443024,0.010368347,0,
00:07.3,0.000749588,-0.006443024,0.010374069,0,
00:07.3,0.000738144,-0.006454468,0.010379791,0,
00:07.3,0.000749588,-0.006448746,0.010379791,0,
00:07.3,0.000749588,-0.006448746,0.010374069,0,
00:07.3,0.000743866,-0.00646019,0.010379791,0,
00:07.3,0.000743866,-0.006465912,0.010374069,0,
00:07.3,0.000738144,-0.006465912,0.010362625,0,
00:07.3,0.000738144,-0.006448746,0.010379791,0,
00:07.3,0.000749588,-0.006454468,0.010379791,0,
00:07.3,0.000749588,-0.006448746,0.010374069,0,
00:07.3,0.000749588,-0.006437302,0.010362625,0,
00:07.3,0.000743866,-0.006448746,0.010368347,0,
00:07.3,0.000749588,-0.006448746,0.010368347,0,
00:07.3,0.000749588,-0.006443024,0.010368347,0,
00:07.3,0.000749588,-0.006443024,0.010368347,0,
00:07.3,0.000749588,-0.006448746,0.010362625,0,
00:07.4,0.000738144,-0.006448746,0.010356903,0,
00:07.4,0.000749588,-0.006454468,0.010368347,0,
00:07.4,0.000743866,-0.00646019,0.010379791,0,
00:07.4,0.000732422,-0.006454468,0.010374069,0,
00:07.4,0.000743866,-0.006437302,0.010368347,0,
00:07.4,0.000749588,-0.006437302,0.010362625,0,
00:07.4,0.00075531,-0.006448746,0.010368347,0,
00:07.4,0.00075531,-0.006448746,0.010368347,0,
00:07.4,0.000743866,-0.006454468,0.010356903,0,
00:07.4,0.000738144,-0.006465912,0.010362625,0,
00:07.4,0.000738144,-0.006471634,0.010362625,0,
00:07.4,0.000743866,-0.00646019,0.010368347,0,
00:07.4,0.000743866,-0.006437302,0.010362625,0,
00:07.4,0.000749588,-0.006425858,0.010368347,0,
00:07.4,0.000749588,-0.006437302,0.010368347,0,
00:07.4,0.000743866,-0.006454468,0.010356903,0,
00:07.4,0.000743866,-0.006448746,0.010362625,0,
00:07.4,0.000732422,-0.00643158,0.010362625,0,
00:07.4,0.00075531,-0.00643158,0.010356903,0,
00:07.4,0.00075531,-0.006437302,0.010356903,0,
00:07.4,0.00075531,-0.006454468,0.010356903,0,
00:07.4,0.000738144,-0.00646019,0.010362625,0,
00:07.4,0.000738144,-0.006454468,0.010356903,0,
00:07.4,0.000749588,-0.00643158,0.010368347,0,
00:07.4,0.00075531,-0.006420135,0.010362625,0,
00:07.5,0.00075531,-0.006425858,0.010356903,0,
00:07.5,0.00075531,-0.006437302,0.010356903,0,
00:07.5,0.00075531,-0.006448746,0.010362625,0,
00:07.5,0.000749588,-0.006437302,0.010356903,0,
00:07.5,0.000749588,-0.006437302,0.010351181,0,
00:07.5,0.00075531,-0.006448746,0.010356903,0,
00:07.5,0.000749588,-0.006454468,0.010362625,0,
00:07.5,0.000743866,-0.006443024,0.010362625,0,
00:07.5,0.000738144,-0.006437302,0.010362625,0,
00:07.5,0.000749588,-0.006437302,0.010351181,0,
00:07.5,0.000743866,-0.006443024,0.010339737,0,
00:07.5,0.000749588,-0.006437302,0.010345459,0,
00:07.5,0.000761032,-0.006425858,0.010368347,0,
00:07.5,0.00075531,-0.006425858,0.010362625,0,
00:07.5,0.000749588,-0.00643158,0.010351181,0,
00:07.5,0.00075531,-0.006437302,0.010351181,0,
00:07.5,0.000749588,-0.006437302,0.010356903,0,
00:07.5,0.000743866,-0.006443024,0.010356903,0,
00:07.5,0.000743866,-0.006448746,0.010356903,0,
00:07.5,0.00075531,-0.00643158,0.010345459,0,
00:07.5,0.000749588,-0.006420135,0.010345459,0,
00:07.5,0.000761032,-0.00643158,0.010351181,0,
00:07.5,0.000749588,-0.00643158,0.010356903,0,
00:07.5,0.000749588,-0.00643158,0.010356903,0,
00:07.5,0.000749588,-0.006437302,0.010345459,0,
00:07.6,0.000749588,-0.006425858,0.010345459,0,
00:07.6,0.00075531,-0.006425858,0.010345459,0,
00:07.6,0.00075531,-0.00643158,0.010351181,0,
00:07.6,0.000749588,-0.00643158,0.010345459,0,
00:07.6,0.000761032,-0.006420135,0.010339737,0,
00:07.6,0.000772476,-0.006414413,0.010345459,0,
00:07.6,0.00075531,-0.006414413,0.010345459,0,
00:07.6,0.000738144,-0.006425858,0.010351181,0,
00:07.6,0.000749588,-0.006420135,0.010339737,0,
00:07.6,0.000761032,-0.006425858,0.010334015,0,
00:07.6,0.00075531,-0.006437302,0.010345459,0,
00:07.6,0.000749588,-0.006443024,0.010345459,0,
00:07.6,0.000743866,-0.006437302,0.010351181,0,
00:07.6,0.00075531,-0.00643158,0.010345459,0,
00:07.6,0.000761032,-0.006414413,0.010334015,0,
00:07.6,0.00075531,-0.006414413,0.010334015,0,
00:07.6,0.00075531,-0.006420135,0.010339737,0,
00:07.6,0.00075531,-0.006420135,0.010339737,0,
00:07.6,0.00075531,-0.006420135,0.010334015,0,
00:07.6,0.000749588,-0.006425858,0.010334015,0,
00:07.6,0.000749588,-0.00643158,0.010334015,0,
00:07.6,0.00075531,-0.00643158,0.010334015,0,
00:07.6,0.000749588,-0.006420135,0.010339737,0,
00:07.6,0.000749588,-0.006408691,0.010345459,0,
00:07.6,0.000743866,-0.006414413,0.010334015,0,
00:07.7,0.000732422,-0.006425858,0.010334015,0,
00:07.7,0.00075531,-0.006414413,0.010334015,0,
00:07.7,0.000761032,-0.006402969,0.010345459,0,
00:07.7,0.000772476,-0.006397247,0.010339737,0,
00:07.7,0.000772476,-0.006414413,0.010334015,0,
00:07.7,0.000743866,-0.00643158,0.010322571,0,
00:07.7,0.000743866,-0.00643158,0.010328293,0,
00:07.7,0.000749588,-0.006425858,0.010339737,0,
00:07.7,0.00075531,-0.006420135,0.010334015,0,
00:07.7,0.000761032,-0.006414413,0.010322571,0,
00:07.7,0.00075531,-0.006408691,0.010328293,0,
00:07.7,0.00075531,-0.006414413,0.010328293,0,
00:07.7,0.00075531,-0.006414413,0.010328293,0,
00:07.7,0.000749588,-0.006425858,0.010334015,0,
00:07.7,0.000743866,-0.00643158,0.010328293,0,
00:07.7,0.000749588,-0.006414413,0.010322571,0,
00:07.7,0.00075531,-0.006408691,0.010334015,0,
00:07.7,0.00075531,-0.006420135,0.010334015,0,
00:07.7,0.00075531,-0.006408691,0.010328293,0,
00:07.7,0.000761032,-0.006397247,0.010316849,0,
00:07.7,0.00075531,-0.006408691,0.010328293,0,
00:07.7,0.000749588,-0.006420135,0.010334015,0,
00:07.7,0.00075531,-0.006414413,0.010328293,0,
00:07.7,0.00075531,-0.006408691,0.010328293,0,
00:07.7,0.00075531,-0.006408691,0.010322571,0,
00:07.8,0.000749588,-0.006414413,0.010311127,0,
00:07.8,0.00075531,-0.006414413,0.010322571,0,
00:07.8,0.000749588,-0.006414413,0.010334015,0,
00:07.8,0.000749588,-0.006420135,0.010328293,0,
00:07.8,0.00075531,-0.006414413,0.010311127,0,
00:07.8,0.000761032,-0.006397247,0.010316849,0,
00:07.8,0.000761032,-0.006397247,0.010322571,0,
00:07.8,0.000749588,-0.006408691,0.010322571,0,
00:07.8,0.00075531,-0.006408691,0.010316849,0,
00:07.8,0.00075531,-0.006408691,0.010322571,0,
00:07.8,0.00075531,-0.006408691,0.010316849,0,
00:07.8,0.000743866,-0.006402969,0.010322571,0,
00:07.8,0.000749588,-0.006402969,0.010328293,0,
00:07.8,0.000761032,-0.006391525,0.010328293,0,
00:07.8,0.000761032,-0.006397247,0.010322571,0,
00:07.8,0.00075531,-0.006397247,0.010316849,0,
00:07.8,0.00075531,-0.006402969,0.010322571,0,
00:07.8,0.000749588,-0.006397247,0.010316849,0,
00:07.8,0.00075531,-0.006391525,0.010311127,0,
00:07.8,0.000761032,-0.006391525,0.010322571,0,
00:07.8,0.00075531,-0.006408691,0.010305405,0,
00:07.8,0.000738144,-0.006408691,0.010311127,0,
00:07.8,0.000761032,-0.006402969,0.010322571,0,
00:07.8,0.000749588,-0.006414413,0.010322571,0,
00:07.8,0.000743866,-0.006408691,0.010316849,0,
00:07.9,0.000749588,-0.006402969,0.010316849,0,
00:07.9,0.00075531,-0.006397247,0.010316849,0,
00:07.9,0.00075531,-0.006397247,0.010311127,0,
00:07.9,0.00075531,-0.006397247,0.010316849,0,
00:07.9,0.000766754,-0.006391525,0.010305405,0,
00:07.9,0.000761032,-0.006391525,0.010305405,0,
00:07.9,0.000749588,-0.006408691,0.010305405,0,
00:07.9,0.000749588,-0.006414413,0.010316849,0,
00:07.9,0.000743866,-0.006402969,0.010316849,0,
00:07.9,0.000749588,-0.006397247,0.010311127,0,
00:07.9,0.00075531,-0.006397247,0.010299683,0,
00:07.9,0.000761032,-0.006391525,0.010311127,0,
00:07.9,0.000761032,-0.006397247,0.010311127,0,
00:07.9,0.000761032,-0.006402969,0.010311127,0,
00:07.9,0.000743866,-0.006380081,0.010299683,0,
00:07.9,0.000761032,-0.006368637,0.010305405,0,
00:07.9,0.000761032,-0.006385803,0.010316849,0,
00:07.9,0.000761032,-0.006397247,0.010311127,0,
00:07.9,0.000749588,-0.006397247,0.010305405,0,
00:07.9,0.000749588,-0.006397247,0.010299683,0,
00:07.9,0.00075531,-0.006397247,0.010293961,0,
00:07.9,0.00075531,-0.006391525,0.010305405,0,
00:07.9,0.00075531,-0.006391525,0.010311127,0,
00:07.9,0.00075531,-0.006385803,0.010299683,0,
00:07.9,0.00075531,-0.006385803,0.010293961,0,
00:08.0,0.000772476,-0.006391525,0.010299683,0,
00:08.0,0.000766754,-0.006391525,0.010299683,0,
00:08.0,0.000749588,-0.006408691,0.010293961,0,
00:08.0,0.000738144,-0.006408691,0.010305405,0,
00:08.0,0.000743866,-0.006391525,0.010299683,0,
00:08.0,0.000761032,-0.006380081,0.010293961,0,
00:08.0,0.00075531,-0.006385803,0.010299683,0,
00:08.0,0.000761032,-0.006380081,0.010299683,0,
00:08.0,0.00075531,-0.006380081,0.010299683,0,
00:08.0,0.000761032,-0.006380081,0.010293961,0,
00:08.0,0.000749588,-0.006391525,0.010293961,0,
00:08.0,0.000749588,-0.006402969,0.010299683,0,
00:00:08,0.000743866,-0.006397247,0.010299683,0,
00:08.0,0.00075531,-0.006391525,0.010299683,0,
00:08.0,0.000761032,-0.006391525,0.010293961,0,
00:08.0,0.000761032,-0.006385803,0.010293961,0,
00:08.0,0.00075531,-0.006385803,0.010293961,0,
00:08.0,0.000749588,-0.006391525,0.010293961,0,
00:08.0,0.000749588,-0.006391525,0.010293961,0,
00:08.0,0.00075531,-0.006391525,0.010282516,0,
00:08.0,0.00075531,-0.006385803,0.010288239,0,
00:08.0,0.00075531,-0.006385803,0.010293961,0,
00:08.0,0.000749588,-0.006385803,0.010288239,0,
00:08.0,0.000749588,-0.006380081,0.010288239,0,
00:08.0,0.000749588,-0.006391525,0.010282516,0,
00:08.1,0.000761032,-0.006385803,0.010288239,0,
00:08.1,0.00075531,-0.006380081,0.010282516,0,
00:08.1,0.000761032,-0.006374359,0.010293961,0,
00:08.1,0.00075531,-0.006362915,0.010282516,0,
00:08.1,0.00075531,-0.006368637,0.010282516,0,
00:08.1,0.000766754,-0.006391525,0.010282516,0,
00:08.1,0.000761032,-0.006385803,0.010276794,0,
00:08.1,0.000749588,-0.006368637,0.010288239,0,
00:08.1,0.00075531,-0.006380081,0.010288239,0,
00:08.1,0.000749588,-0.006402969,0.010288239,0,
00:08.1,0.000749588,-0.006391525,0.010282516,0,
00:08.1,0.00075531,-0.006380081,0.010282516,0,
00:08.1,0.000761032,-0.006368637,0.010282516,0,
00:08.1,0.000761032,-0.006362915,0.010288239,0,
00:08.1,0.00075531,-0.006368637,0.010288239,0,
00:08.1,0.000761032,-0.006385803,0.010276794,0,
00:08.1,0.00075531,-0.006391525,0.010271072,0,
00:08.1,0.000761032,-0.006374359,0.010288239,0,
00:08.1,0.00075531,-0.006368637,0.010288239,0,
00:08.1,0.000761032,-0.006368637,0.010276794,0,
00:08.1,0.00075531,-0.006374359,0.010276794,0,
00:08.1,0.00075531,-0.006368637,0.010282516,0,
00:08.1,0.000761032,-0.006362915,0.010288239,0,
00:08.1,0.00075531,-0.006374359,0.010282516,0,
00:08.1,0.000749588,-0.006380081,0.010276794,0,
00:08.2,0.000749588,-0.006385803,0.010276794,0,
00:08.2,0.000761032,-0.006368637,0.010276794,0,
00:08.2,0.000766754,-0.006362915,0.010282516,0,
00:08.2,0.000766754,-0.006362915,0.010282516,0,
00:08.2,0.000761032,-0.006368637,0.010271072,0,
00:08.2,0.00075531,-0.006368637,0.010271072,0,
00:08.2,0.000749588,-0.006380081,0.010276794,0,
00:08.2,0.00075531,-0.006380081,0.010282516,0,
00:08.2,0.00075531,-0.006374359,0.010276794,0,
00:08.2,0.000749588,-0.006374359,0.010276794,0,
00:08.2,0.000738144,-0.006385803,0.010271072,0,
00:08.2,0.000749588,-0.006391525,0.010271072,0,
00:08.2,0.000761032,-0.006368637,0.010271072,0,
00:08.2,0.000766754,-0.006351471,0.01026535,0,
00:08.2,0.000766754,-0.006351471,0.010271072,0,
00:08.2,0.000766754,-0.006357193,0.010282516,0,
00:08.2,0.000761032,-0.006368637,0.010282516,0,
00:08.2,0.000749588,-0.006374359,0.010271072,0,
00:08.2,0.000749588,-0.006368637,0.010276794,0,
00:08.2,0.000749588,-0.006362915,0.01026535,0,
00:08.2,0.00075531,-0.006357193,0.010259628,0,
00:08.2,0.000761032,-0.006362915,0.01026535,0,
00:08.2,0.000761032,-0.006374359,0.01026535,0,
00:08.2,0.00075531,-0.006357193,0.010271072,0,
00:08.2,0.000761032,-0.006357193,0.010271072,0,
00:08.3,0.00075531,-0.006368637,0.010259628,0,
00:08.3,0.000766754,-0.006357193,0.010259628,0,
00:08.3,0.000766754,-0.006357193,0.010271072,0,
00:08.3,0.00075531,-0.006380081,0.01026535,0,
00:08.3,0.000743866,-0.006380081,0.010259628,0,
00:08.3,0.000749588,-0.006368637,0.010259628,0,
00:08.3,0.00075531,-0.006362915,0.01026535,0,
00:08.3,0.00075531,-0.006362915,0.01026535,0,
00:08.3,0.000749588,-0.006368637,0.010271072,0,
00:08.3,0.00075531,-0.006362915,0.01026535,0,
00:08.3,0.00075531,-0.006362915,0.010259628,0,
00:08.3,0.00075531,-0.006357193,0.010259628,0,
00:08.3,0.00075531,-0.006357193,0.01026535,0,
00:08.3,0.00075531,-0.006362915,0.01026535,0,
00:08.3,0.000749588,-0.006362915,0.010253906,0,
00:08.3,0.00075531,-0.006357193,0.010248184,0,
00:08.3,0.000761032,-0.006357193,0.010259628,0,
00:08.3,0.00075531,-0.006357193,0.010271072,0,
00:08.3,0.00075531,-0.006362915,0.01026535,0,
00:08.3,0.00075531,-0.006351471,0.010253906,0,
00:08.3,0.000761032,-0.006351471,0.010248184,0,
00:08.3,0.00075531,-0.006368637,0.010259628,0,
00:08.3,0.00075531,-0.006357193,0.01026535,0,
00:08.3,0.000766754,-0.006357193,0.010259628,0,
00:08.3,0.000766754,-0.006351471,0.010248184,0,
00:08.4,0.000761032,-0.006368637,0.010248184,0,
00:08.4,0.000766754,-0.006368637,0.010248184,0,
00:08.4,0.000749588,-0.006368637,0.010271072,0,
00:08.4,0.000749588,-0.006368637,0.010259628,0,
00:08.4,0.00075531,-0.006362915,0.010248184,0,
00:08.4,0.00075531,-0.006357193,0.010253906,0,
00:08.4,0.00075531,-0.006357193,0.010259628,0,
00:08.4,0.000761032,-0.006351471,0.010259628,0,
00:08.4,0.000761032,-0.006362915,0.010253906,0,
00:08.4,0.00075531,-0.006357193,0.010248184,0,
00:08.4,0.000761032,-0.006357193,0.010242462,0,
00:08.4,0.000761032,-0.006357193,0.010248184,0,
00:08.4,0.000761032,-0.006351471,0.010253906,0,
00:08.4,0.00075531,-0.006345749,0.010253906,0,
00:08.4,0.000749588,-0.006357193,0.010248184,0,
00:08.4,0.000749588,-0.006357193,0.010242462,0,
00:08.4,0.00075531,-0.006351471,0.010253906,0,
00:08.4,0.00075531,-0.006334305,0.010259628,0,
00:08.4,0.000766754,-0.006328583,0.010248184,0,
00:08.4,0.000761032,-0.006340027,0.010248184,0,
00:08.4,0.00075531,-0.006368637,0.010248184,0,
00:08.4,0.000749588,-0.006380081,0.010248184,0,
00:08.4,0.00075531,-0.006351471,0.010242462,0,
00:08.4,0.00075531,-0.006340027,0.010242462,0,
00:08.4,0.000766754,-0.006351471,0.010253906,0,
00:08.5,0.000761032,-0.006340027,0.010248184,0,
00:08.5,0.00075531,-0.006345749,0.010242462,0,
00:08.5,0.00075531,-0.006351471,0.010242462,0,
00:08.5,0.000761032,-0.006351471,0.010248184,0,
00:08.5,0.000761032,-0.006345749,0.010242462,0,
00:08.5,0.000761032,-0.006351471,0.01023674,0,
00:08.5,0.000761032,-0.006345749,0.010242462,0,
00:08.5,0.00075531,-0.006340027,0.010242462,0,
00:08.5,0.00075531,-0.006340027,0.010242462,0,
00:08.5,0.00075531,-0.006345749,0.01023674,0,
00:08.5,0.00075531,-0.006340027,0.01023674,0,
00:08.5,0.000761032,-0.006334305,0.010248184,0,
00:08.5,0.000761032,-0.006334305,0.010248184,0,
00:08.5,0.00075531,-0.006334305,0.010242462,0,
00:08.5,0.00075531,-0.006340027,0.010242462,0,
00:08.5,0.000749588,-0.006345749,0.010242462,0,
00:08.5,0.00075531,-0.006345749,0.01023674,0,
00:08.5,0.00075531,-0.006351471,0.010248184,0,
00:08.5,0.000749588,-0.006345749,0.010248184,0,
00:08.5,0.000761032,-0.006345749,0.01023674,0,
00:08.5,0.00075531,-0.006351471,0.010231018,0,
00:08.5,0.00075531,-0.006340027,0.010231018,0,
00:08.5,0.000766754,-0.006328583,0.01023674,0,
00:08.5,0.00075531,-0.006340027,0.010242462,0,
00:08.5,0.000743866,-0.006357193,0.010242462,0,
00:08.6,0.00075531,-0.006351471,0.01023674,0,
00:08.6,0.00075531,-0.006340027,0.010231018,0,
00:08.6,0.00075531,-0.006340027,0.010242462,0,
00:08.6,0.000749588,-0.006345749,0.01023674,0,
00:08.6,0.000749588,-0.006345749,0.010231018,0,
00:08.6,0.00075531,-0.006334305,0.010231018,0,
00:08.6,0.00075531,-0.006322861,0.010231018,0,
00:08.6,0.000761032,-0.006322861,0.01023674,0,
00:08.6,0.000761032,-0.006322861,0.01023674,0,
00:08.6,0.00075531,-0.006328583,0.010231018,0,
00:08.6,0.00075531,-0.006334305,0.01023674,0,
00:08.6,0.00075531,-0.006328583,0.01023674,0,
00:08.6,0.00075531,-0.006322861,0.01023674,0,
00:08.6,0.000749588,-0.006334305,0.01023674,0,
00:08.6,0.000743866,-0.006334305,0.010225296,0,
00:08.6,0.000766754,-0.006334305,0.010225296,0,
00:08.6,0.000761032,-0.006340027,0.010219574,0,
00:08.6,0.000761032,-0.006328583,0.010225296,0,
00:08.6,0.00075531,-0.006334305,0.010242462,0,
00:08.6,0.00075531,-0.006345749,0.01023674,0,
00:08.6,0.00075531,-0.006351471,0.010225296,0,
00:08.6,0.00075531,-0.006334305,0.010225296,0,
00:08.6,0.000749588,-0.006317139,0.01023674,0,
00:08.6,0.000749588,-0.006317139,0.010242462,0,
00:08.6,0.00075531,-0.006317139,0.010225296,0,
00:08.7,0.000749588,-0.006328583,0.010225296,0,
00:08.7,0.000749588,-0.006334305,0.010225296,0,
00:08.7,0.000749588,-0.006334305,0.010225296,0,
00:08.7,0.000749588,-0.006345749,0.010231018,0,
00:08.7,0.000749588,-0.006351471,0.010231018,0,
00:08.7,0.00075531,-0.006328583,0.010225296,0,
00:08.7,0.000749588,-0.006305695,0.010231018,0,
00:08.7,0.000749588,-0.006317139,0.010225296,0,
00:08.7,0.000749588,-0.006334305,0.010219574,0,
00:08.7,0.000743866,-0.006322861,0.010219574,0,
00:08.7,0.000761032,-0.006317139,0.010225296,0,
00:08.7,0.000766754,-0.006317139,0.010219574,0,
00:08.7,0.00075531,-0.006328583,0.010231018,0,
00:08.7,0.000749588,-0.006328583,0.010225296,0,
00:08.7,0.00075531,-0.006322861,0.010213852,0,
00:08.7,0.000761032,-0.006322861,0.010213852,0,
00:08.7,0.000761032,-0.006328583,0.010219574,0,
00:08.7,0.000749588,-0.006317139,0.010213852,0,
00:08.7,0.000749588,-0.006317139,0.010219574,0,
00:08.7,0.00075531,-0.006322861,0.010219574,0,
00:08.7,0.000743866,-0.006328583,0.010219574,0,
00:08.7,0.000749588,-0.006328583,0.010219574,0,
00:08.7,0.000749588,-0.006317139,0.010219574,0,
00:08.7,0.000749588,-0.006317139,0.010213852,0,
00:08.7,0.000749588,-0.006322861,0.010213852,0,
00:08.8,0.000743866,-0.006322861,0.010219574,0,
00:08.8,0.000738144,-0.006334305,0.010219574,0,
00:08.8,0.000743866,-0.006334305,0.010213852,0,
00:08.8,0.000749588,-0.006322861,0.01020813,0,
00:08.8,0.000749588,-0.006311417,0.010219574,0,
00:08.8,0.00075531,-0.006311417,0.010213852,0,
00:08.8,0.00075531,-0.006311417,0.01020813,0,
00:08.8,0.000749588,-0.006317139,0.010213852,0,
00:08.8,0.00075531,-0.006334305,0.010219574,0,
00:08.8,0.00075531,-0.006328583,0.01020813,0,
00:08.8,0.000743866,-0.006317139,0.01020813,0,
00:08.8,0.000749588,-0.006305695,0.01020813,0,
00:08.8,0.000749588,-0.006311417,0.010213852,0,
00:08.8,0.000743866,-0.006322861,0.010213852,0,
00:08.8,0.000749588,-0.006328583,0.01020813,0,
00:08.8,0.00075531,-0.006328583,0.010202408,0,
00:08.8,0.000749588,-0.006322861,0.010202408,0,
00:08.8,0.000749588,-0.006311417,0.010213852,0,
00:08.8,0.000749588,-0.006311417,0.01020813,0,
00:08.8,0.000743866,-0.006317139,0.010202408,0,
00:08.8,0.000743866,-0.006322861,0.010196686,0,
00:08.8,0.000743866,-0.006322861,0.01020813,0,
00:08.8,0.000743866,-0.006311417,0.010202408,0,
00:08.8,0.00075531,-0.006305695,0.010202408,0,
00:08.8,0.00075531,-0.006311417,0.010196686,0,
00:08.9,0.000749588,-0.006317139,0.01020813,0,
00:08.9,0.000749588,-0.006317139,0.01020813,0,
00:08.9,0.000749588,-0.006305695,0.01020813,0,
00:08.9,0.000743866,-0.006299973,0.010202408,0,
00:08.9,0.00075531,-0.006311417,0.010196686,0,
00:08.9,0.000761032,-0.006322861,0.010190964,0,
00:08.9,0.000749588,-0.006322861,0.010196686,0,
00:08.9,0.000743866,-0.006317139,0.010190964,0,
00:08.9,0.000743866,-0.006317139,0.010202408,0,
00:08.9,0.000738144,-0.006322861,0.010202408,0,
00:08.9,0.000738144,-0.006322861,0.010202408,0,
00:08.9,0.000749588,-0.006305695,0.010196686,0,
00:08.9,0.000761032,-0.006288528,0.010196686,0,
00:08.9,0.00075531,-0.006305695,0.010196686,0,
00:08.9,0.000749588,-0.006322861,0.010196686,0,
00:08.9,0.000749588,-0.006328583,0.010190964,0,
00:08.9,0.000749588,-0.006328583,0.01017952,0,
00:08.9,0.000743866,-0.006317139,0.010196686,0,
00:08.9,0.000738144,-0.006305695,0.010202408,0,
00:08.9,0.000738144,-0.006317139,0.010190964,0,
00:08.9,0.000749588,-0.006311417,0.010190964,0,
00:08.9,0.00075531,-0.006299973,0.010196686,0,
00:08.9,0.000749588,-0.006305695,0.010196686,0,
00:08.9,0.000749588,-0.006299973,0.010196686,0,
00:08.9,0.000743866,-0.006299973,0.010190964,0,
00:09.0,0.00075531,-0.006311417,0.010190964,0,
00:09.0,0.000749588,-0.006317139,0.010190964,0,
00:09.0,0.000738144,-0.006322861,0.010190964,0,
00:09.0,0.000743866,-0.006317139,0.010190964,0,
00:09.0,0.000749588,-0.006305695,0.010196686,0,
00:09.0,0.000749588,-0.006305695,0.010185242,0,
00:09.0,0.000743866,-0.006311417,0.010190964,0,
00:09.0,0.000743866,-0.006311417,0.010196686,0,
00:09.0,0.000749588,-0.006305695,0.010190964,0,
00:09.0,0.000761032,-0.006299973,0.010185242,0,
00:09.0,0.000749588,-0.006305695,0.010185242,0,
00:09.0,0.000738144,-0.006311417,0.010190964,0,
00:00:09,0.00075531,-0.006305695,0.010190964,0,
00:09.0,0.00075531,-0.006305695,0.010190964,0,
00:09.0,0.000749588,-0.006305695,0.010185242,0,
00:09.0,0.000749588,-0.006317139,0.01017952,0,
00:09.0,0.000743866,-0.006322861,0.01017952,0,
00:09.0,0.000743866,-0.006317139,0.010185242,0,
00:09.0,0.00075531,-0.00629425,0.010190964,0,
00:09.0,0.00075531,-0.006288528,0.010185242,0,
00:09.0,0.000761032,-0.006288528,0.01017952,0,
00:09.0,0.00075531,-0.006299973,0.010185242,0,
00:09.0,0.000738144,-0.006317139,0.010190964,0,
00:09.0,0.000738144,-0.006322861,0.010185242,0,
00:09.0,0.000749588,-0.006317139,0.01017952,0,
00:09.1,0.000738144,-0.006311417,0.01017952,0,
00:09.1,0.000738144,-0.006305695,0.01017952,0,
00:09.1,0.000749588,-0.006299973,0.01017952,0,
00:09.1,0.000743866,-0.006299973,0.010190964,0,
00:09.1,0.000743866,-0.006311417,0.010185242,0,
00:09.1,0.000738144,-0.006322861,0.010185242,0,
00:09.1,0.000743866,-0.006311417,0.01017952,0,
00:09.1,0.000743866,-0.006317139,0.010185242,0,
00:09.1,0.000738144,-0.006322861,0.010173798,0,
00:09.1,0.000743866,-0.006311417,0.010173798,0,
00:09.1,0.000749588,-0.006299973,0.010173798,0,
00:09.1,0.000749588,-0.006299973,0.010185242,0,
00:09.1,0.000749588,-0.00629425,0.010190964,0,
00:09.1,0.000749588,-0.006299973,0.01017952,0,
00:09.1,0.000749588,-0.006317139,0.010173798,0,
00:09.1,0.000738144,-0.006322861,0.01017952,0,
00:09.1,0.000738144,-0.006317139,0.01017952,0,
00:09.1,0.000743866,-0.006311417,0.010185242,0,
00:09.1,0.000743866,-0.006311417,0.010185242,0,
00:09.1,0.000743866,-0.006317139,0.01017952,0,
00:09.1,0.000738144,-0.006311417,0.010173798,0,
00:09.1,0.000749588,-0.006299973,0.010173798,0,
00:09.1,0.000743866,-0.006311417,0.010185242,0,
00:09.1,0.000738144,-0.006322861,0.01017952,0,
00:09.1,0.0007267,-0.006317139,0.010168076,0,
00:09.2,0.000732422,-0.006317139,0.01017952,0,
00:09.2,0.000738144,-0.006311417,0.01017952,0,
00:09.2,0.000743866,-0.006299973,0.010173798,0,
00:09.2,0.000743866,-0.00629425,0.010173798,0,
00:09.2,0.000738144,-0.006305695,0.010173798,0,
00:09.2,0.000738144,-0.006311417,0.010173798,0,
00:09.2,0.000732422,-0.006317139,0.010173798,0,
00:09.2,0.000743866,-0.006305695,0.01017952,0,
00:09.2,0.000738144,-0.006305695,0.010173798,0,
00:09.2,0.000732422,-0.00629425,0.010173798,0,
00:09.2,0.000738144,-0.006305695,0.010173798,0,
00:09.2,0.000732422,-0.006317139,0.010168076,0,
00:09.2,0.000738144,-0.006317139,0.010173798,0,
00:09.2,0.000732422,-0.006317139,0.01017952,0,
00:09.2,0.0007267,-0.006322861,0.010162354,0,
00:09.2,0.000732422,-0.006322861,0.010162354,0,
00:09.2,0.000743866,-0.006322861,0.010173798,0,
00:09.2,0.0007267,-0.006328583,0.010173798,0,
00:09.2,0.0007267,-0.006334305,0.010173798,0,
00:09.2,0.000720978,-0.006328583,0.010156631,0,
00:09.2,0.000720978,-0.006317139,0.010162354,0,
00:09.2,0.0007267,-0.006311417,0.010185242,0,
00:09.2,0.0007267,-0.006305695,0.01017952,0,
00:09.2,0.000732422,-0.006311417,0.010173798,0,
00:09.2,0.000732422,-0.006317139,0.010168076,0,
00:09.3,0.000732422,-0.006328583,0.010162354,0,
00:09.3,0.0007267,-0.006322861,0.010168076,0,
00:09.3,0.000715256,-0.006328583,0.01017952,0,
00:09.3,0.000720978,-0.006334305,0.010173798,0,
00:09.3,0.000715256,-0.006334305,0.010162354,0,
00:09.3,0.000720978,-0.006328583,0.010173798,0,
00:09.3,0.000720978,-0.006328583,0.010173798,0,
00:09.3,0.000720978,-0.006322861,0.010168076,0,
00:09.3,0.0007267,-0.006317139,0.010168076,0,
00:09.3,0.000715256,-0.006334305,0.010168076,0,
00:09.3,0.000703812,-0.006357193,0.010168076,0,
00:09.3,0.000715256,-0.006362915,0.01017952,0,
00:09.3,0.000720978,-0.006351471,0.010173798,0,
00:09.3,0.000720978,-0.006340027,0.010168076,0,
00:09.3,0.000709534,-0.006351471,0.010168076,0,
00:09.3,0.000703812,-0.006357193,0.010173798,0,
00:09.3,0.000703812,-0.006351471,0.010162354,0,
00:09.3,0.000703812,-0.006340027,0.010168076,0,
00:09.3,0.000703812,-0.006345749,0.01017952,0,
00:09.3,0.000715256,-0.006351471,0.01017952,0,
00:09.3,0.000715256,-0.006351471,0.01017952,0,
00:09.3,0.000715256,-0.006351471,0.010185242,0,
00:09.3,0.000709534,-0.006351471,0.010185242,0,
00:09.3,0.000703812,-0.006357193,0.01017952,0,
00:09.3,0.00069809,-0.006368637,0.010173798,0,
00:09.4,0.00069809,-0.006374359,0.01017952,0,
00:09.4,0.00069809,-0.006362915,0.010185242,0,
00:09.4,0.000692368,-0.006362915,0.010185242,0,
00:09.4,0.00069809,-0.006362915,0.010190964,0,
00:09.4,0.000692368,-0.006362915,0.010185242,0,
00:09.4,0.000692368,-0.006374359,0.010185242,0,
00:09.4,0.000686646,-0.006385803,0.010190964,0,
00:09.4,0.00069809,-0.006385803,0.010190964,0,
00:09.4,0.00069809,-0.006362915,0.010190964,0,
00:09.4,0.00069809,-0.006362915,0.010190964,0,
00:09.4,0.000692368,-0.006391525,0.010190964,0,
00:09.4,0.000686646,-0.006397247,0.010196686,0,
00:09.4,0.000686646,-0.006380081,0.01020813,0,
00:09.4,0.000692368,-0.006380081,0.010202408,0,
00:09.4,0.000686646,-0.006385803,0.010202408,0,
00:09.4,0.000686646,-0.006397247,0.010202408,0,
00:09.4,0.000675201,-0.006414413,0.010202408,0,
00:09.4,0.000680923,-0.006414413,0.01020813,0,
00:09.4,0.000686646,-0.006402969,0.010213852,0,
00:09.4,0.000686646,-0.006402969,0.010213852,0,
00:09.4,0.000680923,-0.006408691,0.01020813,0,
00:09.4,0.000680923,-0.006408691,0.010202408,0,
00:09.4,0.000680923,-0.006402969,0.010219574,0,
00:09.4,0.000675201,-0.006414413,0.010231018,0,
00:09.4,0.000680923,-0.006420135,0.010231018,0,
00:09.5,0.000680923,-0.00643158,0.010231018,0,
00:09.5,0.000675201,-0.006425858,0.010231018,0,
00:09.5,0.000675201,-0.006420135,0.01023674,0,
00:09.5,0.000675201,-0.006420135,0.01023674,0,
00:09.5,0.000669479,-0.006425858,0.010242462,0,
00:09.5,0.000675201,-0.00643158,0.010242462,0,
00:09.5,0.000680923,-0.006437302,0.010248184,0,
00:09.5,0.000680923,-0.006443024,0.010248184,0,
00:09.5,0.000675201,-0.006454468,0.010242462,0,
00:09.5,0.000658035,-0.006448746,0.010253906,0,
00:09.5,0.000663757,-0.006443024,0.01026535,0,
00:09.5,0.000663757,-0.006448746,0.01026535,0,
00:09.5,0.000658035,-0.00646019,0.010271072,0,
00:09.5,0.000652313,-0.006465912,0.010271072,0,
00:09.5,0.000669479,-0.006465912,0.01026535,0,
00:09.5,0.000669479,-0.00646019,0.010271072,0,
00:09.5,0.000663757,-0.006471634,0.010282516,0,
00:09.5,0.000658035,-0.006471634,0.010282516,0,
00:09.5,0.000658035,-0.006477356,0.010282516,0,
00:09.5,0.000663757,-0.006477356,0.010293961,0,
00:09.5,0.000658035,-0.0064888,0.010288239,0,
00:09.5,0.000658035,-0.006494522,0.010293961,0,
00:09.5,0.000658035,-0.0064888,0.010311127,0,
00:09.5,0.000663757,-0.006483078,0.010311127,0,
00:09.5,0.000658035,-0.006483078,0.010305405,0,
00:09.6,0.000663757,-0.006494522,0.010305405,0,
00:09.6,0.000663757,-0.006500244,0.010322571,0,
00:09.6,0.000652313,-0.006500244,0.010328293,0,
00:09.6,0.000652313,-0.006500244,0.010322571,0,
00:09.6,0.000663757,-0.006500244,0.010311127,0,
00:09.6,0.000658035,-0.006505966,0.010316849,0,
00:09.6,0.000652313,-0.00651741,0.010356903,0,
00:09.6,0.000652313,-0.006523132,0.010351181,0,
00:09.6,0.000646591,-0.00651741,0.010351181,0,
00:09.6,0.000646591,-0.006523132,0.010351181,0,
00:09.6,0.000640869,-0.006546021,0.010351181,0,
00:09.6,0.000652313,-0.006540298,0.010356903,0,
00:09.6,0.000646591,-0.006540298,0.010368347,0,
00:09.6,0.000652313,-0.006540298,0.010362625,0,
00:09.6,0.000658035,-0.006528854,0.010368347,0,
00:09.6,0.000658035,-0.006540298,0.010379791,0,
00:09.6,0.000652313,-0.006551743,0.010385513,0,
00:09.6,0.000640869,-0.006546021,0.010396957,0,
00:09.6,0.000646591,-0.006546021,0.010396957,0,
00:09.6,0.000646591,-0.006568909,0.010396957,0,
00:09.6,0.000646591,-0.006580353,0.010396957,0,
00:09.6,0.000652313,-0.006568909,0.010408401,0,
00:09.6,0.000658035,-0.006563187,0.010419846,0,
00:09.6,0.000652313,-0.006557465,0.010414124,0,
00:09.6,0.000640869,-0.006568909,0.010414124,0,
00:09.7,0.000646591,-0.006574631,0.010419846,0,
00:09.7,0.000646591,-0.006580353,0.010419846,0,
00:09.7,0.000640869,-0.006591797,0.010448456,0,
00:09.7,0.000640869,-0.006580353,0.010448456,0,
00:09.7,0.000658035,-0.006580353,0.010448456,0,
00:09.7,0.000658035,-0.006608963,0.010448456,0,
00:09.7,0.000646591,-0.006608963,0.010454178,0,
00:09.7,0.000646591,-0.006597519,0.010454178,0,
00:09.7,0.000646591,-0.006597519,0.010465622,0,
00:09.7,0.000640869,-0.006614685,0.010471344,0,
00:09.7,0.000640869,-0.006614685,0.010465622,0,
00:09.7,0.000652313,-0.006608963,0.010477066,0,
00:09.7,0.000640869,-0.006608963,0.010482788,0,
00:09.7,0.000635147,-0.006626129,0.010494232,0,
00:09.7,0.000629425,-0.006643295,0.010494232,0,
00:09.7,0.000635147,-0.006637573,0.010494232,0,
00:09.7,0.000646591,-0.006626129,0.010499954,0,
00:09.7,0.000652313,-0.006626129,0.010505676,0,
00:09.7,0.000646591,-0.006637573,0.01051712,0,
00:09.7,0.000640869,-0.006637573,0.010511398,0,
00:09.7,0.000640869,-0.006631851,0.01051712,0,
00:09.7,0.000640869,-0.006649017,0.010522842,0,
00:09.7,0.000635147,-0.006666183,0.010540009,0,
00:09.7,0.000635147,-0.006666183,0.010545731,0,
00:09.7,0.000635147,-0.006666183,0.010534286,0,
00:09.8,0.000646591,-0.006643295,0.010540009,0,
00:09.8,0.000652313,-0.006643295,0.010562897,0,
00:09.8,0.000652313,-0.006660461,0.010557175,0,
00:09.8,0.000640869,-0.006666183,0.010557175,0,
00:09.8,0.000635147,-0.006666183,0.010557175,0,
00:09.8,0.000640869,-0.00668335,0.010562897,0,
00:09.8,0.000635147,-0.00668335,0.010580063,0,
00:09.8,0.000635147,-0.006689072,0.010580063,0,
00:09.8,0.000629425,-0.006706238,0.010585785,0,
00:09.8,0.000635147,-0.006700516,0.010591507,0,
00:09.8,0.000629425,-0.006700516,0.010585785,0,
00:09.8,0.000635147,-0.006694794,0.010585785,0,
00:09.8,0.000635147,-0.006689072,0.010608673,0,
00:09.8,0.000646591,-0.006694794,0.010608673,0,
00:09.8,0.000646591,-0.006700516,0.010608673,0,
00:09.8,0.000640869,-0.006706238,0.010602951,0,
00:09.8,0.000629425,-0.006723404,0.010614395,0,
00:09.8,0.000629425,-0.00674057,0.010631561,0,
00:09.8,0.000629425,-0.006734848,0.010625839,0,
00:09.8,0.000629425,-0.006723404,0.010625839,0,
00:09.8,0.000635147,-0.006723404,0.010631561,0,
00:09.8,0.000640869,-0.006723404,0.010637283,0,
00:09.8,0.000640869,-0.006723404,0.010643005,0,
00:09.8,0.000635147,-0.006734848,0.010643005,0,
00:09.8,0.000629425,-0.006734848,0.010643005,0,
00:09.9,0.000640869,-0.006729126,0.010648727,0,
00:09.9,0.000646591,-0.006734848,0.010654449,0,
00:09.9,0.000629425,-0.006746292,0.010660172,0,
00:09.9,0.000623703,-0.006757736,0.010671616,0,
00:09.9,0.000629425,-0.006757736,0.010665894,0,
00:09.9,0.000623703,-0.006763458,0.010665894,0,
00:09.9,0.000623703,-0.006774902,0.010671616,0,
00:09.9,0.000623703,-0.006780624,0.01068306,0,
00:09.9,0.000629425,-0.006763458,0.01068306,0,
00:09.9,0.000629425,-0.006757736,0.010677338,0,
00:09.9,0.000640869,-0.00676918,0.01068306,0,
00:09.9,0.000640869,-0.006774902,0.010688782,0,
00:09.9,0.000629425,-0.006780624,0.010694504,0,
00:09.9,0.000635147,-0.006786346,0.010694504,0,
00:09.9,0.000635147,-0.006786346,0.010694504,0,
00:09.9,0.000635147,-0.006774902,0.010694504,0,
00:09.9,0.000629425,-0.006774902,0.010705948,0,
00:09.9,0.000623703,-0.006792068,0.010705948,0,
00:09.9,0.000623703,-0.006792068,0.010705948,0,
00:09.9,0.000623703,-0.006786346,0.010705948,0,
00:09.9,0.000635147,-0.006786346,0.01071167,0,
00:09.9,0.000635147,-0.006792068,0.010717392,0,
00:09.9,0.000640869,-0.006797791,0.01071167,0,
00:09.9,0.000629425,-0.006809235,0.010717392,0,
00:09.9,0.000612259,-0.006820679,0.010734558,0,
00:10.0,0.000623703,-0.006809235,0.010728836,0,
00:10.0,0.000623703,-0.006814957,0.010728836,0,
00:10.0,0.000623703,-0.006820679,0.01074028,0,
00:10.0,0.000623703,-0.006820679,0.010746002,0,
00:10.0,0.000623703,-0.006814957,0.01074028,0,
00:10.0,0.000629425,-0.006809235,0.01074028,0,
00:10.0,0.000629425,-0.006814957,0.010751724,0,
00:10.0,0.000623703,-0.006843567,0.010751724,0,
00:10.0,0.000623703,-0.006849289,0.010751724,0,
00:10.0,0.000635147,-0.006826401,0.010746002,0,
00:10.0,0.000640869,-0.006814957,0.010746002,0,
00:10.0,0.000629425,-0.006826401,0.010751724,0,
00:00:10,0.000623703,-0.006832123,0.010751724,0,
00:10.0,0.000629425,-0.006832123,0.010757446,0,
00:10.0,0.000635147,-0.006832123,0.010751724,0,
00:10.0,0.000629425,-0.006832123,0.010757446,0,
00:10.0,0.000635147,-0.006843567,0.010763168,0,
00:10.0,0.000629425,-0.006849289,0.010763168,0,
00:10.0,0.000635147,-0.006843567,0.010763168,0,
00:10.0,0.000635147,-0.006843567,0.010757446,0,
00:10.0,0.000629425,-0.006855011,0.010763168,0,
00:10.0,0.000629425,-0.006855011,0.010763168,0,
00:10.0,0.000635147,-0.006855011,0.01076889,0,
00:10.0,0.000629425,-0.006866455,0.010763168,0,
00:10.0,0.000635147,-0.006855011,0.01076889,0,
00:10.1,0.000640869,-0.006849289,0.010763168,0,
00:10.1,0.000635147,-0.006855011,0.01076889,0,
00:10.1,0.000635147,-0.006855011,0.01076889,0,
00:10.1,0.000635147,-0.006849289,0.01076889,0,
