Elapsed_Time,EMG1,EMG2,EMG3,BioRadio Event,Unnamed: 5
00:00:00,-0.004337311,-0.000268936,0.009469986,0,
00:00.0,-0.004337311,-0.000274658,0.00945282,0,
00:00.0,-0.004343033,-0.000268936,0.009441376,0,
00:00.0,-0.004348755,-0.000268936,0.009435654,0,
00:00.0,-0.004354477,-0.000274658,0.009435654,0,
00:00.0,-0.004343033,-0.000268936,0.009435654,0,
00:00.0,-0.004320145,-0.000257492,0.00942421,0,
00:00.0,-0.004331589,-0.000268936,0.009418488,0,
00:00.0,-0.004343033,-0.000268936,0.009435654,0,
00:00.0,-0.004343033,-0.000263214,0.009418488,0,
00:00.0,-0.004348755,-0.000268936,0.009435654,0,
00:00.0,-0.004348755,-0.000268936,0.009441376,0,
00:00.0,-0.004343033,-0.000268936,0.00942421,0,
00:00.1,-0.004354477,-0.000268936,0.009412766,0,
00:00.1,-0.004348755,-0.000268936,0.00942421,0,
00:00.1,-0.004343033,-0.000274658,0.009447098,0,
00:00.1,-0.004343033,-0.000268936,0.009441376,0,
00:00.1,-0.004343033,-0.000263214,0.00942421,0,
00:00.1,-0.004348755,-0.000263214,0.009418488,0,
00:00.1,-0.004337311,-0.000263214,0.009435654,0,
00:00.1,-0.004343033,-0.000268936,0.009447098,0,
00:00.1,-0.004331589,-0.000268936,0.009435654,0,
00:00.1,-0.004337311,-0.000263214,0.009418488,0,
00:00.1,-0.004337311,-0.000257492,0.009412766,0,
00:00.1,-0.004343033,-0.000263214,0.009435654,0,
00:00.1,-0.004360199,-0.000268936,0.009429932,0,
00:00.1,-0.004348755,-0.000268936,0.009429932,0,
00:00.1,-0.004331589,-0.000263214,0.009412766,0,
00:00.1,-0.004337311,-0.000263214,0.009429932,0,
00:00.1,-0.004348755,-0.000268936,0.009429932,0,
00:00.1,-0.004360199,-0.000274658,0.00942421,0,
00:00.1,-0.004343033,-0.000268936,0.009412766,0,
00:00.1,-0.004343033,-0.000263214,0.009429932,0,
00:00.1,-0.004343033,-0.000263214,0.009412766,0,
00:00.1,-0.004348755,-0.000268936,0.009401321,0,
00:00.1,-0.004348755,-0.000274658,0.009435654,0,
00:00.1,-0.004343033,-0.000268936,0.009412766,0,
00:00.1,-0.004343033,-0.000268936,0.009407043,0,
00:00.2,-0.004348755,-0.000263214,0.009429932,0,
00:00.2,-0.004337311,-0.000257492,0.009441376,0,
00:00.2,-0.004325867,-0.000263214,0.009441376,0,
00:00.2,-0.004325867,-0.000268936,0.00942421,0,
00:00.2,-0.004331589,-0.000263214,0.009429932,0,
00:00.2,-0.004337311,-0.000257492,0.00942421,0,
00:00.2,-0.004343033,-0.000257492,0.009429932,0,
00:00.2,-0.004348755,-0.000263214,0.00942421,0,
00:00.2,-0.004343033,-0.000268936,0.009418488,0,
00:00.2,-0.004348755,-0.000274658,0.009407043,0,
00:00.2,-0.004360199,-0.000268936,0.009435654,0,
00:00.2,-0.004343033,-0.000263214,0.009429932,0,
00:00.2,-0.004337311,-0.000268936,0.009412766,0,
00:00.2,-0.004331589,-0.000263214,0.009418488,0,
00:00.2,-0.004331589,-0.000263214,0.009395599,0,
00:00.2,-0.004337311,-0.000263214,0.009407043,0,
00:00.2,-0.004348755,-0.000268936,0.009418488,0,
00:00.2,-0.004343033,-0.000274658,0.009407043,0,
00:00.2,-0.004343033,-0.000268936,0.009412766,0,
00:00.2,-0.004348755,-0.000268936,0.009418488,0,
00:00.2,-0.004337311,-0.000268936,0.009418488,0,
00:00.2,-0.004343033,-0.000268936,0.009435654,0,
00:00.2,-0.004348755,-0.000268936,0.009412766,0,
00:00.2,-0.004331589,-0.000268936,0.009401321,0,
00:00.2,-0.004331589,-0.000263214,0.009407043,0,
00:00.3,-0.004343033,-0.000268936,0.009418488,0,
00:00.3,-0.004348755,-0.00028038,0.009441376,0,
00:00.3,-0.004343033,-0.000274658,0.009429932,0,
00:00.3,-0.004343033,-0.000268936,0.009418488,0,
00:00.3,-0.004337311,-0.000268936,0.009401321,0,
00:00.3,-0.004343033,-0.000268936,0.009407043,0,
00:00.3,-0.004348755,-0.000268936,0.00942421,0,
00:00.3,-0.004343033,-0.000268936,0.009412766,0,
00:00.3,-0.004343033,-0.000274658,0.009407043,0,
00:00.3,-0.004348755,-0.000274658,0.009418488,0,
00:00.3,-0.004348755,-0.000268936,0.009401321,0,
00:00.3,-0.004343033,-0.000268936,0.00942421,0,
00:00.3,-0.004348755,-0.000274658,0.00942421,0,
00:00.3,-0.004348755,-0.000274658,0.009412766,0,
00:00.3,-0.004325867,-0.000268936,0.009395599,0,
00:00.3,-0.004331589,-0.000263214,0.00942421,0,
00:00.3,-0.004337311,-0.000263214,0.009395599,0,
00:00.3,-0.004348755,-0.000274658,0.009407043,0,
00:00.3,-0.004348755,-0.000268936,0.009412766,0,
00:00.3,-0.004337311,-0.000257492,0.00942421,0,
00:00.3,-0.004348755,-0.000274658,0.00942421,0,
00:00.3,-0.004348755,-0.000274658,0.009407043,0,
00:00.3,-0.004343033,-0.000274658,0.009389877,0,
00:00.3,-0.004314423,-0.000263214,0.009418488,0,
00:00.3,-0.004325867,-0.000263214,0.009429932,0,
00:00.4,-0.004337311,-0.000268936,0.009412766,0,
00:00.4,-0.004337311,-0.000263214,0.009407043,0,
00:00.4,-0.004331589,-0.000263214,0.009395599,0,
00:00.4,-0.004343033,-0.000268936,0.009401321,0,
00:00.4,-0.004354477,-0.000274658,0.009407043,0,
00:00.4,-0.004348755,-0.000274658,0.009407043,0,
00:00.4,-0.004343033,-0.000268936,0.009418488,0,
00:00.4,-0.004320145,-0.000263214,0.009395599,0,
00:00.4,-0.004325867,-0.000268936,0.009384155,0,
00:00.4,-0.004337311,-0.000268936,0.009418488,0,
00:00.4,-0.004348755,-0.000268936,0.009389877,0,
00:00.4,-0.004337311,-0.000268936,0.009401321,0,
00:00.4,-0.004325867,-0.000263214,0.009407043,0,
00:00.4,-0.004337311,-0.000268936,0.009395599,0,
00:00.4,-0.004331589,-0.000263214,0.009418488,0,
00:00.4,-0.004337311,-0.000263214,0.009401321,0,
00:00.4,-0.004337311,-0.000268936,0.009401321,0,
00:00.4,-0.004331589,-0.000268936,0.009401321,0,
00:00.4,-0.004337311,-0.000268936,0.009395599,0,
00:00.4,-0.004348755,-0.000268936,0.009401321,0,
00:00.4,-0.004343033,-0.000268936,0.009407043,0,
00:00.4,-0.004354477,-0.000263214,0.009395599,0,
00:00.4,-0.004348755,-0.000274658,0.009395599,0,
00:00.4,-0.004325867,-0.000274658,0.009418488,0,
00:00.4,-0.004320145,-0.000268936,0.009407043,0,
00:00.5,-0.004325867,-0.000263214,0.009389877,0,
00:00.5,-0.004331589,-0.000263214,0.009366989,0,
00:00.5,-0.004331589,-0.000268936,0.009389877,0,
00:00.5,-0.004337311,-0.000263214,0.009395599,0,
00:00.5,-0.004343033,-0.000268936,0.009401321,0,
00:00.5,-0.004331589,-0.000268936,0.009384155,0,
00:00.5,-0.004325867,-0.000263214,0.009378433,0,
00:00.5,-0.004331589,-0.000268936,0.009401321,0,
00:00.5,-0.004331589,-0.000268936,0.009401321,0,
00:00.5,-0.004331589,-0.000268936,0.009389877,0,
00:00.5,-0.004337311,-0.000263214,0.009389877,0,
00:00.5,-0.004343033,-0.000268936,0.009401321,0,
00:00.5,-0.004343033,-0.000268936,0.009395599,0,
00:00.5,-0.004331589,-0.000274658,0.009384155,0,
00:00.5,-0.004325867,-0.000263214,0.009372711,0,
00:00.5,-0.004320145,-0.000263214,0.009384155,0,
00:00.5,-0.004348755,-0.000268936,0.009395599,0,
00:00.5,-0.004343033,-0.000263214,0.009395599,0,
00:00.5,-0.004343033,-0.000274658,0.009384155,0,
00:00.5,-0.004348755,-0.000274658,0.009378433,0,
00:00.5,-0.004331589,-0.000263214,0.009384155,0,
00:00.5,-0.004331589,-0.000263214,0.009389877,0,
00:00.5,-0.004331589,-0.000268936,0.009389877,0,
00:00.5,-0.004331589,-0.000268936,0.009395599,0,
00:00.5,-0.004331589,-0.000268936,0.009378433,0,
00:00.6,-0.004331589,-0.000268936,0.009384155,0,
00:00.6,-0.004343033,-0.000268936,0.009384155,0,
00:00.6,-0.004331589,-0.000268936,0.009384155,0,
00:00.6,-0.004320145,-0.000263214,0.009361267,0,
00:00.6,-0.004337311,-0.000268936,0.009372711,0,
00:00.6,-0.004337311,-0.000268936,0.009378433,0,
00:00.6,-0.004325867,-0.000274658,0.009384155,0,
00:00.6,-0.004325867,-0.000274658,0.009395599,0,
00:00.6,-0.004320145,-0.000263214,0.009378433,0,
00:00.6,-0.004325867,-0.000263214,0.009384155,0,
00:00.6,-0.004337311,-0.000268936,0.009384155,0,
00:00.6,-0.004343033,-0.000268936,0.009378433,0,
00:00.6,-0.004343033,-0.000268936,0.009372711,0,
00:00.6,-0.004343033,-0.000268936,0.009366989,0,
00:00.6,-0.004331589,-0.000268936,0.009395599,0,
00:00.6,-0.004320145,-0.000263214,0.009384155,0,
00:00.6,-0.004325867,-0.000263214,0.009366989,0,
00:00.6,-0.004320145,-0.000268936,0.009366989,0,
00:00.6,-0.004314423,-0.000268936,0.009389877,0,
00:00.6,-0.004314423,-0.000263214,0.009366989,0,
00:00.6,-0.004320145,-0.000268936,0.009378433,0,
00:00.6,-0.004331589,-0.000268936,0.009349823,0,
00:00.6,-0.004337311,-0.000268936,0.009384155,0,
00:00.6,-0.004320145,-0.000263214,0.009389877,0,
00:00.6,-0.004331589,-0.000263214,0.009378433,0,
00:00.7,-0.004348755,-0.000268936,0.009378433,0,
00:00.7,-0.004343033,-0.000268936,0.009366989,0,
00:00.7,-0.004337311,-0.000268936,0.009372711,0,
00:00.7,-0.004320145,-0.000274658,0.009361267,0,
00:00.7,-0.004325867,-0.000274658,0.009366989,0,
00:00.7,-0.004325867,-0.000263214,0.009366989,0,
00:00.7,-0.004325867,-0.000257492,0.009366989,0,
00:00.7,-0.004331589,-0.000263214,0.009384155,0,
00:00.7,-0.004331589,-0.000263214,0.009372711,0,
00:00.7,-0.004320145,-0.000268936,0.009361267,0,
00:00.7,-0.004325867,-0.000268936,0.009384155,0,
00:00.7,-0.004331589,-0.000257492,0.009378433,0,
00:00.7,-0.004314423,-0.00025177,0.009378433,0,
00:00.7,-0.004314423,-0.000257492,0.009384155,0,
00:00.7,-0.004314423,-0.000263214,0.009349823,0,
00:00.7,-0.004325867,-0.000263214,0.009378433,0,
00:00.7,-0.004331589,-0.000263214,0.009389877,0,
00:00.7,-0.004325867,-0.000263214,0.009384155,0,
00:00.7,-0.004331589,-0.000263214,0.009378433,0,
00:00.7,-0.004320145,-0.000257492,0.009372711,0,
00:00.7,-0.004308701,-0.000263214,0.009378433,0,
00:00.7,-0.004325867,-0.000263214,0.009366989,0,
00:00.7,-0.004320145,-0.000257492,0.009361267,0,
00:00.7,-0.004320145,-0.000263214,0.009366989,0,
00:00.7,-0.004308701,-0.000263214,0.009361267,0,
00:00.8,-0.004337311,-0.000257492,0.009361267,0,
00:00.8,-0.004337311,-0.000268936,0.009401321,0,
00:00.8,-0.004314423,-0.000268936,0.009372711,0,
00:00.8,-0.004308701,-0.000263214,0.009366989,0,
00:00.8,-0.004297256,-0.000246048,0.009355545,0,
00:00.8,-0.004325867,-0.000263214,0.009372711,0,
00:00.8,-0.004337311,-0.000268936,0.009384155,0,
00:00.8,-0.004325867,-0.000263214,0.009384155,0,
00:00.8,-0.004325867,-0.000268936,0.009366989,0,
00:00.8,-0.004325867,-0.000274658,0.009378433,0,
00:00.8,-0.004337311,-0.000263214,0.009384155,0,
00:00.8,-0.004320145,-0.000263214,0.009366989,0,
00:00.8,-0.004320145,-0.000263214,0.009366989,0,
00:00.8,-0.004325867,-0.000268936,0.009366989,0,
00:00.8,-0.004325867,-0.000268936,0.009355545,0,
00:00.8,-0.004320145,-0.000263214,0.009361267,0,
00:00.8,-0.004320145,-0.000263214,0.009361267,0,
00:00.8,-0.004325867,-0.000268936,0.009372711,0,
00:00.8,-0.004331589,-0.000274658,0.009378433,0,
00:00.8,-0.004325867,-0.000274658,0.009378433,0,
00:00.8,-0.004320145,-0.000268936,0.009372711,0,
00:00.8,-0.004320145,-0.000268936,0.009372711,0,
00:00.8,-0.004325867,-0.000274658,0.009361267,0,
00:00.8,-0.004320145,-0.000268936,0.009378433,0,
00:00.8,-0.004320145,-0.000268936,0.009349823,0,
00:00.9,-0.004308701,-0.000274658,0.009361267,0,
00:00.9,-0.004325867,-0.000268936,0.009372711,0,
00:00.9,-0.004325867,-0.000268936,0.009378433,0,
00:00.9,-0.004308701,-0.000268936,0.009389877,0,
00:00.9,-0.004314423,-0.000263214,0.009378433,0,
00:00.9,-0.004320145,-0.000263214,0.009372711,0,
00:00.9,-0.004320145,-0.000268936,0.009361267,0,
00:00.9,-0.004314423,-0.000268936,0.009361267,0,
00:00.9,-0.004314423,-0.000268936,0.009372711,0,
00:00.9,-0.004320145,-0.000263214,0.009366989,0,
00:00.9,-0.004320145,-0.000263214,0.009366989,0,
00:00.9,-0.004331589,-0.000268936,0.009361267,0,
00:00.9,-0.004325867,-0.00028038,0.009384155,0,
00:00.9,-0.004320145,-0.000274658,0.009378433,0,
00:00.9,-0.004320145,-0.000263214,0.009355545,0,
00:00.9,-0.004325867,-0.000268936,0.009366989,0,
00:00.9,-0.004325867,-0.000268936,0.009395599,0,
00:00.9,-0.004320145,-0.000268936,0.009378433,0,
00:00.9,-0.004314423,-0.000268936,0.009372711,0,
00:00.9,-0.004320145,-0.000263214,0.009372711,0,
00:00.9,-0.004320145,-0.000263214,0.009372711,0,
00:00.9,-0.004331589,-0.000268936,0.009366989,0,
00:00.9,-0.004314423,-0.000268936,0.009366989,0,
00:00.9,-0.004308701,-0.000268936,0.009361267,0,
00:00.9,-0.004320145,-0.000268936,0.009361267,0,
00:01.0,-0.004325867,-0.000268936,0.009361267,0,
00:01.0,-0.004314423,-0.000268936,0.009372711,0,
00:01.0,-0.004314423,-0.000268936,0.009355545,0,
00:01.0,-0.004314423,-0.000268936,0.009355545,0,
00:01.0,-0.004308701,-0.000268936,0.009372711,0,
00:01.0,-0.004320145,-0.000268936,0.009378433,0,
00:01.0,-0.004331589,-0.000274658,0.009372711,0,
00:01.0,-0.004325867,-0.000274658,0.009366989,0,
00:01.0,-0.004325867,-0.000268936,0.009372711,0,
00:01.0,-0.004320145,-0.000263214,0.009338379,0,
00:01.0,-0.004320145,-0.000268936,0.009349823,0,
00:01.0,-0.004308701,-0.000268936,0.009389877,0,
00:00:01,-0.004302979,-0.000263214,0.009372711,0,
00:01.0,-0.004320145,-0.000263214,0.009349823,0,
00:01.0,-0.004320145,-0.000263214,0.009378433,0,
00:01.0,-0.004314423,-0.000263214,0.009349823,0,
00:01.0,-0.004308701,-0.000263214,0.009349823,0,
00:01.0,-0.004308701,-0.000263214,0.009384155,0,
00:01.0,-0.004320145,-0.000268936,0.009395599,0,
00:01.0,-0.004314423,-0.000263214,0.009366989,0,
00:01.0,-0.004314423,-0.000263214,0.009366989,0,
00:01.0,-0.004325867,-0.000268936,0.009372711,0,
00:01.0,-0.004325867,-0.000268936,0.009378433,0,
00:01.0,-0.004320145,-0.000268936,0.009366989,0,
00:01.0,-0.004320145,-0.000263214,0.009349823,0,
00:01.1,-0.004320145,-0.000257492,0.009349823,0,
00:01.1,-0.004308701,-0.000263214,0.009366989,0,
00:01.1,-0.004302979,-0.000263214,0.009378433,0,
00:01.1,-0.004308701,-0.000263214,0.009378433,0,
00:01.1,-0.004314423,-0.000263214,0.009355545,0,
00:01.1,-0.004308701,-0.000263214,0.009395599,0,
00:01.1,-0.004302979,-0.000263214,0.009349823,0,
00:01.1,-0.004314423,-0.000257492,0.009366989,0,
00:01.1,-0.004320145,-0.000263214,0.009378433,0,
00:01.1,-0.004325867,-0.000263214,0.009355545,0,
00:01.1,-0.004325867,-0.000263214,0.009355545,0,
00:01.1,-0.004320145,-0.000263214,0.009361267,0,
00:01.1,-0.004325867,-0.000268936,0.009378433,0,
00:01.1,-0.004314423,-0.000268936,0.009378433,0,
00:01.1,-0.004302979,-0.000263214,0.009366989,0,
00:01.1,-0.004302979,-0.000257492,0.009361267,0,
00:01.1,-0.004308701,-0.000257492,0.009361267,0,
00:01.1,-0.004314423,-0.000257492,0.009384155,0,
00:01.1,-0.004320145,-0.000263214,0.009366989,0,
00:01.1,-0.004325867,-0.000268936,0.009384155,0,
00:01.1,-0.004320145,-0.000263214,0.009372711,0,
00:01.1,-0.004308701,-0.000257492,0.009361267,0,
00:01.1,-0.004302979,-0.000257492,0.009372711,0,
00:01.1,-0.004308701,-0.000257492,0.009361267,0,
00:01.1,-0.004320145,-0.000263214,0.009366989,0,
00:01.2,-0.004331589,-0.000263214,0.009366989,0,
00:01.2,-0.004320145,-0.000263214,0.009366989,0,
00:01.2,-0.004308701,-0.000263214,0.009355545,0,
00:01.2,-0.004308701,-0.000257492,0.009378433,0,
00:01.2,-0.004308701,-0.000263214,0.009384155,0,
00:01.2,-0.004320145,-0.000257492,0.009378433,0,
00:01.2,-0.004320145,-0.000257492,0.009372711,0,
00:01.2,-0.004320145,-0.000263214,0.009361267,0,
00:01.2,-0.004302979,-0.000263214,0.009361267,0,
00:01.2,-0.004308701,-0.000263214,0.009361267,0,
00:01.2,-0.004314423,-0.000257492,0.009361267,0,
00:01.2,-0.004325867,-0.000263214,0.009366989,0,
00:01.2,-0.004314423,-0.000263214,0.009366989,0,
00:01.2,-0.004308701,-0.000257492,0.009355545,0,
00:01.2,-0.004314423,-0.00025177,0.009372711,0,
00:01.2,-0.004331589,-0.00025177,0.009372711,0,
00:01.2,-0.004314423,-0.000257492,0.009366989,0,
00:01.2,-0.004308701,-0.000263214,0.009361267,0,
00:01.2,-0.004314423,-0.000263214,0.009361267,0,
00:01.2,-0.004314423,-0.000257492,0.009326935,0,
00:01.2,-0.004320145,-0.000257492,0.009355545,0,
00:01.2,-0.004331589,-0.000257492,0.009384155,0,
00:01.2,-0.004325867,-0.000263214,0.009355545,0,
00:01.2,-0.004308701,-0.000263214,0.009366989,0,
00:01.2,-0.004302979,-0.000257492,0.009384155,0,
00:01.3,-0.004308701,-0.00025177,0.009378433,0,
00:01.3,-0.004320145,-0.000257492,0.009361267,0,
00:01.3,-0.004325867,-0.000263214,0.009361267,0,
00:01.3,-0.004314423,-0.000257492,0.009366989,0,
00:01.3,-0.004308701,-0.000257492,0.009349823,0,
00:01.3,-0.004302979,-0.00025177,0.009361267,0,
00:01.3,-0.004308701,-0.00025177,0.009355545,0,
00:01.3,-0.004302979,-0.000257492,0.009361267,0,
00:01.3,-0.004308701,-0.000263214,0.009361267,0,
00:01.3,-0.004314423,-0.000263214,0.009372711,0,
00:01.3,-0.004314423,-0.00025177,0.009372711,0,
00:01.3,-0.004302979,-0.00025177,0.009361267,0,
00:01.3,-0.004297256,-0.000263214,0.009366989,0,
00:01.3,-0.004291534,-0.000257492,0.009372711,0,
00:01.3,-0.004302979,-0.00025177,0.009355545,0,
00:01.3,-0.004320145,-0.000263214,0.009349823,0,
00:01.3,-0.004314423,-0.000263214,0.009361267,0,
00:01.3,-0.004314423,-0.00025177,0.009332657,0,
00:01.3,-0.004297256,-0.000257492,0.009366989,0,
00:01.3,-0.004302979,-0.000257492,0.009384155,0,
00:01.3,-0.004308701,-0.000263214,0.009361267,0,
00:01.3,-0.004302979,-0.000263214,0.009366989,0,
00:01.3,-0.004302979,-0.000263214,0.009355545,0,
00:01.3,-0.004302979,-0.000257492,0.009372711,0,
00:01.3,-0.004308701,-0.000257492,0.009372711,0,
00:01.4,-0.004308701,-0.000257492,0.009361267,0,
00:01.4,-0.004308701,-0.000257492,0.009366989,0,
00:01.4,-0.004302979,-0.00025177,0.009355545,0,
00:01.4,-0.004291534,-0.000257492,0.009349823,0,
00:01.4,-0.004302979,-0.000257492,0.009361267,0,
00:01.4,-0.004314423,-0.000263214,0.009372711,0,
00:01.4,-0.004308701,-0.000257492,0.009372711,0,
00:01.4,-0.004297256,-0.000263214,0.009366989,0,
00:01.4,-0.004314423,-0.000268936,0.009361267,0,
00:01.4,-0.004314423,-0.000263214,0.009355545,0,
00:01.4,-0.004308701,-0.00025177,0.009366989,0,
00:01.4,-0.004285812,-0.000257492,0.009355545,0,
00:01.4,-0.00428009,-0.000257492,0.009326935,0,
00:01.4,-0.004291534,-0.000257492,0.009349823,0,
00:01.4,-0.004308701,-0.000257492,0.009366989,0,
00:01.4,-0.004308701,-0.000257492,0.009344101,0,
00:01.4,-0.004302979,-0.000263214,0.009349823,0,
00:01.4,-0.004291534,-0.000268936,0.009361267,0,
00:01.4,-0.004297256,-0.000263214,0.009384155,0,
00:01.4,-0.004308701,-0.000268936,0.009366989,0,
00:01.4,-0.004314423,-0.000263214,0.009372711,0,
00:01.4,-0.004308701,-0.000263214,0.009366989,0,
00:01.4,-0.004302979,-0.000263214,0.009361267,0,
00:01.4,-0.004302979,-0.000263214,0.009361267,0,
00:01.4,-0.004308701,-0.000263214,0.009361267,0,
00:01.5,-0.004302979,-0.000263214,0.009344101,0,
00:01.5,-0.004291534,-0.000257492,0.009361267,0,
00:01.5,-0.004297256,-0.000257492,0.009366989,0,
00:01.5,-0.004297256,-0.000257492,0.009349823,0,
00:01.5,-0.004302979,-0.000268936,0.009355545,0,
00:01.5,-0.004320145,-0.000263214,0.009361267,0,
00:01.5,-0.004320145,-0.000263214,0.009366989,0,
00:01.5,-0.004297256,-0.000263214,0.009366989,0,
00:01.5,-0.004291534,-0.000257492,0.009349823,0,
00:01.5,-0.004308701,-0.000263214,0.009349823,0,
00:01.5,-0.004308701,-0.000263214,0.009366989,0,
00:01.5,-0.004308701,-0.000263214,0.009355545,0,
00:01.5,-0.004297256,-0.000263214,0.009372711,0,
00:01.5,-0.004297256,-0.000263214,0.009349823,0,
00:01.5,-0.004302979,-0.000263214,0.009361267,0,
00:01.5,-0.004302979,-0.000263214,0.009355545,0,
00:01.5,-0.004302979,-0.000263214,0.009332657,0,
00:01.5,-0.004308701,-0.000268936,0.009366989,0,
00:01.5,-0.004308701,-0.000274658,0.009366989,0,
00:01.5,-0.004297256,-0.000268936,0.009366989,0,
00:01.5,-0.004297256,-0.000263214,0.009355545,0,
00:01.5,-0.004302979,-0.000274658,0.009361267,0,
00:01.5,-0.004297256,-0.000268936,0.009366989,0,
00:01.5,-0.004297256,-0.000268936,0.009344101,0,
00:01.5,-0.004302979,-0.000268936,0.009349823,0,
00:01.6,-0.004308701,-0.000268936,0.009372711,0,
00:01.6,-0.004297256,-0.000274658,0.009355545,0,
00:01.6,-0.00428009,-0.000274658,0.009355545,0,
00:01.6,-0.004308701,-0.000274658,0.009361267,0,
00:01.6,-0.004320145,-0.000274658,0.009366989,0,
00:01.6,-0.004297256,-0.000268936,0.009355545,0,
00:01.6,-0.00428009,-0.000268936,0.009366989,0,
00:01.6,-0.004291534,-0.00028038,0.009361267,0,
00:01.6,-0.004308701,-0.00028038,0.009344101,0,
00:01.6,-0.004302979,-0.000274658,0.009321213,0,
00:01.6,-0.004308701,-0.000274658,0.009366989,0,
00:01.6,-0.004297256,-0.000268936,0.009361267,0,
00:01.6,-0.004291534,-0.000274658,0.009344101,0,
00:01.6,-0.004291534,-0.00028038,0.009366989,0,
00:01.6,-0.004302979,-0.000274658,0.009366989,0,
00:01.6,-0.004308701,-0.000274658,0.009361267,0,
00:01.6,-0.004291534,-0.000274658,0.009349823,0,
00:01.6,-0.004285812,-0.00028038,0.009361267,0,
00:01.6,-0.00428009,-0.000268936,0.009366989,0,
00:01.6,-0.00428009,-0.000268936,0.009366989,0,
00:01.6,-0.004291534,-0.000274658,0.009349823,0,
00:01.6,-0.004308701,-0.00028038,0.009366989,0,
00:01.6,-0.004297256,-0.00028038,0.009355545,0,
00:01.6,-0.00428009,-0.000274658,0.009361267,0,
00:01.6,-0.004285812,-0.000274658,0.009355545,0,
00:01.7,-0.004291534,-0.000274658,0.009361267,0,
00:01.7,-0.004285812,-0.000274658,0.009349823,0,
00:01.7,-0.004291534,-0.00028038,0.009349823,0,
00:01.7,-0.004291534,-0.000274658,0.009349823,0,
00:01.7,-0.004285812,-0.000274658,0.009344101,0,
00:01.7,-0.004297256,-0.000274658,0.009361267,0,
00:01.7,-0.004302979,-0.000274658,0.009366989,0,
00:01.7,-0.004297256,-0.00028038,0.009344101,0,
00:01.7,-0.004285812,-0.000274658,0.009355545,0,
00:01.7,-0.004291534,-0.000274658,0.009355545,0,
00:01.7,-0.004308701,-0.00028038,0.009338379,0,
00:01.7,-0.004297256,-0.00028038,0.009338379,0,
00:01.7,-0.004285812,-0.000274658,0.009361267,0,
00:01.7,-0.004285812,-0.000274658,0.009366989,0,
00:01.7,-0.00428009,-0.000274658,0.009366989,0,
00:01.7,-0.004285812,-0.000274658,0.009355545,0,
00:01.7,-0.004285812,-0.00028038,0.009355545,0,
00:01.7,-0.004291534,-0.000274658,0.009344101,0,
00:01.7,-0.004291534,-0.00028038,0.009355545,0,
00:01.7,-0.00428009,-0.00028038,0.009372711,0,
00:01.7,-0.004291534,-0.000274658,0.009338379,0,
00:01.7,-0.004274368,-0.000268936,0.009349823,0,
00:01.7,-0.004257202,-0.000274658,0.009349823,0,
00:01.7,-0.00428009,-0.000274658,0.009349823,0,
00:01.7,-0.004302979,-0.000274658,0.009372711,0,
00:01.8,-0.004308701,-0.00028038,0.009361267,0,
00:01.8,-0.004297256,-0.000274658,0.009361267,0,
00:01.8,-0.004274368,-0.000274658,0.009361267,0,
00:01.8,-0.004274368,-0.000263214,0.009338379,0,
00:01.8,-0.004291534,-0.000268936,0.009326935,0,
00:01.8,-0.004291534,-0.00028038,0.009366989,0,
00:01.8,-0.00428009,-0.000286102,0.009355545,0,
00:01.8,-0.004268646,-0.000274658,0.009349823,0,
00:01.8,-0.00428009,-0.000274658,0.009355545,0,
00:01.8,-0.004285812,-0.000268936,0.009344101,0,
00:01.8,-0.004291534,-0.000268936,0.009361267,0,
00:01.8,-0.00428009,-0.000274658,0.009332657,0,
00:01.8,-0.004274368,-0.000274658,0.009349823,0,
00:01.8,-0.004285812,-0.000274658,0.009349823,0,
00:01.8,-0.004285812,-0.000274658,0.009366989,0,
00:01.8,-0.004291534,-0.000268936,0.009361267,0,
00:01.8,-0.004297256,-0.00028038,0.009349823,0,
00:01.8,-0.004285812,-0.00028038,0.009344101,0,
00:01.8,-0.004297256,-0.00028038,0.009349823,0,
00:01.8,-0.004297256,-0.000274658,0.009338379,0,
00:01.8,-0.004291534,-0.000274658,0.009344101,0,
00:01.8,-0.004285812,-0.00028038,0.009332657,0,
00:01.8,-0.00428009,-0.00028038,0.009332657,0,
00:01.8,-0.004274368,-0.000274658,0.009338379,0,
00:01.8,-0.00428009,-0.000268936,0.009361267,0,
00:01.9,-0.00428009,-0.000268936,0.009355545,0,
00:01.9,-0.004274368,-0.000274658,0.009338379,0,
00:01.9,-0.004262924,-0.000274658,0.009366989,0,
00:01.9,-0.004274368,-0.000274658,0.009355545,0,
00:01.9,-0.00428009,-0.000274658,0.009332657,0,
00:01.9,-0.004274368,-0.000274658,0.009344101,0,
00:01.9,-0.00428009,-0.00028038,0.009338379,0,
00:01.9,-0.004285812,-0.000286102,0.009338379,0,
00:01.9,-0.004285812,-0.000286102,0.009338379,0,
00:01.9,-0.00428009,-0.00028038,0.009355545,0,
00:01.9,-0.00428009,-0.00028038,0.009361267,0,
00:01.9,-0.004285812,-0.00028038,0.009338379,0,
00:01.9,-0.00428009,-0.000274658,0.009332657,0,
00:01.9,-0.004274368,-0.00028038,0.009349823,0,
00:01.9,-0.004274368,-0.000274658,0.009349823,0,
00:01.9,-0.004274368,-0.000268936,0.009315491,0,
00:01.9,-0.004262924,-0.000274658,0.009321213,0,
00:01.9,-0.004274368,-0.00028038,0.009344101,0,
00:01.9,-0.00428009,-0.00028038,0.009326935,0,
00:01.9,-0.004274368,-0.000274658,0.009344101,0,
00:01.9,-0.00428009,-0.00028038,0.009361267,0,
00:01.9,-0.00428009,-0.000286102,0.009344101,0,
00:01.9,-0.00428009,-0.00028038,0.009338379,0,
00:01.9,-0.00428009,-0.000286102,0.009338379,0,
00:01.9,-0.004268646,-0.00028038,0.009332657,0,
00:02.0,-0.00428009,-0.00028038,0.009338379,0,
00:02.0,-0.004285812,-0.00028038,0.009332657,0,
00:02.0,-0.004274368,-0.00028038,0.009326935,0,
00:02.0,-0.004268646,-0.00028038,0.009326935,0,
00:02.0,-0.00428009,-0.00028038,0.009344101,0,
00:02.0,-0.004274368,-0.00028038,0.009332657,0,
00:02.0,-0.004268646,-0.00028038,0.009338379,0,
00:02.0,-0.004274368,-0.000286102,0.009321213,0,
00:02.0,-0.00428009,-0.00028038,0.009338379,0,
00:02.0,-0.00428009,-0.000274658,0.009344101,0,
00:02.0,-0.00428009,-0.00028038,0.009321213,0,
00:02.0,-0.004274368,-0.000286102,0.009315491,0,
00:00:02,-0.004262924,-0.000286102,0.009321213,0,
00:02.0,-0.004274368,-0.000286102,0.009338379,0,
00:02.0,-0.004291534,-0.000286102,0.009332657,0,
00:02.0,-0.004285812,-0.000286102,0.009321213,0,
00:02.0,-0.004268646,-0.00028038,0.009338379,0,
00:02.0,-0.004262924,-0.000286102,0.009332657,0,
00:02.0,-0.004268646,-0.000274658,0.009321213,0,
00:02.0,-0.004268646,-0.000274658,0.009321213,0,
00:02.0,-0.004274368,-0.00028038,0.009309769,0,
00:02.0,-0.004268646,-0.000286102,0.009309769,0,
00:02.0,-0.004268646,-0.000297546,0.009326935,0,
00:02.0,-0.00428009,-0.000291824,0.009344101,0,
00:02.0,-0.004274368,-0.000286102,0.009315491,0,
00:02.1,-0.00428009,-0.000286102,0.009298325,0,
00:02.1,-0.004285812,-0.000291824,0.009326935,0,
00:02.1,-0.004274368,-0.000286102,0.009326935,0,
00:02.1,-0.004268646,-0.000286102,0.009275436,0,
00:02.1,-0.00428009,-0.000286102,0.009321213,0,
00:02.1,-0.004285812,-0.000291824,0.009332657,0,
00:02.1,-0.004285812,-0.000291824,0.009344101,0,
00:02.1,-0.004268646,-0.000291824,0.009321213,0,
00:02.1,-0.004274368,-0.000291824,0.009315491,0,
00:02.1,-0.004285812,-0.000291824,0.009315491,0,
00:02.1,-0.004291534,-0.000291824,0.009326935,0,
00:02.1,-0.00428009,-0.000291824,0.009321213,0,
00:02.1,-0.004268646,-0.000286102,0.009326935,0,
00:02.1,-0.004285812,-0.000291824,0.009315491,0,
00:02.1,-0.004274368,-0.000297546,0.009321213,0,
00:02.1,-0.004262924,-0.000291824,0.009321213,0,
00:02.1,-0.004268646,-0.000291824,0.009309769,0,
00:02.1,-0.004268646,-0.000297546,0.009315491,0,
00:02.1,-0.004274368,-0.000297546,0.009326935,0,
00:02.1,-0.004274368,-0.000291824,0.009309769,0,
00:02.1,-0.004274368,-0.000291824,0.009315491,0,
00:02.1,-0.004274368,-0.000291824,0.009298325,0,
00:02.1,-0.004262924,-0.000297546,0.009315491,0,
00:02.1,-0.004274368,-0.000291824,0.009315491,0,
00:02.1,-0.004274368,-0.000291824,0.009321213,0,
00:02.2,-0.004274368,-0.000291824,0.009326935,0,
00:02.2,-0.004274368,-0.000297546,0.009304047,0,
00:02.2,-0.00428009,-0.000303268,0.009309769,0,
00:02.2,-0.004285812,-0.000297546,0.009315491,0,
00:02.2,-0.004291534,-0.000303268,0.009309769,0,
00:02.2,-0.004285812,-0.000303268,0.009281158,0,
00:02.2,-0.004268646,-0.000291824,0.009292603,0,
00:02.2,-0.004262924,-0.000291824,0.009338379,0,
00:02.2,-0.004274368,-0.000297546,0.009344101,0,
00:02.2,-0.004274368,-0.000297546,0.009332657,0,
00:02.2,-0.004291534,-0.000303268,0.009321213,0,
00:02.2,-0.004285812,-0.000303268,0.009315491,0,
00:02.2,-0.004274368,-0.000297546,0.009298325,0,
00:02.2,-0.004268646,-0.000291824,0.009304047,0,
00:02.2,-0.00428009,-0.000297546,0.009315491,0,
00:02.2,-0.004291534,-0.000303268,0.009309769,0,
00:02.2,-0.004291534,-0.000303268,0.009326935,0,
00:02.2,-0.00428009,-0.000303268,0.009326935,0,
00:02.2,-0.004285812,-0.000303268,0.009315491,0,
00:02.2,-0.00428009,-0.000303268,0.009315491,0,
00:02.2,-0.004268646,-0.000303268,0.009321213,0,
00:02.2,-0.004274368,-0.00030899,0.009326935,0,
00:02.2,-0.00428009,-0.000303268,0.009326935,0,
00:02.2,-0.00428009,-0.000303268,0.009326935,0,
00:02.2,-0.004291534,-0.000303268,0.009321213,0,
00:02.3,-0.004297256,-0.00030899,0.009304047,0,
00:02.3,-0.00428009,-0.00030899,0.009309769,0,
00:02.3,-0.004285812,-0.00030899,0.009321213,0,
00:02.3,-0.004291534,-0.000314713,0.009338379,0,
00:02.3,-0.004297256,-0.00030899,0.009332657,0,
00:02.3,-0.004291534,-0.00030899,0.009321213,0,
00:02.3,-0.004285812,-0.00030899,0.009326935,0,
00:02.3,-0.004285812,-0.00030899,0.009321213,0,
00:02.3,-0.004285812,-0.00030899,0.009315491,0,
00:02.3,-0.004291534,-0.00030899,0.009332657,0,
00:02.3,-0.004297256,-0.00030899,0.009315491,0,
00:02.3,-0.004297256,-0.000314713,0.009338379,0,
00:02.3,-0.004297256,-0.000314713,0.009349823,0,
00:02.3,-0.004302979,-0.00030899,0.009321213,0,
00:02.3,-0.004297256,-0.00030899,0.009338379,0,
00:02.3,-0.004302979,-0.000314713,0.009332657,0,
00:02.3,-0.004308701,-0.000314713,0.009332657,0,
00:02.3,-0.004308701,-0.000314713,0.009344101,0,
00:02.3,-0.004314423,-0.00030899,0.009338379,0,
00:02.3,-0.004320145,-0.000314713,0.009349823,0,
00:02.3,-0.004308701,-0.000320435,0.009338379,0,
00:02.3,-0.004297256,-0.000314713,0.009332657,0,
00:02.3,-0.004302979,-0.000314713,0.009332657,0,
00:02.3,-0.004314423,-0.000314713,0.009344101,0,
00:02.3,-0.004314423,-0.000320435,0.009355545,0,
00:02.4,-0.004320145,-0.000320435,0.009332657,0,
00:02.4,-0.004314423,-0.000326157,0.009332657,0,
00:02.4,-0.004308701,-0.000320435,0.009355545,0,
00:02.4,-0.004325867,-0.000320435,0.009349823,0,
00:02.4,-0.004320145,-0.000320435,0.009349823,0,
00:02.4,-0.004308701,-0.000326157,0.009355545,0,
00:02.4,-0.004320145,-0.000326157,0.009355545,0,
00:02.4,-0.004325867,-0.000326157,0.009361267,0,
00:02.4,-0.004325867,-0.000326157,0.009349823,0,
00:02.4,-0.004337311,-0.000326157,0.009355545,0,
00:02.4,-0.004337311,-0.000331879,0.009366989,0,
00:02.4,-0.004337311,-0.000331879,0.009366989,0,
00:02.4,-0.004343033,-0.000331879,0.009361267,0,
00:02.4,-0.004331589,-0.000326157,0.009344101,0,
00:02.4,-0.004331589,-0.000326157,0.009355545,0,
00:02.4,-0.004337311,-0.000331879,0.009349823,0,
00:02.4,-0.004343033,-0.000326157,0.009361267,0,
00:02.4,-0.004343033,-0.000331879,0.009372711,0,
00:02.4,-0.004343033,-0.000331879,0.009366989,0,
00:02.4,-0.004343033,-0.000331879,0.009361267,0,
00:02.4,-0.004348755,-0.000331879,0.009372711,0,
00:02.4,-0.004348755,-0.000331879,0.009355545,0,
00:02.4,-0.004348755,-0.000331879,0.009389877,0,
00:02.4,-0.004360199,-0.000337601,0.009384155,0,
00:02.4,-0.004360199,-0.000337601,0.009366989,0,
00:02.5,-0.004354477,-0.000331879,0.009355545,0,
00:02.5,-0.004360199,-0.000337601,0.009378433,0,
00:02.5,-0.004360199,-0.000337601,0.009378433,0,
00:02.5,-0.004348755,-0.000331879,0.009372711,0,
00:02.5,-0.004365921,-0.000343323,0.009372711,0,
00:02.5,-0.004371643,-0.000343323,0.009389877,0,
00:02.5,-0.004365921,-0.000337601,0.009389877,0,
00:02.5,-0.004377365,-0.000343323,0.009389877,0,
00:02.5,-0.004371643,-0.000349045,0.009389877,0,
00:02.5,-0.004388809,-0.000343323,0.009384155,0,
00:02.5,-0.004383087,-0.000343323,0.009378433,0,
00:02.5,-0.004365921,-0.000337601,0.009395599,0,
00:02.5,-0.004365921,-0.000337601,0.009389877,0,
00:02.5,-0.004388809,-0.000337601,0.009389877,0,
00:02.5,-0.004388809,-0.000349045,0.009389877,0,
00:02.5,-0.004394531,-0.000354767,0.009395599,0,
00:02.5,-0.004411697,-0.000354767,0.009389877,0,
00:02.5,-0.004394531,-0.000354767,0.009407043,0,
00:02.5,-0.004394531,-0.000343323,0.009401321,0,
00:02.5,-0.004405975,-0.000343323,0.009401321,0,
00:02.5,-0.004411697,-0.000349045,0.009407043,0,
00:02.5,-0.004394531,-0.000349045,0.009418488,0,
00:02.5,-0.004400253,-0.000349045,0.009407043,0,
00:02.5,-0.004400253,-0.000349045,0.009401321,0,
00:02.5,-0.004400253,-0.000349045,0.009389877,0,
00:02.6,-0.004411697,-0.000349045,0.009407043,0,
00:02.6,-0.004417419,-0.000349045,0.009407043,0,
00:02.6,-0.004417419,-0.000354767,0.009407043,0,
00:02.6,-0.004417419,-0.000349045,0.009401321,0,
00:02.6,-0.004434586,-0.000349045,0.009395599,0,
00:02.6,-0.004428864,-0.000360489,0.00942421,0,
00:02.6,-0.004428864,-0.000360489,0.00942421,0,
00:02.6,-0.004434586,-0.000354767,0.009412766,0,
00:02.6,-0.004417419,-0.000349045,0.009407043,0,
00:02.6,-0.004428864,-0.000354767,0.009418488,0,
00:02.6,-0.00444603,-0.000360489,0.00942421,0,
00:02.6,-0.004440308,-0.000354767,0.009418488,0,
00:02.6,-0.00444603,-0.000354767,0.00942421,0,
00:02.6,-0.00444603,-0.000354767,0.009401321,0,
00:02.6,-0.00444603,-0.000354767,0.009407043,0,
00:02.6,-0.004457474,-0.000360489,0.009395599,0,
00:02.6,-0.00444603,-0.000366211,0.009412766,0,
00:02.6,-0.004451752,-0.000366211,0.00942421,0,
00:02.6,-0.004457474,-0.000366211,0.009429932,0,
00:02.6,-0.004463196,-0.000360489,0.009418488,0,
00:02.6,-0.004457474,-0.000360489,0.009412766,0,
00:02.6,-0.004468918,-0.000360489,0.009412766,0,
00:02.6,-0.004468918,-0.000366211,0.009429932,0,
00:02.6,-0.004463196,-0.000366211,0.009447098,0,
00:02.6,-0.004463196,-0.000360489,0.009418488,0,
00:02.7,-0.00447464,-0.000366211,0.009412766,0,
00:02.7,-0.004486084,-0.000366211,0.00942421,0,
00:02.7,-0.00447464,-0.000366211,0.009447098,0,
00:02.7,-0.004463196,-0.000360489,0.009435654,0,
00:02.7,-0.004468918,-0.000360489,0.009435654,0,
00:02.7,-0.004486084,-0.000366211,0.009429932,0,
00:02.7,-0.004491806,-0.000366211,0.009441376,0,
00:02.7,-0.004480362,-0.000360489,0.009429932,0,
00:02.7,-0.004497528,-0.000360489,0.009418488,0,
00:02.7,-0.004520416,-0.000371933,0.009447098,0,
00:02.7,-0.004497528,-0.000371933,0.009435654,0,
00:02.7,-0.004480362,-0.000366211,0.009429932,0,
00:02.7,-0.004480362,-0.000360489,0.009435654,0,
00:02.7,-0.00450325,-0.000371933,0.009429932,0,
00:02.7,-0.004514694,-0.000371933,0.009441376,0,
00:02.7,-0.004514694,-0.000371933,0.00942421,0,
00:02.7,-0.00450325,-0.000371933,0.009401321,0,
00:02.7,-0.004520416,-0.000371933,0.009429932,0,
00:02.7,-0.004520416,-0.000371933,0.009435654,0,
00:02.7,-0.004514694,-0.000371933,0.009435654,0,
00:02.7,-0.004514694,-0.000366211,0.00942421,0,
00:02.7,-0.004514694,-0.000371933,0.009435654,0,
00:02.7,-0.00453186,-0.000377655,0.009429932,0,
00:02.7,-0.004549026,-0.000377655,0.009441376,0,
00:02.7,-0.004554749,-0.000377655,0.009435654,0,
00:02.8,-0.004543304,-0.000377655,0.009418488,0,
00:02.8,-0.004537582,-0.000377655,0.009429932,0,
00:02.8,-0.004526138,-0.000371933,0.009435654,0,
00:02.8,-0.004520416,-0.000371933,0.00942421,0,
00:02.8,-0.004560471,-0.000371933,0.009418488,0,
00:02.8,-0.004566193,-0.000377655,0.009418488,0,
00:02.8,-0.004543304,-0.000377655,0.009412766,0,
00:02.8,-0.004537582,-0.000371933,0.009429932,0,
00:02.8,-0.004571915,-0.000371933,0.009418488,0,
00:02.8,-0.004577637,-0.000383377,0.009435654,0,
00:02.8,-0.004549026,-0.000371933,0.009412766,0,
00:02.8,-0.004537582,-0.000371933,0.009401321,0,
00:02.8,-0.004537582,-0.000371933,0.009435654,0,
00:02.8,-0.004566193,-0.000377655,0.009412766,0,
00:02.8,-0.004600525,-0.000383377,0.009418488,0,
00:02.8,-0.004589081,-0.000389099,0.009395599,0,
00:02.8,-0.004554749,-0.000383377,0.009429932,0,
00:02.8,-0.004566193,-0.000377655,0.009401321,0,
00:02.8,-0.004577637,-0.000377655,0.009412766,0,
00:02.8,-0.004589081,-0.000389099,0.009412766,0,
00:02.8,-0.004583359,-0.000383377,0.00942421,0,
00:02.8,-0.004577637,-0.000377655,0.009401321,0,
00:02.8,-0.004589081,-0.000383377,0.009401321,0,
00:02.8,-0.004589081,-0.000377655,0.009378433,0,
00:02.8,-0.004600525,-0.000383377,0.009389877,0,
00:02.9,-0.004600525,-0.000389099,0.00942421,0,
00:02.9,-0.004600525,-0.000383377,0.009395599,0,
00:02.9,-0.004600525,-0.000371933,0.009378433,0,
00:02.9,-0.004611969,-0.000377655,0.009395599,0,
00:02.9,-0.004611969,-0.000383377,0.009401321,0,
00:02.9,-0.004606247,-0.000383377,0.009401321,0,
00:02.9,-0.004606247,-0.000383377,0.009378433,0,
00:02.9,-0.004600525,-0.000383377,0.009366989,0,
00:02.9,-0.004617691,-0.000383377,0.009389877,0,
00:02.9,-0.004623413,-0.000389099,0.009389877,0,
00:02.9,-0.004623413,-0.000383377,0.009378433,0,
00:02.9,-0.004617691,-0.000389099,0.009384155,0,
00:02.9,-0.004617691,-0.000383377,0.009389877,0,
00:02.9,-0.004606247,-0.000371933,0.009366989,0,
00:02.9,-0.004617691,-0.000377655,0.009378433,0,
00:02.9,-0.004617691,-0.000377655,0.009361267,0,
00:02.9,-0.004611969,-0.000377655,0.009349823,0,
00:02.9,-0.004629135,-0.000383377,0.009361267,0,
00:02.9,-0.004640579,-0.000389099,0.009361267,0,
00:02.9,-0.004646301,-0.000389099,0.009361267,0,
00:02.9,-0.004646301,-0.000389099,0.009344101,0,
00:02.9,-0.004640579,-0.000383377,0.009338379,0,
00:02.9,-0.004634857,-0.000383377,0.009349823,0,
00:02.9,-0.004646301,-0.000389099,0.009355545,0,
00:02.9,-0.004652023,-0.000383377,0.009338379,0,
00:03.0,-0.004652023,-0.000389099,0.009332657,0,
00:03.0,-0.004646301,-0.000383377,0.009332657,0,
00:03.0,-0.004646301,-0.000383377,0.009321213,0,
00:03.0,-0.004657745,-0.000389099,0.009326935,0,
00:03.0,-0.004669189,-0.000389099,0.009321213,0,
00:03.0,-0.004669189,-0.000383377,0.009326935,0,
00:03.0,-0.004669189,-0.000383377,0.009315491,0,
00:03.0,-0.004680634,-0.000389099,0.009298325,0,
00:03.0,-0.004663467,-0.000377655,0.009298325,0,
00:03.0,-0.004652023,-0.000377655,0.009304047,0,
00:03.0,-0.004663467,-0.000383377,0.00928688,0,
00:03.0,-0.004663467,-0.000389099,0.00928688,0,
00:00:03,-0.004669189,-0.000383377,0.009281158,0,
00:03.0,-0.004669189,-0.000377655,0.009269714,0,
00:03.0,-0.004674911,-0.000383377,0.009292603,0,
00:03.0,-0.004674911,-0.000377655,0.009275436,0,
00:03.0,-0.004674911,-0.000389099,0.009269714,0,
00:03.0,-0.004663467,-0.000383377,0.00925827,0,
00:03.0,-0.004663467,-0.000383377,0.00925827,0,
00:03.0,-0.004680634,-0.000383377,0.009252548,0,
00:03.0,-0.004686356,-0.000383377,0.009241104,0,
00:03.0,-0.004692078,-0.000383377,0.00925827,0,
00:03.0,-0.004686356,-0.000389099,0.009223938,0,
00:03.0,-0.004686356,-0.000389099,0.009246826,0,
00:03.0,-0.004680634,-0.000383377,0.009235382,0,
00:03.1,-0.004692078,-0.000389099,0.009241104,0,
00:03.1,-0.004709244,-0.000389099,0.00922966,0,
00:03.1,-0.004703522,-0.000389099,0.009206772,0,
00:03.1,-0.004703522,-0.000389099,0.009218216,0,
00:03.1,-0.004703522,-0.000389099,0.009212494,0,
00:03.1,-0.004692078,-0.000389099,0.00920105,0,
00:03.1,-0.004680634,-0.000383377,0.009178162,0,
00:03.1,-0.0046978,-0.000383377,0.009183884,0,
00:03.1,-0.004703522,-0.000383377,0.009178162,0,
00:03.1,-0.004714966,-0.000389099,0.00917244,0,
00:03.1,-0.004720688,-0.000394821,0.009189606,0,
00:03.1,-0.004703522,-0.000394821,0.00917244,0,
00:03.1,-0.00472641,-0.000394821,0.009155273,0,
00:03.1,-0.004703522,-0.000383377,0.009138107,0,
00:03.1,-0.004703522,-0.000377655,0.009132385,0,
00:03.1,-0.004703522,-0.000389099,0.009149551,0,
00:03.1,-0.004709244,-0.000389099,0.009143829,0,
00:03.1,-0.004709244,-0.000383377,0.009120941,0,
00:03.1,-0.004720688,-0.000383377,0.009132385,0,
00:03.1,-0.004720688,-0.000383377,0.009103775,0,
00:03.1,-0.004714966,-0.000383377,0.009092331,0,
00:03.1,-0.004714966,-0.000394821,0.009115219,0,
00:03.1,-0.004720688,-0.000394821,0.009098053,0,
00:03.1,-0.00472641,-0.000394821,0.009092331,0,
00:03.1,-0.004737854,-0.000394821,0.009092331,0,
00:03.2,-0.004737854,-0.000394821,0.009086609,0,
00:03.2,-0.004737854,-0.000394821,0.009063721,0,
00:03.2,-0.004732132,-0.000394821,0.009052277,0,
00:03.2,-0.004737854,-0.000389099,0.009040833,0,
00:03.2,-0.004732132,-0.000389099,0.00903511,0,
00:03.2,-0.004732132,-0.000394821,0.009046555,0,
00:03.2,-0.00472641,-0.000394821,0.009023666,0,
00:03.2,-0.004720688,-0.000394821,0.009029388,0,
00:03.2,-0.00472641,-0.000394821,0.0090065,0,
00:03.2,-0.004732132,-0.000389099,0.009012222,0,
00:03.2,-0.004749298,-0.000394821,0.009012222,0,
00:03.2,-0.004749298,-0.000400543,0.0090065,0,
00:03.2,-0.00475502,-0.000400543,0.009000778,0,
00:03.2,-0.00475502,-0.000394821,0.00897789,0,
00:03.2,-0.004737854,-0.000394821,0.008966446,0,
00:03.2,-0.004737854,-0.000394821,0.008955002,0,
00:03.2,-0.004737854,-0.000394821,0.00894928,0,
00:03.2,-0.004732132,-0.000394821,0.008966446,0,
00:03.2,-0.004743576,-0.000394821,0.008937836,0,
00:03.2,-0.004743576,-0.000394821,0.008932114,0,
00:03.2,-0.004749298,-0.000400543,0.008937836,0,
00:03.2,-0.004749298,-0.000400543,0.00892067,0,
00:03.2,-0.004743576,-0.000394821,0.008914948,0,
00:03.2,-0.004749298,-0.000394821,0.008892059,0,
00:03.2,-0.004766464,-0.000400543,0.008886337,0,
00:03.3,-0.004766464,-0.000400543,0.008880615,0,
00:03.3,-0.004749298,-0.000400543,0.008857727,0,
00:03.3,-0.004737854,-0.000394821,0.008880615,0,
00:03.3,-0.004749298,-0.000400543,0.008869171,0,
00:03.3,-0.004749298,-0.000400543,0.008857727,0,
00:03.3,-0.004749298,-0.000394821,0.008829117,0,
00:03.3,-0.00475502,-0.000400543,0.008840561,0,
00:03.3,-0.004760742,-0.000406265,0.008817673,0,
00:03.3,-0.004766464,-0.000406265,0.008834839,0,
00:03.3,-0.004766464,-0.000400543,0.008823395,0,
00:03.3,-0.004772186,-0.000400543,0.008800507,0,
00:03.3,-0.00475502,-0.000406265,0.008789063,0,
00:03.3,-0.004749298,-0.000406265,0.008794785,0,
00:03.3,-0.004743576,-0.000400543,0.00878334,0,
00:03.3,-0.004760742,-0.000394821,0.00875473,0,
00:03.3,-0.004772186,-0.000406265,0.008743286,0,
00:03.3,-0.004772186,-0.000411987,0.008743286,0,
00:03.3,-0.004772186,-0.000406265,0.008749008,0,
00:03.3,-0.004766464,-0.000400543,0.008743286,0,
00:03.3,-0.004766464,-0.000400543,0.008720398,0,
00:03.3,-0.004772186,-0.000406265,0.008708954,0,
00:03.3,-0.004772186,-0.000411987,0.008703232,0,
00:03.3,-0.004766464,-0.000406265,0.008691788,0,
00:03.3,-0.004766464,-0.000400543,0.008680344,0,
00:03.3,-0.00475502,-0.000406265,0.008680344,0,
00:03.4,-0.004777908,-0.000411987,0.008680344,0,
00:03.4,-0.004777908,-0.000411987,0.008663177,0,
00:03.4,-0.004766464,-0.000411987,0.008634567,0,
00:03.4,-0.004772186,-0.000406265,0.008640289,0,
00:03.4,-0.004777908,-0.000411987,0.008623123,0,
00:03.4,-0.004777908,-0.000411987,0.008617401,0,
00:03.4,-0.004772186,-0.000417709,0.008623123,0,
00:03.4,-0.004772186,-0.000411987,0.008623123,0,
00:03.4,-0.004760742,-0.000406265,0.008577347,0,
00:03.4,-0.00475502,-0.000406265,0.008571625,0,
00:03.4,-0.00478363,-0.000411987,0.008583069,0,
00:03.4,-0.004789352,-0.000417709,0.008583069,0,
00:03.4,-0.004777908,-0.000411987,0.008565903,0,
00:03.4,-0.004772186,-0.000411987,0.008543015,0,
00:03.4,-0.004772186,-0.000411987,0.008543015,0,
00:03.4,-0.004777908,-0.000411987,0.008520126,0,
00:03.4,-0.004777908,-0.000417709,0.00853157,0,
00:03.4,-0.004766464,-0.000406265,0.008520126,0,
00:03.4,-0.004777908,-0.000406265,0.008497238,0,
00:03.4,-0.00478363,-0.000417709,0.008480072,0,
00:03.4,-0.004772186,-0.000411987,0.008468628,0,
00:03.4,-0.004766464,-0.000406265,0.00847435,0,
00:03.4,-0.004766464,-0.000411987,0.00847435,0,
00:03.4,-0.00478363,-0.000423431,0.00844574,0,
00:03.4,-0.004789352,-0.000423431,0.008451462,0,
00:03.5,-0.00478363,-0.000417709,0.008434296,0,
00:03.5,-0.00478363,-0.000417709,0.008422852,0,
00:03.5,-0.004789352,-0.000423431,0.00841713,0,
00:03.5,-0.004789352,-0.000423431,0.008411407,0,
00:03.5,-0.00478363,-0.000423431,0.008394241,0,
00:03.5,-0.004789352,-0.000423431,0.008377075,0,
00:03.5,-0.00478363,-0.000423431,0.008382797,0,
00:03.5,-0.004766464,-0.000417709,0.008354187,0,
00:03.5,-0.00478363,-0.000417709,0.008359909,0,
00:03.5,-0.00478363,-0.000417709,0.008359909,0,
00:03.5,-0.004789352,-0.000423431,0.008348465,0,
00:03.5,-0.004789352,-0.000417709,0.008308411,0,
00:03.5,-0.004795074,-0.000417709,0.008325577,0,
00:03.5,-0.004789352,-0.000417709,0.008314133,0,
00:03.5,-0.004772186,-0.000423431,0.008308411,0,
00:03.5,-0.004772186,-0.000423431,0.008256912,0,
00:03.5,-0.004772186,-0.000417709,0.008274078,0,
00:03.5,-0.004795074,-0.000423431,0.008268356,0,
00:03.5,-0.004800797,-0.000423431,0.008268356,0,
00:03.5,-0.004789352,-0.000423431,0.0082798,0,
00:03.5,-0.00478363,-0.000417709,0.008228302,0,
00:03.5,-0.00478363,-0.000417709,0.008228302,0,
00:03.5,-0.00478363,-0.000417709,0.00822258,0,
00:03.5,-0.004795074,-0.000417709,0.008228302,0,
00:03.5,-0.004789352,-0.000417709,0.008211136,0,
00:03.6,-0.004789352,-0.000423431,0.00819397,0,
00:03.6,-0.004789352,-0.000423431,0.008182526,0,
00:03.6,-0.004777908,-0.000411987,0.008159637,0,
00:03.6,-0.004777908,-0.000406265,0.008188248,0,
00:03.6,-0.004795074,-0.000417709,0.008171082,0,
00:03.6,-0.00478363,-0.000411987,0.008148193,0,
00:03.6,-0.00478363,-0.000411987,0.008148193,0,
00:03.6,-0.004789352,-0.000411987,0.008142471,0,
00:03.6,-0.004806519,-0.000417709,0.008119583,0,
00:03.6,-0.004806519,-0.000417709,0.008119583,0,
00:03.6,-0.004795074,-0.000423431,0.008102417,0,
00:03.6,-0.00478363,-0.000417709,0.008096695,0,
00:03.6,-0.004789352,-0.000411987,0.008068085,0,
00:03.6,-0.004795074,-0.000417709,0.008085251,0,
00:03.6,-0.004789352,-0.000417709,0.008079529,0,
00:03.6,-0.004795074,-0.000423431,0.008068085,0,
00:03.6,-0.004789352,-0.000411987,0.008050919,0,
00:03.6,-0.004800797,-0.000406265,0.008039474,0,
00:03.6,-0.004800797,-0.000411987,0.008056641,0,
00:03.6,-0.004789352,-0.000411987,0.008045197,0,
00:03.6,-0.00478363,-0.000411987,0.008016586,0,
00:03.6,-0.004800797,-0.000417709,0.007987976,0,
00:03.6,-0.004806519,-0.000423431,0.008005142,0,
00:03.6,-0.004800797,-0.000411987,0.00802803,0,
00:03.6,-0.004795074,-0.000406265,0.00799942,0,
00:03.7,-0.004777908,-0.000406265,0.007976532,0,
00:03.7,-0.004772186,-0.000406265,0.007965088,0,
00:03.7,-0.004789352,-0.000406265,0.007965088,0,
00:03.7,-0.004795074,-0.000411987,0.007959366,0,
00:03.7,-0.004789352,-0.000411987,0.007953644,0,
00:03.7,-0.00478363,-0.000406265,0.007953644,0,
00:03.7,-0.004800797,-0.000411987,0.007925034,0,
00:03.7,-0.004806519,-0.000411987,0.0079422,0,
00:03.7,-0.004795074,-0.000400543,0.007925034,0,
00:03.7,-0.00478363,-0.000400543,0.007913589,0,
00:03.7,-0.004789352,-0.000400543,0.007902145,0,
00:03.7,-0.004800797,-0.000400543,0.007884979,0,
00:03.7,-0.004806519,-0.000406265,0.007896423,0,
00:03.7,-0.004800797,-0.000406265,0.007890701,0,
00:03.7,-0.004795074,-0.000411987,0.007873535,0,
00:03.7,-0.004789352,-0.000406265,0.007850647,0,
00:03.7,-0.004800797,-0.000406265,0.007879257,0,
00:03.7,-0.004812241,-0.000406265,0.007873535,0,
00:03.7,-0.004800797,-0.000406265,0.007856369,0,
00:03.7,-0.004795074,-0.000394821,0.007850647,0,
00:03.7,-0.004795074,-0.000400543,0.007822037,0,
00:03.7,-0.004795074,-0.000406265,0.007816315,0,
00:03.7,-0.004800797,-0.000400543,0.007822037,0,
00:03.7,-0.004800797,-0.000400543,0.007804871,0,
00:03.7,-0.004800797,-0.000400543,0.007764816,0,
00:03.8,-0.004789352,-0.000400543,0.007799149,0,
00:03.8,-0.00478363,-0.000400543,0.007810593,0,
00:03.8,-0.004795074,-0.000400543,0.007781982,0,
00:03.8,-0.004800797,-0.000400543,0.007781982,0,
00:03.8,-0.004789352,-0.000406265,0.007781982,0,
00:03.8,-0.00478363,-0.000406265,0.007764816,0,
00:03.8,-0.00478363,-0.000400543,0.007764816,0,
00:03.8,-0.004795074,-0.000406265,0.007741928,0,
00:03.8,-0.004795074,-0.000406265,0.007753372,0,
00:03.8,-0.004800797,-0.000411987,0.007730484,0,
00:03.8,-0.004789352,-0.000406265,0.007730484,0,
00:03.8,-0.004795074,-0.000394821,0.00771904,0,
00:03.8,-0.004806519,-0.000400543,0.007701874,0,
00:03.8,-0.004795074,-0.000400543,0.007701874,0,
00:03.8,-0.004795074,-0.000406265,0.007701874,0,
00:03.8,-0.00478363,-0.000406265,0.007678986,0,
00:03.8,-0.004777908,-0.000406265,0.007673264,0,
00:03.8,-0.004800797,-0.000406265,0.00769043,0,
00:03.8,-0.004806519,-0.000411987,0.007678986,0,
00:03.8,-0.004789352,-0.000411987,0.007661819,0,
00:03.8,-0.004772186,-0.000406265,0.007633209,0,
00:03.8,-0.004789352,-0.000411987,0.007661819,0,
00:03.8,-0.004806519,-0.000411987,0.007644653,0,
00:03.8,-0.004800797,-0.000406265,0.007644653,0,
00:03.8,-0.004795074,-0.000411987,0.007633209,0,
00:03.9,-0.00478363,-0.000406265,0.007616043,0,
00:03.9,-0.004789352,-0.000411987,0.007633209,0,
00:03.9,-0.004789352,-0.000411987,0.007610321,0,
00:03.9,-0.004777908,-0.000406265,0.007575989,0,
00:03.9,-0.004772186,-0.000406265,0.007593155,0,
00:03.9,-0.004777908,-0.000411987,0.007604599,0,
00:03.9,-0.004789352,-0.000411987,0.007598877,0,
00:03.9,-0.004806519,-0.000411987,0.007593155,0,
00:03.9,-0.004806519,-0.000411987,0.007575989,0,
00:03.9,-0.004795074,-0.000417709,0.007570267,0,
00:03.9,-0.004772186,-0.000406265,0.007558823,0,
00:03.9,-0.004772186,-0.000400543,0.007547379,0,
00:03.9,-0.004772186,-0.000400543,0.00752449,0,
00:03.9,-0.00478363,-0.000411987,0.007547379,0,
00:03.9,-0.004789352,-0.000411987,0.007558823,0,
00:03.9,-0.00478363,-0.000417709,0.007547379,0,
00:03.9,-0.004777908,-0.000417709,0.007518768,0,
00:03.9,-0.004789352,-0.000417709,0.00752449,0,
00:03.9,-0.004789352,-0.000417709,0.00752449,0,
00:03.9,-0.00478363,-0.000411987,0.007507324,0,
00:03.9,-0.00478363,-0.000406265,0.007518768,0,
00:03.9,-0.004795074,-0.000406265,0.007501602,0,
00:03.9,-0.004789352,-0.000411987,0.007513046,0,
00:03.9,-0.004789352,-0.000411987,0.007501602,0,
00:03.9,-0.004795074,-0.000406265,0.007478714,0,
00:04.0,-0.00478363,-0.000411987,0.007484436,0,
00:04.0,-0.00478363,-0.000417709,0.007478714,0,
00:04.0,-0.00478363,-0.000411987,0.00746727,0,
00:04.0,-0.00478363,-0.000406265,0.007472992,0,
00:04.0,-0.004795074,-0.000411987,0.007472992,0,
00:04.0,-0.004795074,-0.000417709,0.007455826,0,
00:04.0,-0.004789352,-0.000423431,0.007450104,0,
00:04.0,-0.004777908,-0.000417709,0.00746727,0,
00:04.0,-0.00478363,-0.000411987,0.007444382,0,
00:04.0,-0.004795074,-0.000417709,0.00743866,0,
00:04.0,-0.004789352,-0.000423431,0.007427216,0,
00:04.0,-0.004789352,-0.000417709,0.007421494,0,
00:00:04,-0.004789352,-0.000423431,0.007444382,0,
00:04.0,-0.00478363,-0.000417709,0.00743866,0,
00:04.0,-0.004777908,-0.000411987,0.007410049,0,
00:04.0,-0.004766464,-0.000417709,0.007398605,0,
00:04.0,-0.004760742,-0.000411987,0.007427216,0,
00:04.0,-0.004766464,-0.000417709,0.007410049,0,
00:04.0,-0.004772186,-0.000417709,0.007421494,0,
00:04.0,-0.00478363,-0.000411987,0.007398605,0,
00:04.0,-0.004789352,-0.000417709,0.007392883,0,
00:04.0,-0.004789352,-0.000417709,0.007398605,0,
00:04.0,-0.004777908,-0.000417709,0.007375717,0,
00:04.0,-0.004760742,-0.000417709,0.007369995,0,
00:04.0,-0.004772186,-0.000411987,0.007364273,0,
00:04.1,-0.004795074,-0.000417709,0.007375717,0,
00:04.1,-0.00478363,-0.000423431,0.007375717,0,
00:04.1,-0.004789352,-0.000429153,0.007369995,0,
00:04.1,-0.004795074,-0.000423431,0.007341385,0,
00:04.1,-0.00478363,-0.000417709,0.007307053,0,
00:04.1,-0.004772186,-0.000423431,0.007352829,0,
00:04.1,-0.004772186,-0.000417709,0.007347107,0,
00:04.1,-0.004777908,-0.000417709,0.007347107,0,
00:04.1,-0.00478363,-0.000423431,0.007352829,0,
00:04.1,-0.00478363,-0.000429153,0.007352829,0,
00:04.1,-0.004777908,-0.000423431,0.007335663,0,
00:04.1,-0.004789352,-0.000429153,0.007318497,0,
00:04.1,-0.004795074,-0.000429153,0.007301331,0,
00:04.1,-0.00478363,-0.000429153,0.007307053,0,
00:04.1,-0.004760742,-0.000429153,0.007307053,0,
00:04.1,-0.004772186,-0.000434875,0.007329941,0,
00:04.1,-0.004777908,-0.000429153,0.007324219,0,
00:04.1,-0.004789352,-0.000429153,0.007295609,0,
00:04.1,-0.004777908,-0.000434875,0.007301331,0,
00:04.1,-0.004772186,-0.000429153,0.00727272,0,
00:04.1,-0.004766464,-0.000423431,0.007255554,0,
00:04.1,-0.004777908,-0.000429153,0.007289886,0,
00:04.1,-0.004777908,-0.000429153,0.007307053,0,
00:04.1,-0.004772186,-0.000429153,0.007295609,0,
00:04.1,-0.004777908,-0.000434875,0.00727272,0,
00:04.2,-0.004777908,-0.000440598,0.007278442,0,
00:04.2,-0.004772186,-0.000440598,0.007284164,0,
00:04.2,-0.00478363,-0.000440598,0.007266998,0,
00:04.2,-0.004795074,-0.000434875,0.007261276,0,
00:04.2,-0.00478363,-0.000434875,0.007266998,0,
00:04.2,-0.004777908,-0.000440598,0.00724411,0,
00:04.2,-0.00475502,-0.000434875,0.007255554,0,
00:04.2,-0.004760742,-0.000429153,0.007238388,0,
00:04.2,-0.004777908,-0.000434875,0.007226944,0,
00:04.2,-0.00478363,-0.000440598,0.007226944,0,
00:04.2,-0.004777908,-0.000440598,0.007221222,0,
00:04.2,-0.004760742,-0.000434875,0.00724411,0,
00:04.2,-0.004766464,-0.000434875,0.007232666,0,
00:04.2,-0.004772186,-0.000434875,0.007204056,0,
00:04.2,-0.004766464,-0.000434875,0.007232666,0,
00:04.2,-0.00475502,-0.000434875,0.007221222,0,
00:04.2,-0.004760742,-0.000434875,0.0072155,0,
00:04.2,-0.004777908,-0.000434875,0.007209778,0,
00:04.2,-0.00478363,-0.000440598,0.007221222,0,
00:04.2,-0.004777908,-0.000440598,0.0072155,0,
00:04.2,-0.004760742,-0.000434875,0.007221222,0,
00:04.2,-0.004749298,-0.000440598,0.007209778,0,
00:04.2,-0.004760742,-0.000429153,0.007198334,0,
00:04.2,-0.004760742,-0.000423431,0.00718689,0,
00:04.2,-0.004766464,-0.000429153,0.007198334,0,
00:04.3,-0.004760742,-0.000434875,0.007192612,0,
00:04.3,-0.00475502,-0.000434875,0.007192612,0,
00:04.3,-0.004760742,-0.000434875,0.007204056,0,
00:04.3,-0.004766464,-0.000434875,0.007198334,0,
00:04.3,-0.004760742,-0.000429153,0.007181168,0,
00:04.3,-0.00475502,-0.000429153,0.007152557,0,
00:04.3,-0.004749298,-0.000429153,0.007169724,0,
00:04.3,-0.004766464,-0.000429153,0.007198334,0,
00:04.3,-0.004772186,-0.000440598,0.007175446,0,
00:04.3,-0.004760742,-0.000434875,0.007169724,0,
00:04.3,-0.004749298,-0.000434875,0.00718689,0,
00:04.3,-0.00475502,-0.000434875,0.007181168,0,
00:04.3,-0.004766464,-0.000434875,0.007175446,0,
00:04.3,-0.004760742,-0.000434875,0.007146835,0,
00:04.3,-0.004749298,-0.000434875,0.007164001,0,
00:04.3,-0.00475502,-0.000434875,0.007158279,0,
00:04.3,-0.004743576,-0.000434875,0.007164001,0,
00:04.3,-0.004743576,-0.000429153,0.007175446,0,
00:04.3,-0.004749298,-0.000429153,0.007146835,0,
00:04.3,-0.004749298,-0.000429153,0.007158279,0,
00:04.3,-0.004760742,-0.000440598,0.007158279,0,
00:04.3,-0.00475502,-0.000429153,0.007106781,0,
00:04.3,-0.00475502,-0.000429153,0.007141113,0,
00:04.3,-0.004772186,-0.000429153,0.007164001,0,
00:04.3,-0.004772186,-0.000434875,0.007141113,0,
00:04.4,-0.004749298,-0.000434875,0.007152557,0,
00:04.4,-0.004732132,-0.000434875,0.007146835,0,
00:04.4,-0.004732132,-0.000429153,0.007146835,0,
00:04.4,-0.004732132,-0.000429153,0.007146835,0,
00:04.4,-0.004737854,-0.000429153,0.007135391,0,
00:04.4,-0.004760742,-0.000429153,0.007123947,0,
00:04.4,-0.004760742,-0.000434875,0.007129669,0,
00:04.4,-0.004749298,-0.000434875,0.007123947,0,
00:04.4,-0.004749298,-0.000429153,0.007135391,0,
00:04.4,-0.004749298,-0.000429153,0.007141113,0,
00:04.4,-0.004737854,-0.000429153,0.007129669,0,
00:04.4,-0.004743576,-0.000429153,0.007106781,0,
00:04.4,-0.00475502,-0.000434875,0.007123947,0,
00:04.4,-0.004749298,-0.000429153,0.007106781,0,
00:04.4,-0.004732132,-0.000429153,0.007101059,0,
00:04.4,-0.004743576,-0.000429153,0.007112503,0,
00:04.4,-0.004732132,-0.000429153,0.007123947,0,
00:04.4,-0.004737854,-0.000434875,0.007129669,0,
00:04.4,-0.004749298,-0.000440598,0.007123947,0,
00:04.4,-0.004737854,-0.000434875,0.007118225,0,
00:04.4,-0.004737854,-0.000434875,0.007089615,0,
00:04.4,-0.00472641,-0.000434875,0.007066727,0,
00:04.4,-0.004737854,-0.000429153,0.007129669,0,
00:04.4,-0.004737854,-0.000434875,0.007123947,0,
00:04.4,-0.004732132,-0.000434875,0.007112503,0,
00:04.5,-0.00472641,-0.000429153,0.007106781,0,
00:04.5,-0.004720688,-0.000429153,0.007089615,0,
00:04.5,-0.00472641,-0.000434875,0.007101059,0,
00:04.5,-0.004732132,-0.000434875,0.007106781,0,
00:04.5,-0.00472641,-0.000434875,0.007095337,0,
00:04.5,-0.00472641,-0.000434875,0.007095337,0,
00:04.5,-0.004732132,-0.000434875,0.007089615,0,
00:04.5,-0.004737854,-0.000434875,0.007106781,0,
00:04.5,-0.00472641,-0.000429153,0.007083893,0,
00:04.5,-0.004720688,-0.000429153,0.007101059,0,
00:04.5,-0.00472641,-0.000429153,0.007095337,0,
00:04.5,-0.004737854,-0.000434875,0.007072449,0,
00:04.5,-0.00472641,-0.000440598,0.007078171,0,
00:04.5,-0.00472641,-0.000434875,0.007083893,0,
00:04.5,-0.004737854,-0.000440598,0.007106781,0,
00:04.5,-0.004732132,-0.000440598,0.007089615,0,
00:04.5,-0.00472641,-0.000434875,0.007078171,0,
00:04.5,-0.004720688,-0.000429153,0.007078171,0,
00:04.5,-0.004714966,-0.000429153,0.007078171,0,
00:04.5,-0.00472641,-0.000429153,0.007072449,0,
00:04.5,-0.004732132,-0.000434875,0.007066727,0,
00:04.5,-0.004714966,-0.000429153,0.007061005,0,
00:04.5,-0.004714966,-0.000423431,0.007061005,0,
00:04.5,-0.004720688,-0.000434875,0.007055283,0,
00:04.5,-0.004720688,-0.000434875,0.007089615,0,
00:04.6,-0.00472641,-0.000434875,0.007066727,0,
00:04.6,-0.004714966,-0.000429153,0.007066727,0,
00:04.6,-0.004732132,-0.000434875,0.007055283,0,
00:04.6,-0.004732132,-0.000429153,0.007049561,0,
00:04.6,-0.004720688,-0.000429153,0.007066727,0,
00:04.6,-0.004703522,-0.000423431,0.007066727,0,
00:04.6,-0.004720688,-0.000429153,0.007049561,0,
00:04.6,-0.004720688,-0.000429153,0.007049561,0,
00:04.6,-0.004720688,-0.000429153,0.007072449,0,
00:04.6,-0.004720688,-0.000434875,0.007055283,0,
00:04.6,-0.004714966,-0.000434875,0.007049561,0,
00:04.6,-0.004714966,-0.000429153,0.007055283,0,
00:04.6,-0.004720688,-0.000434875,0.007049561,0,
00:04.6,-0.004732132,-0.00044632,0.007061005,0,
00:04.6,-0.004737854,-0.000440598,0.007032394,0,
00:04.6,-0.004743576,-0.000440598,0.007061005,0,
00:04.6,-0.004732132,-0.000434875,0.007061005,0,
00:04.6,-0.00472641,-0.000429153,0.007038116,0,
00:04.6,-0.004703522,-0.000423431,0.007049561,0,
00:04.6,-0.0046978,-0.000429153,0.007049561,0,
00:04.6,-0.004703522,-0.000423431,0.007032394,0,
00:04.6,-0.004692078,-0.000423431,0.007015228,0,
00:04.6,-0.004709244,-0.000423431,0.007049561,0,
00:04.6,-0.004732132,-0.000429153,0.007038116,0,
00:04.6,-0.004737854,-0.000434875,0.007026672,0,
00:04.7,-0.004709244,-0.000429153,0.007038116,0,
00:04.7,-0.004692078,-0.000411987,0.007038116,0,
00:04.7,-0.004709244,-0.000423431,0.007043839,0,
00:04.7,-0.004720688,-0.000423431,0.007043839,0,
00:04.7,-0.004714966,-0.000429153,0.007038116,0,
00:04.7,-0.00472641,-0.000429153,0.007032394,0,
00:04.7,-0.004732132,-0.000423431,0.007026672,0,
00:04.7,-0.0046978,-0.000429153,0.007032394,0,
00:04.7,-0.004709244,-0.000429153,0.007061005,0,
00:04.7,-0.004720688,-0.000429153,0.007038116,0,
00:04.7,-0.004714966,-0.000423431,0.007015228,0,
00:04.7,-0.004709244,-0.000423431,0.007026672,0,
00:04.7,-0.004714966,-0.000423431,0.007038116,0,
00:04.7,-0.004709244,-0.000423431,0.007015228,0,
00:04.7,-0.004703522,-0.000417709,0.007032394,0,
00:04.7,-0.004714966,-0.000423431,0.007038116,0,
00:04.7,-0.004720688,-0.000423431,0.007026672,0,
00:04.7,-0.004709244,-0.000417709,0.007038116,0,
00:04.7,-0.004703522,-0.000417709,0.007032394,0,
00:04.7,-0.004709244,-0.000417709,0.007038116,0,
00:04.7,-0.004709244,-0.000417709,0.007043839,0,
00:04.7,-0.0046978,-0.000411987,0.007032394,0,
00:04.7,-0.004703522,-0.000411987,0.00702095,0,
00:04.7,-0.004709244,-0.000417709,0.007026672,0,
00:04.7,-0.004709244,-0.000417709,0.007049561,0,
00:04.8,-0.004709244,-0.000417709,0.007043839,0,
00:04.8,-0.004703522,-0.000411987,0.007038116,0,
00:04.8,-0.0046978,-0.000406265,0.00702095,0,
00:04.8,-0.004709244,-0.000411987,0.007038116,0,
00:04.8,-0.004703522,-0.000411987,0.007043839,0,
00:04.8,-0.0046978,-0.000411987,0.007032394,0,
00:04.8,-0.004703522,-0.000411987,0.007038116,0,
00:04.8,-0.004714966,-0.000411987,0.00702095,0,
00:04.8,-0.004692078,-0.000411987,0.007015228,0,
00:04.8,-0.004692078,-0.000411987,0.007026672,0,
00:04.8,-0.0046978,-0.000411987,0.007043839,0,
00:04.8,-0.0046978,-0.000400543,0.007032394,0,
00:04.8,-0.0046978,-0.000406265,0.007038116,0,
00:04.8,-0.004703522,-0.000406265,0.00702095,0,
00:04.8,-0.004709244,-0.000411987,0.007009506,0,
00:04.8,-0.004703522,-0.000406265,0.007043839,0,
00:04.8,-0.004692078,-0.000406265,0.007049561,0,
00:04.8,-0.0046978,-0.000406265,0.007043839,0,
00:04.8,-0.004709244,-0.000411987,0.007043839,0,
00:04.8,-0.0046978,-0.000411987,0.007038116,0,
00:04.8,-0.004686356,-0.000400543,0.007038116,0,
00:04.8,-0.0046978,-0.000400543,0.007043839,0,
00:04.8,-0.004709244,-0.000400543,0.007043839,0,
00:04.8,-0.004709244,-0.000400543,0.007038116,0,
00:04.8,-0.004703522,-0.000406265,0.007038116,0,
00:04.9,-0.004686356,-0.000406265,0.007026672,0,
00:04.9,-0.004680634,-0.000400543,0.007032394,0,
00:04.9,-0.004686356,-0.000400543,0.007049561,0,
00:04.9,-0.0046978,-0.000394821,0.007032394,0,
00:04.9,-0.004703522,-0.000400543,0.007026672,0,
00:04.9,-0.004703522,-0.000406265,0.00702095,0,
00:04.9,-0.004703522,-0.000400543,0.007043839,0,
00:04.9,-0.0046978,-0.000394821,0.007049561,0,
00:04.9,-0.0046978,-0.000394821,0.007049561,0,
00:04.9,-0.004703522,-0.000394821,0.007038116,0,
00:04.9,-0.0046978,-0.000394821,0.007043839,0,
00:04.9,-0.004703522,-0.000389099,0.007038116,0,
00:04.9,-0.004686356,-0.000383377,0.007015228,0,
00:04.9,-0.004680634,-0.000394821,0.007043839,0,
00:04.9,-0.004680634,-0.000394821,0.007038116,0,
00:04.9,-0.004686356,-0.000389099,0.007049561,0,
00:04.9,-0.0046978,-0.000383377,0.007066727,0,
00:04.9,-0.0046978,-0.000389099,0.007049561,0,
00:04.9,-0.004692078,-0.000394821,0.007049561,0,
00:04.9,-0.004674911,-0.000389099,0.007049561,0,
00:04.9,-0.004686356,-0.000383377,0.007043839,0,
00:04.9,-0.004703522,-0.000383377,0.007055283,0,
00:04.9,-0.0046978,-0.000389099,0.007026672,0,
00:04.9,-0.004686356,-0.000389099,0.007015228,0,
00:04.9,-0.004680634,-0.000389099,0.007078171,0,
00:05.0,-0.004674911,-0.000389099,0.007055283,0,
00:05.0,-0.004686356,-0.000383377,0.007032394,0,
00:05.0,-0.004692078,-0.000383377,0.007061005,0,
00:05.0,-0.004686356,-0.000377655,0.007061005,0,
00:05.0,-0.004686356,-0.000383377,0.007049561,0,
00:05.0,-0.004680634,-0.000383377,0.007049561,0,
00:05.0,-0.004680634,-0.000383377,0.007055283,0,
00:05.0,-0.004680634,-0.000383377,0.007055283,0,
00:05.0,-0.004692078,-0.000389099,0.007072449,0,
00:05.0,-0.0046978,-0.000383377,0.007061005,0,
00:05.0,-0.004680634,-0.000383377,0.007038116,0,
00:05.0,-0.004669189,-0.000377655,0.007066727,0,
00:00:05,-0.004674911,-0.000383377,0.007066727,0,
00:05.0,-0.004680634,-0.000383377,0.007049561,0,
00:05.0,-0.004686356,-0.000377655,0.007049561,0,
00:05.0,-0.004692078,-0.000383377,0.007072449,0,
00:05.0,-0.004686356,-0.000383377,0.007066727,0,
00:05.0,-0.004692078,-0.000383377,0.007055283,0,
00:05.0,-0.004680634,-0.000389099,0.007078171,0,
00:05.0,-0.004674911,-0.000389099,0.007038116,0,
00:05.0,-0.004680634,-0.000377655,0.007043839,0,
00:05.0,-0.0046978,-0.000377655,0.007095337,0,
00:05.0,-0.004680634,-0.000377655,0.007072449,0,
00:05.0,-0.004674911,-0.000377655,0.007066727,0,
00:05.0,-0.004674911,-0.000377655,0.007072449,0,
00:05.1,-0.004674911,-0.000371933,0.007066727,0,
00:05.1,-0.004686356,-0.000383377,0.007055283,0,
00:05.1,-0.004686356,-0.000383377,0.007078171,0,
00:05.1,-0.004692078,-0.000383377,0.007078171,0,
00:05.1,-0.004680634,-0.000383377,0.007066727,0,
00:05.1,-0.004680634,-0.000383377,0.007089615,0,
00:05.1,-0.004674911,-0.000383377,0.007089615,0,
00:05.1,-0.004674911,-0.000371933,0.007083893,0,
00:05.1,-0.004686356,-0.000377655,0.007083893,0,
00:05.1,-0.004680634,-0.000377655,0.007072449,0,
00:05.1,-0.004669189,-0.000371933,0.007083893,0,
00:05.1,-0.004680634,-0.000371933,0.007072449,0,
00:05.1,-0.004692078,-0.000377655,0.007078171,0,
00:05.1,-0.004680634,-0.000377655,0.007106781,0,
00:05.1,-0.004674911,-0.000377655,0.007078171,0,
00:05.1,-0.004686356,-0.000377655,0.007089615,0,
00:05.1,-0.004686356,-0.000377655,0.007101059,0,
00:05.1,-0.004680634,-0.000371933,0.007089615,0,
00:05.1,-0.004669189,-0.000366211,0.007083893,0,
00:05.1,-0.004669189,-0.000371933,0.007089615,0,
00:05.1,-0.004680634,-0.000377655,0.007089615,0,
00:05.1,-0.004674911,-0.000377655,0.007089615,0,
00:05.1,-0.004680634,-0.000371933,0.007089615,0,
00:05.1,-0.004680634,-0.000371933,0.007089615,0,
00:05.1,-0.004663467,-0.000371933,0.007106781,0,
00:05.2,-0.004680634,-0.000366211,0.007083893,0,
00:05.2,-0.004686356,-0.000371933,0.007089615,0,
00:05.2,-0.004680634,-0.000371933,0.007106781,0,
00:05.2,-0.004674911,-0.000366211,0.007101059,0,
00:05.2,-0.004674911,-0.000366211,0.007055283,0,
00:05.2,-0.004669189,-0.000366211,0.007083893,0,
00:05.2,-0.004674911,-0.000371933,0.007106781,0,
00:05.2,-0.004674911,-0.000366211,0.007106781,0,
00:05.2,-0.004669189,-0.000366211,0.007101059,0,
00:05.2,-0.004663467,-0.000360489,0.007106781,0,
00:05.2,-0.004663467,-0.000360489,0.007089615,0,
00:05.2,-0.004674911,-0.000360489,0.007089615,0,
00:05.2,-0.004680634,-0.000366211,0.007095337,0,
00:05.2,-0.004663467,-0.000366211,0.007112503,0,
00:05.2,-0.004657745,-0.000360489,0.007106781,0,
00:05.2,-0.004663467,-0.000354767,0.007095337,0,
00:05.2,-0.004657745,-0.000360489,0.007089615,0,
00:05.2,-0.004669189,-0.000360489,0.007106781,0,
00:05.2,-0.004674911,-0.000354767,0.007118225,0,
00:05.2,-0.004663467,-0.000360489,0.007101059,0,
00:05.2,-0.004652023,-0.000360489,0.007106781,0,
00:05.2,-0.004652023,-0.000354767,0.007101059,0,
00:05.2,-0.004663467,-0.000354767,0.007112503,0,
00:05.2,-0.004674911,-0.000354767,0.007095337,0,
00:05.2,-0.004663467,-0.000354767,0.007101059,0,
00:05.3,-0.004646301,-0.000354767,0.007129669,0,
00:05.3,-0.004663467,-0.000354767,0.007129669,0,
00:05.3,-0.004669189,-0.000354767,0.007112503,0,
00:05.3,-0.004663467,-0.000354767,0.007118225,0,
00:05.3,-0.004663467,-0.000354767,0.007118225,0,
00:05.3,-0.004657745,-0.000343323,0.007123947,0,
00:05.3,-0.004652023,-0.000343323,0.007112503,0,
00:05.3,-0.004657745,-0.000354767,0.007118225,0,
00:05.3,-0.004657745,-0.000354767,0.007141113,0,
00:05.3,-0.004663467,-0.000349045,0.007129669,0,
00:05.3,-0.004674911,-0.000349045,0.007135391,0,
00:05.3,-0.004669189,-0.000349045,0.007123947,0,
00:05.3,-0.004663467,-0.000343323,0.007112503,0,
00:05.3,-0.004646301,-0.000343323,0.007123947,0,
00:05.3,-0.004646301,-0.000349045,0.007123947,0,
00:05.3,-0.004657745,-0.000349045,0.007141113,0,
00:05.3,-0.004657745,-0.000349045,0.007141113,0,
00:05.3,-0.004657745,-0.000343323,0.007123947,0,
00:05.3,-0.004652023,-0.000349045,0.007123947,0,
00:05.3,-0.004657745,-0.000349045,0.007129669,0,
00:05.3,-0.004652023,-0.000354767,0.007146835,0,
00:05.3,-0.004657745,-0.000349045,0.007135391,0,
00:05.3,-0.004652023,-0.000349045,0.007146835,0,
00:05.3,-0.004652023,-0.000343323,0.007152557,0,
00:05.3,-0.004646301,-0.000343323,0.007152557,0,
00:05.4,-0.004640579,-0.000349045,0.007129669,0,
00:05.4,-0.004657745,-0.000349045,0.007135391,0,
00:05.4,-0.004663467,-0.000354767,0.007158279,0,
00:05.4,-0.004646301,-0.000354767,0.007158279,0,
00:05.4,-0.004652023,-0.000354767,0.007146835,0,
00:05.4,-0.004657745,-0.000349045,0.007141113,0,
00:05.4,-0.004663467,-0.000349045,0.007152557,0,
00:05.4,-0.004669189,-0.000349045,0.007164001,0,
00:05.4,-0.004663467,-0.000354767,0.007158279,0,
00:05.4,-0.004657745,-0.000354767,0.007169724,0,
00:05.4,-0.004657745,-0.000354767,0.007158279,0,
00:05.4,-0.004663467,-0.000343323,0.007152557,0,
00:05.4,-0.004657745,-0.000343323,0.007152557,0,
00:05.4,-0.004657745,-0.000343323,0.007146835,0,
00:05.4,-0.004663467,-0.000343323,0.007164001,0,
00:05.4,-0.004669189,-0.000349045,0.007175446,0,
00:05.4,-0.004663467,-0.000349045,0.007192612,0,
00:05.4,-0.004652023,-0.000331879,0.007192612,0,
00:05.4,-0.004652023,-0.000337601,0.007169724,0,
00:05.4,-0.004652023,-0.000337601,0.007175446,0,
00:05.4,-0.004652023,-0.000337601,0.007169724,0,
00:05.4,-0.004634857,-0.000331879,0.007164001,0,
00:05.4,-0.004640579,-0.000331879,0.007192612,0,
00:05.4,-0.004646301,-0.000337601,0.007175446,0,
00:05.4,-0.004652023,-0.000337601,0.007175446,0,
00:05.5,-0.004657745,-0.000331879,0.00718689,0,
00:05.5,-0.004652023,-0.000331879,0.007198334,0,
00:05.5,-0.004652023,-0.000331879,0.007181168,0,
00:05.5,-0.004669189,-0.000337601,0.007175446,0,
00:05.5,-0.004674911,-0.000337601,0.007198334,0,
00:05.5,-0.004663467,-0.000331879,0.007198334,0,
00:05.5,-0.004652023,-0.000331879,0.007192612,0,
00:05.5,-0.004652023,-0.000326157,0.007181168,0,
00:05.5,-0.004646301,-0.000326157,0.007198334,0,
00:05.5,-0.004663467,-0.000331879,0.007198334,0,
00:05.5,-0.004669189,-0.000326157,0.007164001,0,
00:05.5,-0.004657745,-0.000326157,0.007198334,0,
00:05.5,-0.004657745,-0.000320435,0.007226944,0,
00:05.5,-0.004657745,-0.000320435,0.007221222,0,
00:05.5,-0.004646301,-0.000314713,0.0072155,0,
00:05.5,-0.004634857,-0.000320435,0.007198334,0,
00:05.5,-0.004646301,-0.000320435,0.007198334,0,
00:05.5,-0.004669189,-0.000326157,0.0072155,0,
00:05.5,-0.004669189,-0.000326157,0.0072155,0,
00:05.5,-0.004652023,-0.000326157,0.0072155,0,
00:05.5,-0.004657745,-0.000320435,0.0072155,0,
00:05.5,-0.004669189,-0.000320435,0.007204056,0,
00:05.5,-0.004657745,-0.000314713,0.007192612,0,
00:05.5,-0.004646301,-0.00030899,0.007198334,0,
00:05.5,-0.004652023,-0.000314713,0.007209778,0,
00:05.6,-0.004646301,-0.000314713,0.007221222,0,
00:05.6,-0.004657745,-0.000320435,0.007232666,0,
00:05.6,-0.004669189,-0.000320435,0.007221222,0,
00:05.6,-0.004657745,-0.00030899,0.007209778,0,
00:05.6,-0.004657745,-0.00030899,0.0072155,0,
00:05.6,-0.004652023,-0.00030899,0.0072155,0,
00:05.6,-0.004652023,-0.00030899,0.007232666,0,
00:05.6,-0.004657745,-0.00030899,0.007204056,0,
00:05.6,-0.004657745,-0.00030899,0.007204056,0,
00:05.6,-0.004652023,-0.00030899,0.007232666,0,
00:05.6,-0.004652023,-0.00030899,0.007238388,0,
00:05.6,-0.004669189,-0.000314713,0.00724411,0,
00:05.6,-0.004663467,-0.000314713,0.00724411,0,
00:05.6,-0.004640579,-0.000314713,0.007238388,0,
00:05.6,-0.004646301,-0.000303268,0.007226944,0,
00:05.6,-0.004646301,-0.000303268,0.00724411,0,
00:05.6,-0.004652023,-0.00030899,0.007232666,0,
00:05.6,-0.004646301,-0.000303268,0.007209778,0,
00:05.6,-0.004646301,-0.000303268,0.007221222,0,
00:05.6,-0.004646301,-0.00030899,0.007255554,0,
00:05.6,-0.004652023,-0.000303268,0.007255554,0,
00:05.6,-0.004663467,-0.000303268,0.00724411,0,
00:05.6,-0.004652023,-0.000297546,0.007255554,0,
00:05.6,-0.004657745,-0.000303268,0.007255554,0,
00:05.6,-0.004652023,-0.00030899,0.007232666,0,
00:05.7,-0.004640579,-0.000303268,0.007232666,0,
00:05.7,-0.004640579,-0.000303268,0.007249832,0,
00:05.7,-0.004652023,-0.000297546,0.007232666,0,
00:05.7,-0.004669189,-0.000297546,0.007249832,0,
00:05.7,-0.004657745,-0.000303268,0.007255554,0,
00:05.7,-0.004646301,-0.000303268,0.00724411,0,
00:05.7,-0.004640579,-0.000297546,0.007255554,0,
00:05.7,-0.004634857,-0.000291824,0.007249832,0,
00:05.7,-0.004652023,-0.000297546,0.007266998,0,
00:05.7,-0.004657745,-0.000297546,0.00727272,0,
00:05.7,-0.004652023,-0.000297546,0.007255554,0,
00:05.7,-0.004646301,-0.000297546,0.007226944,0,
00:05.7,-0.004629135,-0.000291824,0.007238388,0,
00:05.7,-0.004629135,-0.000291824,0.00727272,0,
00:05.7,-0.004646301,-0.000297546,0.007266998,0,
00:05.7,-0.004646301,-0.000297546,0.00727272,0,
00:05.7,-0.004640579,-0.000291824,0.007278442,0,
00:05.7,-0.004640579,-0.000286102,0.007266998,0,
00:05.7,-0.004634857,-0.000291824,0.007266998,0,
00:05.7,-0.004623413,-0.000291824,0.00727272,0,
00:05.7,-0.004640579,-0.000291824,0.00727272,0,
00:05.7,-0.004657745,-0.000286102,0.007289886,0,
00:05.7,-0.004657745,-0.000297546,0.007278442,0,
00:05.7,-0.004640579,-0.000297546,0.007278442,0,
00:05.7,-0.004629135,-0.000297546,0.007278442,0,
00:05.8,-0.004629135,-0.000286102,0.00727272,0,
00:05.8,-0.004646301,-0.000291824,0.00727272,0,
00:05.8,-0.004640579,-0.000286102,0.007261276,0,
00:05.8,-0.004646301,-0.000291824,0.00727272,0,
00:05.8,-0.004646301,-0.000297546,0.007278442,0,
00:05.8,-0.004640579,-0.000291824,0.007301331,0,
00:05.8,-0.004646301,-0.000291824,0.007289886,0,
00:05.8,-0.004640579,-0.000286102,0.007278442,0,
00:05.8,-0.004634857,-0.000291824,0.007266998,0,
00:05.8,-0.004629135,-0.000291824,0.007312775,0,
00:05.8,-0.004634857,-0.000286102,0.007295609,0,
00:05.8,-0.004652023,-0.000286102,0.007301331,0,
00:05.8,-0.004646301,-0.000291824,0.007295609,0,
00:05.8,-0.004623413,-0.000286102,0.007278442,0,
00:05.8,-0.004611969,-0.00028038,0.007289886,0,
00:05.8,-0.004623413,-0.00028038,0.007307053,0,
00:05.8,-0.004634857,-0.00028038,0.007289886,0,
00:05.8,-0.004640579,-0.000286102,0.007289886,0,
00:05.8,-0.004634857,-0.000291824,0.007312775,0,
00:05.8,-0.004640579,-0.000291824,0.007312775,0,
00:05.8,-0.004640579,-0.000291824,0.007307053,0,
00:05.8,-0.004629135,-0.00028038,0.007289886,0,
00:05.8,-0.004629135,-0.00028038,0.007295609,0,
00:05.8,-0.004629135,-0.00028038,0.007312775,0,
00:05.8,-0.004646301,-0.000286102,0.007307053,0,
00:05.9,-0.004646301,-0.000291824,0.007307053,0,
00:05.9,-0.004629135,-0.000286102,0.007318497,0,
00:05.9,-0.004623413,-0.00028038,0.007312775,0,
00:05.9,-0.004623413,-0.00028038,0.007307053,0,
00:05.9,-0.004629135,-0.000286102,0.007324219,0,
00:05.9,-0.004634857,-0.00028038,0.007329941,0,
00:05.9,-0.004640579,-0.000286102,0.007324219,0,
00:05.9,-0.004623413,-0.000286102,0.007312775,0,
00:05.9,-0.004623413,-0.00028038,0.007335663,0,
00:05.9,-0.004600525,-0.000274658,0.007329941,0,
00:05.9,-0.004611969,-0.000274658,0.007329941,0,
00:05.9,-0.004646301,-0.00028038,0.007324219,0,
00:05.9,-0.004652023,-0.000286102,0.007324219,0,
00:05.9,-0.004634857,-0.000286102,0.007364273,0,
00:05.9,-0.004617691,-0.00028038,0.007347107,0,
00:05.9,-0.004611969,-0.000274658,0.007341385,0,
00:05.9,-0.004623413,-0.000274658,0.007341385,0,
00:05.9,-0.004634857,-0.000274658,0.007335663,0,
00:05.9,-0.004629135,-0.000274658,0.007324219,0,
00:05.9,-0.004623413,-0.00028038,0.007341385,0,
00:05.9,-0.004617691,-0.000274658,0.007341385,0,
00:05.9,-0.004617691,-0.000274658,0.007352829,0,
00:05.9,-0.004623413,-0.000268936,0.007324219,0,
00:05.9,-0.004623413,-0.000274658,0.007358551,0,
00:05.9,-0.004629135,-0.000274658,0.007375717,0,
00:06.0,-0.004623413,-0.000274658,0.007364273,0,
00:06.0,-0.004611969,-0.000263214,0.007329941,0,
00:06.0,-0.004617691,-0.000268936,0.007341385,0,
00:06.0,-0.004623413,-0.000268936,0.007392883,0,
00:06.0,-0.004617691,-0.000268936,0.007381439,0,
00:06.0,-0.004629135,-0.000268936,0.007369995,0,
00:06.0,-0.004629135,-0.000263214,0.007375717,0,
00:06.0,-0.004623413,-0.000268936,0.007364273,0,
00:06.0,-0.004634857,-0.000274658,0.007352829,0,
00:06.0,-0.004617691,-0.000268936,0.007358551,0,
00:06.0,-0.004611969,-0.000268936,0.007392883,0,
00:06.0,-0.004611969,-0.000268936,0.007369995,0,
00:00:06,-0.004623413,-0.000268936,0.007381439,0,
00:06.0,-0.004623413,-0.000268936,0.007387161,0,
00:06.0,-0.004623413,-0.000268936,0.007392883,0,
00:06.0,-0.004611969,-0.000257492,0.007364273,0,
00:06.0,-0.004594803,-0.000257492,0.007381439,0,
00:06.0,-0.004623413,-0.000263214,0.007398605,0,
00:06.0,-0.004629135,-0.000268936,0.007375717,0,
00:06.0,-0.004623413,-0.000268936,0.007392883,0,
00:06.0,-0.004617691,-0.000268936,0.007404327,0,
00:06.0,-0.004634857,-0.000268936,0.007381439,0,
00:06.0,-0.004629135,-0.000263214,0.007398605,0,
00:06.0,-0.004617691,-0.000263214,0.007387161,0,
00:06.0,-0.004617691,-0.000268936,0.007369995,0,
00:06.1,-0.004606247,-0.000263214,0.007410049,0,
00:06.1,-0.004611969,-0.000257492,0.007398605,0,
00:06.1,-0.004617691,-0.000263214,0.007392883,0,
00:06.1,-0.004611969,-0.000263214,0.007398605,0,
00:06.1,-0.004617691,-0.000268936,0.007398605,0,
00:06.1,-0.004623413,-0.000263214,0.007410049,0,
00:06.1,-0.004617691,-0.000257492,0.007392883,0,
00:06.1,-0.004611969,-0.000257492,0.007427216,0,
00:06.1,-0.004600525,-0.000257492,0.007410049,0,
00:06.1,-0.004589081,-0.00025177,0.007398605,0,
00:06.1,-0.004600525,-0.000257492,0.007421494,0,
00:06.1,-0.004629135,-0.000263214,0.007410049,0,
00:06.1,-0.004634857,-0.000268936,0.007415771,0,
00:06.1,-0.004606247,-0.000263214,0.007427216,0,
00:06.1,-0.004600525,-0.000257492,0.007432938,0,
00:06.1,-0.004611969,-0.000257492,0.007392883,0,
00:06.1,-0.004611969,-0.000263214,0.007421494,0,
00:06.1,-0.004611969,-0.000263214,0.007427216,0,
00:06.1,-0.004617691,-0.000263214,0.007410049,0,
00:06.1,-0.004606247,-0.000263214,0.007398605,0,
00:06.1,-0.004600525,-0.000257492,0.007415771,0,
00:06.1,-0.004606247,-0.000263214,0.007455826,0,
00:06.1,-0.004611969,-0.000263214,0.007432938,0,
00:06.1,-0.004617691,-0.000263214,0.007432938,0,
00:06.1,-0.004600525,-0.000263214,0.007410049,0,
00:06.2,-0.004600525,-0.000257492,0.007427216,0,
00:06.2,-0.004606247,-0.000257492,0.007427216,0,
00:06.2,-0.004611969,-0.000263214,0.007450104,0,
00:06.2,-0.004611969,-0.000263214,0.007432938,0,
00:06.2,-0.004606247,-0.000263214,0.00743866,0,
00:06.2,-0.004606247,-0.000263214,0.007455826,0,
00:06.2,-0.004606247,-0.000263214,0.007450104,0,
00:06.2,-0.004611969,-0.000263214,0.007432938,0,
00:06.2,-0.004606247,-0.000257492,0.007444382,0,
00:06.2,-0.004589081,-0.000257492,0.007450104,0,
00:06.2,-0.004594803,-0.000257492,0.007432938,0,
00:06.2,-0.004617691,-0.000263214,0.007444382,0,
00:06.2,-0.004611969,-0.000263214,0.007444382,0,
00:06.2,-0.004606247,-0.000257492,0.00746727,0,
00:06.2,-0.004606247,-0.000263214,0.007444382,0,
00:06.2,-0.004617691,-0.000263214,0.007444382,0,
00:06.2,-0.004611969,-0.000257492,0.007461548,0,
00:06.2,-0.004611969,-0.000257492,0.007461548,0,
00:06.2,-0.004600525,-0.000257492,0.007461548,0,
00:06.2,-0.004606247,-0.00025177,0.007450104,0,
00:06.2,-0.004600525,-0.000257492,0.007455826,0,
00:06.2,-0.004594803,-0.00025177,0.007461548,0,
00:06.2,-0.004589081,-0.000246048,0.007455826,0,
00:06.2,-0.004594803,-0.000257492,0.007455826,0,
00:06.2,-0.004600525,-0.000257492,0.007455826,0,
00:06.3,-0.004611969,-0.000257492,0.00746727,0,
00:06.3,-0.004600525,-0.000246048,0.007472992,0,
00:06.3,-0.004589081,-0.000246048,0.00746727,0,
00:06.3,-0.004577637,-0.000246048,0.007472992,0,
00:06.3,-0.004577637,-0.000246048,0.00746727,0,
00:06.3,-0.004583359,-0.000246048,0.007472992,0,
00:06.3,-0.004600525,-0.00025177,0.007472992,0,
00:06.3,-0.004594803,-0.000257492,0.007501602,0,
00:06.3,-0.004589081,-0.000263214,0.00746727,0,
00:06.3,-0.004583359,-0.000246048,0.007472992,0,
00:06.3,-0.004600525,-0.00025177,0.007478714,0,
00:06.3,-0.004611969,-0.00025177,0.007490158,0,
00:06.3,-0.004606247,-0.000257492,0.007484436,0,
00:06.3,-0.004583359,-0.000257492,0.007484436,0,
00:06.3,-0.004577637,-0.00025177,0.00746727,0,
00:06.3,-0.004583359,-0.000240326,0.007478714,0,
00:06.3,-0.004589081,-0.000240326,0.007484436,0,
00:06.3,-0.004600525,-0.00025177,0.007484436,0,
00:06.3,-0.004594803,-0.00025177,0.007490158,0,
00:06.3,-0.004583359,-0.00025177,0.007472992,0,
00:06.3,-0.004589081,-0.000246048,0.007484436,0,
00:06.3,-0.004589081,-0.000246048,0.00746727,0,
00:06.3,-0.004583359,-0.000246048,0.007518768,0,
00:06.3,-0.004589081,-0.000240326,0.007513046,0,
00:06.3,-0.004594803,-0.000246048,0.007501602,0,
00:06.4,-0.004577637,-0.000246048,0.007484436,0,
00:06.4,-0.004577637,-0.000234604,0.007490158,0,
00:06.4,-0.004594803,-0.000240326,0.007507324,0,
00:06.4,-0.004600525,-0.00025177,0.007490158,0,
00:06.4,-0.004583359,-0.000246048,0.007507324,0,
00:06.4,-0.004577637,-0.000246048,0.007513046,0,
00:06.4,-0.004577637,-0.000240326,0.00749588,0,
00:06.4,-0.004589081,-0.000240326,0.007507324,0,
00:06.4,-0.004577637,-0.000246048,0.00749588,0,
00:06.4,-0.004589081,-0.000240326,0.007518768,0,
00:06.4,-0.004594803,-0.000240326,0.007518768,0,
00:06.4,-0.004600525,-0.000240326,0.007513046,0,
00:06.4,-0.004583359,-0.000246048,0.007501602,0,
00:06.4,-0.004583359,-0.000246048,0.007513046,0,
00:06.4,-0.004583359,-0.000240326,0.007513046,0,
00:06.4,-0.004583359,-0.000234604,0.007518768,0,
00:06.4,-0.004600525,-0.000240326,0.007518768,0,
00:06.4,-0.004571915,-0.000234604,0.007507324,0,
00:06.4,-0.004560471,-0.000234604,0.007513046,0,
00:06.4,-0.004577637,-0.000234604,0.007535934,0,
00:06.4,-0.004589081,-0.000234604,0.00752449,0,
00:06.4,-0.004589081,-0.000234604,0.00752449,0,
00:06.4,-0.004583359,-0.000240326,0.007513046,0,
00:06.4,-0.004589081,-0.000246048,0.007513046,0,
00:06.4,-0.004594803,-0.000240326,0.007535934,0,
00:06.5,-0.004594803,-0.000240326,0.007530212,0,
00:06.5,-0.004583359,-0.000234604,0.007518768,0,
00:06.5,-0.004571915,-0.000240326,0.007530212,0,
00:06.5,-0.004571915,-0.000234604,0.007541656,0,
00:06.5,-0.004566193,-0.000234604,0.007530212,0,
00:06.5,-0.004571915,-0.000234604,0.007518768,0,
00:06.5,-0.004589081,-0.000240326,0.007513046,0,
00:06.5,-0.004589081,-0.000234604,0.007530212,0,
00:06.5,-0.004589081,-0.000240326,0.007553101,0,
00:06.5,-0.004589081,-0.000240326,0.007547379,0,
00:06.5,-0.004583359,-0.000234604,0.007535934,0,
00:06.5,-0.004577637,-0.000240326,0.007541656,0,
00:06.5,-0.004571915,-0.000240326,0.007553101,0,
00:06.5,-0.004571915,-0.000240326,0.007541656,0,
00:06.5,-0.004589081,-0.000240326,0.007530212,0,
00:06.5,-0.004583359,-0.000234604,0.007535934,0,
00:06.5,-0.004583359,-0.000228882,0.007513046,0,
00:06.5,-0.004583359,-0.000240326,0.007535934,0,
00:06.5,-0.004577637,-0.000240326,0.007553101,0,
00:06.5,-0.004571915,-0.000246048,0.007558823,0,
00:06.5,-0.004566193,-0.000234604,0.007541656,0,
00:06.5,-0.004577637,-0.000228882,0.007553101,0,
00:06.5,-0.004589081,-0.000234604,0.007558823,0,
00:06.5,-0.004577637,-0.000234604,0.007547379,0,
00:06.5,-0.004560471,-0.000234604,0.007558823,0,
00:06.6,-0.004560471,-0.000234604,0.007553101,0,
00:06.6,-0.004571915,-0.000234604,0.007553101,0,
00:06.6,-0.004571915,-0.000228882,0.007547379,0,
00:06.6,-0.004566193,-0.000234604,0.007558823,0,
00:06.6,-0.004566193,-0.000234604,0.007581711,0,
00:06.6,-0.004577637,-0.000234604,0.007575989,0,
00:06.6,-0.004583359,-0.000228882,0.007575989,0,
00:06.6,-0.004577637,-0.000228882,0.007558823,0,
00:06.6,-0.004560471,-0.000228882,0.007558823,0,
00:06.6,-0.004554749,-0.000234604,0.007558823,0,
00:06.6,-0.004566193,-0.000228882,0.007558823,0,
00:06.6,-0.004594803,-0.000234604,0.007564545,0,
00:06.6,-0.004589081,-0.000234604,0.007570267,0,
00:06.6,-0.004571915,-0.000240326,0.007587433,0,
00:06.6,-0.004554749,-0.000234604,0.007581711,0,
00:06.6,-0.004566193,-0.000234604,0.007587433,0,
00:06.6,-0.004577637,-0.000234604,0.007587433,0,
00:06.6,-0.004589081,-0.000240326,0.007581711,0,
00:06.6,-0.004577637,-0.000234604,0.007598877,0,
00:06.6,-0.004554749,-0.000234604,0.007575989,0,
00:06.6,-0.004560471,-0.000228882,0.007587433,0,
00:06.6,-0.004571915,-0.00022316,0.007575989,0,
00:06.6,-0.004583359,-0.000228882,0.007587433,0,
00:06.6,-0.004566193,-0.000234604,0.007604599,0,
00:06.6,-0.004554749,-0.000228882,0.007587433,0,
00:06.7,-0.004566193,-0.000228882,0.007575989,0,
00:06.7,-0.004571915,-0.000228882,0.007598877,0,
00:06.7,-0.004577637,-0.000228882,0.007581711,0,
00:06.7,-0.004583359,-0.000240326,0.007553101,0,
00:06.7,-0.004566193,-0.000234604,0.007575989,0,
00:06.7,-0.004554749,-0.00022316,0.007616043,0,
00:06.7,-0.004554749,-0.00022316,0.007604599,0,
00:06.7,-0.004560471,-0.00022316,0.007604599,0,
00:06.7,-0.004571915,-0.000228882,0.007604599,0,
00:06.7,-0.004571915,-0.000234604,0.007604599,0,
00:06.7,-0.004577637,-0.000228882,0.007604599,0,
00:06.7,-0.004566193,-0.000228882,0.007610321,0,
00:06.7,-0.004571915,-0.000228882,0.007598877,0,
00:06.7,-0.004577637,-0.000234604,0.007598877,0,
00:06.7,-0.004549026,-0.00022316,0.007604599,0,
00:06.7,-0.004549026,-0.00022316,0.007604599,0,
00:06.7,-0.004560471,-0.000228882,0.007604599,0,
00:06.7,-0.004566193,-0.000228882,0.007616043,0,
00:06.7,-0.004566193,-0.000228882,0.007633209,0,
00:06.7,-0.004560471,-0.00022316,0.007610321,0,
00:06.7,-0.004560471,-0.00022316,0.007610321,0,
00:06.7,-0.004566193,-0.000228882,0.007610321,0,
00:06.7,-0.004577637,-0.000234604,0.007610321,0,
00:06.7,-0.004571915,-0.000234604,0.007604599,0,
00:06.7,-0.004560471,-0.000228882,0.007621765,0,
00:06.8,-0.004560471,-0.00022316,0.007627487,0,
00:06.8,-0.004560471,-0.00022316,0.007621765,0,
00:06.8,-0.004554749,-0.000228882,0.007650375,0,
00:06.8,-0.004537582,-0.000217438,0.007638931,0,
00:06.8,-0.004537582,-0.000217438,0.007633209,0,
00:06.8,-0.004549026,-0.00022316,0.007633209,0,
00:06.8,-0.004560471,-0.00022316,0.007633209,0,
00:06.8,-0.004566193,-0.00022316,0.007633209,0,
00:06.8,-0.004566193,-0.000228882,0.007638931,0,
00:06.8,-0.004554749,-0.000228882,0.007627487,0,
00:06.8,-0.004554749,-0.00022316,0.007627487,0,
00:06.8,-0.004566193,-0.00022316,0.007616043,0,
00:06.8,-0.004560471,-0.00022316,0.007638931,0,
00:06.8,-0.004554749,-0.00022316,0.007638931,0,
00:06.8,-0.004543304,-0.00022316,0.007656097,0,
00:06.8,-0.004549026,-0.000211716,0.007656097,0,
00:06.8,-0.004554749,-0.000217438,0.007644653,0,
00:06.8,-0.004549026,-0.00022316,0.007633209,0,
00:06.8,-0.004549026,-0.00022316,0.007616043,0,
00:06.8,-0.004554749,-0.00022316,0.007633209,0,
00:06.8,-0.004549026,-0.000217438,0.007656097,0,
00:06.8,-0.004549026,-0.000217438,0.007656097,0,
00:06.8,-0.004560471,-0.00022316,0.007661819,0,
00:06.8,-0.004554749,-0.00022316,0.007667542,0,
00:06.8,-0.004554749,-0.00022316,0.007650375,0,
00:06.9,-0.004554749,-0.00022316,0.007650375,0,
00:06.9,-0.004543304,-0.00022316,0.007661819,0,
00:06.9,-0.004537582,-0.000217438,0.007650375,0,
00:06.9,-0.00453186,-0.000217438,0.007661819,0,
00:06.9,-0.00453186,-0.000217438,0.007656097,0,
00:06.9,-0.004543304,-0.000211716,0.007661819,0,
00:06.9,-0.004554749,-0.000211716,0.007661819,0,
00:06.9,-0.004554749,-0.000211716,0.007656097,0,
00:06.9,-0.004543304,-0.000211716,0.007656097,0,
00:06.9,-0.004543304,-0.00022316,0.007661819,0,
00:06.9,-0.004537582,-0.000217438,0.007661819,0,
00:06.9,-0.004537582,-0.000211716,0.007673264,0,
00:06.9,-0.004543304,-0.000211716,0.007673264,0,
00:06.9,-0.004526138,-0.000211716,0.007667542,0,
00:06.9,-0.004537582,-0.000217438,0.007667542,0,
00:06.9,-0.004543304,-0.000211716,0.007644653,0,
00:06.9,-0.004549026,-0.000211716,0.007650375,0,
00:06.9,-0.004543304,-0.000217438,0.007661819,0,
00:06.9,-0.00453186,-0.000205994,0.00769043,0,
00:06.9,-0.004543304,-0.000211716,0.007678986,0,
00:06.9,-0.004554749,-0.000217438,0.007673264,0,
00:06.9,-0.004554749,-0.000217438,0.007656097,0,
00:06.9,-0.004526138,-0.000205994,0.007684708,0,
00:06.9,-0.004514694,-0.000211716,0.007673264,0,
00:06.9,-0.004520416,-0.000205994,0.007661819,0,
00:07.0,-0.004520416,-0.000205994,0.007678986,0,
00:07.0,-0.00453186,-0.000211716,0.007678986,0,
00:07.0,-0.004543304,-0.000211716,0.00769043,0,
00:07.0,-0.00453186,-0.000211716,0.007673264,0,
00:07.0,-0.00453186,-0.000211716,0.007678986,0,
00:07.0,-0.00453186,-0.000217438,0.007696152,0,
00:07.0,-0.004526138,-0.000211716,0.007684708,0,
00:07.0,-0.004514694,-0.000211716,0.00769043,0,
00:07.0,-0.00453186,-0.000205994,0.007678986,0,
00:07.0,-0.00453186,-0.000205994,0.007684708,0,
00:07.0,-0.00453186,-0.000205994,0.00769043,0,
00:07.0,-0.004537582,-0.000211716,0.007684708,0,
00:00:07,-0.004537582,-0.000211716,0.00769043,0,
00:07.0,-0.00453186,-0.000211716,0.007701874,0,
00:07.0,-0.004543304,-0.000211716,0.007696152,0,
00:07.0,-0.004537582,-0.000205994,0.007684708,0,
00:07.0,-0.004526138,-0.000205994,0.007684708,0,
00:07.0,-0.004508972,-0.000200272,0.007678986,0,
00:07.0,-0.004491806,-0.000200272,0.00769043,0,
00:07.0,-0.004520416,-0.000200272,0.007696152,0,
00:07.0,-0.004543304,-0.000205994,0.007684708,0,
00:07.0,-0.004543304,-0.000211716,0.007696152,0,
00:07.0,-0.004526138,-0.000205994,0.007701874,0,
00:07.0,-0.004508972,-0.00019455,0.007707596,0,
00:07.0,-0.004514694,-0.000200272,0.007696152,0,
00:07.1,-0.004526138,-0.000200272,0.00769043,0,
00:07.1,-0.004526138,-0.000200272,0.00769043,0,
00:07.1,-0.004514694,-0.000200272,0.007684708,0,
00:07.1,-0.004508972,-0.00019455,0.007701874,0,
00:07.1,-0.004514694,-0.000188828,0.007724762,0,
00:07.1,-0.004520416,-0.000200272,0.007701874,0,
00:07.1,-0.004526138,-0.000200272,0.007707596,0,
00:07.1,-0.004526138,-0.000200272,0.00771904,0,
00:07.1,-0.004526138,-0.000200272,0.007724762,0,
00:07.1,-0.004526138,-0.000200272,0.007713318,0,
00:07.1,-0.004520416,-0.000200272,0.007713318,0,
00:07.1,-0.004508972,-0.000188828,0.007724762,0,
00:07.1,-0.004508972,-0.00019455,0.00771904,0,
00:07.1,-0.00450325,-0.00019455,0.007696152,0,
00:07.1,-0.004520416,-0.00019455,0.007701874,0,
00:07.1,-0.004543304,-0.000200272,0.007707596,0,
00:07.1,-0.00453186,-0.00019455,0.007696152,0,
00:07.1,-0.004508972,-0.00019455,0.007724762,0,
00:07.1,-0.004508972,-0.00019455,0.00771904,0,
00:07.1,-0.004520416,-0.00019455,0.007736206,0,
00:07.1,-0.004520416,-0.00019455,0.007713318,0,
00:07.1,-0.004520416,-0.00019455,0.00771904,0,
00:07.1,-0.00453186,-0.00019455,0.007713318,0,
00:07.1,-0.004508972,-0.00019455,0.00771904,0,
00:07.1,-0.004514694,-0.000188828,0.007724762,0,
00:07.2,-0.004520416,-0.00019455,0.00771904,0,
00:07.2,-0.004514694,-0.00019455,0.00771904,0,
00:07.2,-0.004520416,-0.00019455,0.007707596,0,
00:07.2,-0.004514694,-0.00019455,0.00771904,0,
00:07.2,-0.004508972,-0.000188828,0.007724762,0,
00:07.2,-0.00453186,-0.000188828,0.007724762,0,
00:07.2,-0.004526138,-0.00019455,0.007730484,0,
00:07.2,-0.004508972,-0.000200272,0.007724762,0,
00:07.2,-0.00450325,-0.00019455,0.007724762,0,
00:07.2,-0.004508972,-0.00019455,0.007724762,0,
00:07.2,-0.004508972,-0.00019455,0.00771904,0,
00:07.2,-0.004508972,-0.00019455,0.007713318,0,
00:07.2,-0.004520416,-0.00019455,0.007713318,0,
00:07.2,-0.004520416,-0.00019455,0.007730484,0,
00:07.2,-0.004508972,-0.00019455,0.007724762,0,
00:07.2,-0.004520416,-0.00019455,0.007741928,0,
00:07.2,-0.004514694,-0.000200272,0.007724762,0,
00:07.2,-0.004514694,-0.00019455,0.007736206,0,
00:07.2,-0.004514694,-0.000188828,0.007736206,0,
00:07.2,-0.00450325,-0.00019455,0.007713318,0,
00:07.2,-0.004497528,-0.000188828,0.007696152,0,
00:07.2,-0.004514694,-0.000188828,0.007724762,0,
00:07.2,-0.004508972,-0.00019455,0.007741928,0,
00:07.2,-0.004497528,-0.00019455,0.007730484,0,
00:07.2,-0.004497528,-0.000188828,0.007730484,0,
00:07.3,-0.004526138,-0.000188828,0.007724762,0,
00:07.3,-0.00453186,-0.00019455,0.007724762,0,
00:07.3,-0.004514694,-0.00019455,0.007736206,0,
00:07.3,-0.004497528,-0.00019455,0.007713318,0,
00:07.3,-0.00450325,-0.000188828,0.007736206,0,
00:07.3,-0.004514694,-0.000188828,0.007741928,0,
00:07.3,-0.004508972,-0.000188828,0.007724762,0,
00:07.3,-0.00450325,-0.000188828,0.007730484,0,
00:07.3,-0.00450325,-0.000188828,0.007696152,0,
00:07.3,-0.004508972,-0.00019455,0.007736206,0,
00:07.3,-0.004526138,-0.00019455,0.007741928,0,
00:07.3,-0.004526138,-0.000200272,0.007730484,0,
00:07.3,-0.004514694,-0.000188828,0.007736206,0,
00:07.3,-0.00450325,-0.000188828,0.007741928,0,
00:07.3,-0.00450325,-0.000188828,0.007741928,0,
00:07.3,-0.00450325,-0.000188828,0.007724762,0,
00:07.3,-0.00450325,-0.000188828,0.007741928,0,
00:07.3,-0.004508972,-0.000188828,0.00774765,0,
00:07.3,-0.00450325,-0.000188828,0.007730484,0,
00:07.3,-0.004497528,-0.000188828,0.007730484,0,
00:07.3,-0.004508972,-0.000183105,0.00774765,0,
00:07.3,-0.004514694,-0.000183105,0.007730484,0,
00:07.3,-0.004508972,-0.000188828,0.007741928,0,
00:07.3,-0.00450325,-0.000183105,0.007753372,0,
00:07.3,-0.00450325,-0.000188828,0.007736206,0,
00:07.4,-0.004514694,-0.000188828,0.007724762,0,
00:07.4,-0.004514694,-0.000188828,0.007736206,0,
00:07.4,-0.004508972,-0.000188828,0.007753372,0,
00:07.4,-0.004508972,-0.00019455,0.007764816,0,
00:07.4,-0.00450325,-0.000188828,0.007753372,0,
00:07.4,-0.004497528,-0.000188828,0.00774765,0,
00:07.4,-0.00450325,-0.000188828,0.007753372,0,
00:07.4,-0.004508972,-0.000188828,0.007759094,0,
00:07.4,-0.004508972,-0.000188828,0.00774765,0,
00:07.4,-0.004486084,-0.00019455,0.007759094,0,
00:07.4,-0.004486084,-0.000183105,0.007753372,0,
00:07.4,-0.004497528,-0.000188828,0.007736206,0,
00:07.4,-0.00450325,-0.000183105,0.007736206,0,
00:07.4,-0.004508972,-0.000188828,0.007770538,0,
00:07.4,-0.004508972,-0.000188828,0.007736206,0,
00:07.4,-0.004508972,-0.000188828,0.00774765,0,
00:07.4,-0.00450325,-0.00019455,0.007770538,0,
00:07.4,-0.00450325,-0.000188828,0.007770538,0,
00:07.4,-0.004491806,-0.000188828,0.007764816,0,
00:07.4,-0.004480362,-0.000183105,0.007741928,0,
00:07.4,-0.00450325,-0.000183105,0.007759094,0,
00:07.4,-0.004508972,-0.000188828,0.007764816,0,
00:07.4,-0.00450325,-0.000188828,0.007764816,0,
00:07.4,-0.004497528,-0.000188828,0.007781982,0,
00:07.4,-0.004491806,-0.000188828,0.00777626,0,
00:07.5,-0.004497528,-0.000183105,0.007770538,0,
00:07.5,-0.00450325,-0.000188828,0.007753372,0,
00:07.5,-0.004491806,-0.000188828,0.00774765,0,
00:07.5,-0.00450325,-0.000188828,0.00777626,0,
00:07.5,-0.004508972,-0.00019455,0.00777626,0,
00:07.5,-0.004497528,-0.000183105,0.00777626,0,
00:07.5,-0.004497528,-0.000183105,0.007753372,0,
00:07.5,-0.004486084,-0.000188828,0.007753372,0,
00:07.5,-0.004497528,-0.00019455,0.007781982,0,
00:07.5,-0.004491806,-0.000188828,0.007787704,0,
00:07.5,-0.004486084,-0.000183105,0.007764816,0,
00:07.5,-0.004491806,-0.000183105,0.007770538,0,
00:07.5,-0.004508972,-0.000188828,0.007793427,0,
00:07.5,-0.004514694,-0.00019455,0.007781982,0,
00:07.5,-0.004491806,-0.00019455,0.007787704,0,
00:07.5,-0.004497528,-0.000183105,0.007787704,0,
00:07.5,-0.004497528,-0.000188828,0.007770538,0,
00:07.5,-0.004480362,-0.000188828,0.007753372,0,
00:07.5,-0.004486084,-0.000188828,0.007770538,0,
00:07.5,-0.004480362,-0.000183105,0.007793427,0,
00:07.5,-0.004486084,-0.000177383,0.007793427,0,
00:07.5,-0.00450325,-0.000188828,0.007793427,0,
00:07.5,-0.004497528,-0.000188828,0.007781982,0,
00:07.5,-0.004497528,-0.000188828,0.007787704,0,
00:07.5,-0.004497528,-0.000188828,0.007799149,0,
00:07.6,-0.004497528,-0.000183105,0.007787704,0,
00:07.6,-0.004491806,-0.000183105,0.007781982,0,
00:07.6,-0.004497528,-0.000188828,0.007804871,0,
00:07.6,-0.004497528,-0.00019455,0.007799149,0,
00:07.6,-0.004480362,-0.000188828,0.007793427,0,
00:07.6,-0.004486084,-0.000183105,0.007793427,0,
00:07.6,-0.004491806,-0.000183105,0.007787704,0,
00:07.6,-0.004491806,-0.000188828,0.007799149,0,
00:07.6,-0.004508972,-0.00019455,0.007799149,0,
00:07.6,-0.004508972,-0.00019455,0.007787704,0,
00:07.6,-0.004486084,-0.000183105,0.007799149,0,
00:07.6,-0.004480362,-0.000188828,0.007787704,0,
00:07.6,-0.004480362,-0.000183105,0.007799149,0,
00:07.6,-0.004463196,-0.000177383,0.007804871,0,
00:07.6,-0.004463196,-0.000183105,0.007804871,0,
00:07.6,-0.004491806,-0.000188828,0.007816315,0,
00:07.6,-0.004497528,-0.000188828,0.007804871,0,
00:07.6,-0.004486084,-0.000183105,0.007804871,0,
00:07.6,-0.00447464,-0.000188828,0.007816315,0,
00:07.6,-0.00447464,-0.000188828,0.007799149,0,
00:07.6,-0.004491806,-0.000188828,0.007781982,0,
00:07.6,-0.004486084,-0.000183105,0.007781982,0,
00:07.6,-0.004480362,-0.000188828,0.007833481,0,
00:07.6,-0.004463196,-0.000188828,0.007816315,0,
00:07.6,-0.004463196,-0.000183105,0.007804871,0,
00:07.7,-0.004468918,-0.000177383,0.007810593,0,
00:07.7,-0.004468918,-0.000183105,0.007810593,0,
00:07.7,-0.004463196,-0.000183105,0.007822037,0,
00:07.7,-0.004457474,-0.000177383,0.007822037,0,
00:07.7,-0.004480362,-0.000188828,0.007810593,0,
00:07.7,-0.004480362,-0.000183105,0.007804871,0,
00:07.7,-0.004480362,-0.000183105,0.007810593,0,
00:07.7,-0.004468918,-0.000188828,0.007822037,0,
00:07.7,-0.00447464,-0.00019455,0.007822037,0,
00:07.7,-0.004480362,-0.000188828,0.007816315,0,
00:07.7,-0.00447464,-0.000177383,0.007799149,0,
00:07.7,-0.00447464,-0.000188828,0.007793427,0,
00:07.7,-0.004463196,-0.000188828,0.007816315,0,
00:07.7,-0.004463196,-0.000183105,0.007844925,0,
00:07.7,-0.004468918,-0.000177383,0.007844925,0,
00:07.7,-0.004468918,-0.000188828,0.007827759,0,
00:07.7,-0.00447464,-0.000188828,0.007833481,0,
00:07.7,-0.004463196,-0.000183105,0.007833481,0,
00:07.7,-0.004463196,-0.000183105,0.007827759,0,
00:07.7,-0.004457474,-0.000183105,0.007810593,0,
00:07.7,-0.004457474,-0.000183105,0.007822037,0,
00:07.7,-0.004468918,-0.000177383,0.007833481,0,
00:07.7,-0.004480362,-0.000188828,0.007839203,0,
00:07.7,-0.004468918,-0.000188828,0.007839203,0,
00:07.7,-0.004457474,-0.000183105,0.007827759,0,
00:07.8,-0.004457474,-0.000177383,0.007810593,0,
00:07.8,-0.00447464,-0.000183105,0.007816315,0,
00:07.8,-0.00447464,-0.000188828,0.007827759,0,
00:07.8,-0.004457474,-0.000183105,0.007862091,0,
00:07.8,-0.004468918,-0.000183105,0.007844925,0,
00:07.8,-0.004468918,-0.000177383,0.007822037,0,
00:07.8,-0.004468918,-0.000177383,0.007822037,0,
00:07.8,-0.004463196,-0.000183105,0.007839203,0,
00:07.8,-0.00444603,-0.000177383,0.007844925,0,
00:07.8,-0.00444603,-0.000177383,0.007839203,0,
00:07.8,-0.004468918,-0.000183105,0.007833481,0,
00:07.8,-0.004480362,-0.000188828,0.007827759,0,
00:07.8,-0.004468918,-0.000177383,0.007862091,0,
00:07.8,-0.00444603,-0.000165939,0.007850647,0,
00:07.8,-0.00444603,-0.000177383,0.007839203,0,
00:07.8,-0.004463196,-0.000183105,0.007827759,0,
00:07.8,-0.00447464,-0.000171661,0.007833481,0,
00:07.8,-0.004468918,-0.000171661,0.007822037,0,
00:07.8,-0.004451752,-0.000171661,0.007844925,0,
00:07.8,-0.004463196,-0.000177383,0.007850647,0,
00:07.8,-0.004480362,-0.000177383,0.007850647,0,
00:07.8,-0.004480362,-0.000183105,0.007839203,0,
00:07.8,-0.004451752,-0.000171661,0.007822037,0,
00:07.8,-0.004440308,-0.000171661,0.007833481,0,
00:07.8,-0.004457474,-0.000177383,0.007867813,0,
00:07.9,-0.004468918,-0.000171661,0.007862091,0,
00:07.9,-0.004468918,-0.000171661,0.007867813,0,
00:07.9,-0.004468918,-0.000183105,0.007850647,0,
00:07.9,-0.004457474,-0.000177383,0.007833481,0,
00:07.9,-0.004463196,-0.000171661,0.007850647,0,
00:07.9,-0.00447464,-0.000171661,0.007873535,0,
00:07.9,-0.004480362,-0.000177383,0.007856369,0,
00:07.9,-0.004463196,-0.000177383,0.007850647,0,
00:07.9,-0.00444603,-0.000165939,0.007833481,0,
00:07.9,-0.00444603,-0.000160217,0.007844925,0,
00:07.9,-0.00444603,-0.000160217,0.007867813,0,
00:07.9,-0.004451752,-0.000165939,0.007839203,0,
00:07.9,-0.004457474,-0.000171661,0.007856369,0,
00:07.9,-0.004451752,-0.000171661,0.007884979,0,
00:07.9,-0.004451752,-0.000171661,0.007862091,0,
00:07.9,-0.004451752,-0.000160217,0.007844925,0,
00:07.9,-0.004457474,-0.000165939,0.007867813,0,
00:07.9,-0.004457474,-0.000165939,0.007873535,0,
00:07.9,-0.004451752,-0.000165939,0.007862091,0,
00:07.9,-0.004457474,-0.000165939,0.007856369,0,
00:07.9,-0.004440308,-0.000160217,0.007850647,0,
00:07.9,-0.004440308,-0.000160217,0.007862091,0,
00:07.9,-0.004457474,-0.000165939,0.007867813,0,
00:07.9,-0.004463196,-0.000165939,0.007867813,0,
00:07.9,-0.00444603,-0.000148773,0.007804871,0,
00:08.0,-0.00444603,-0.000165939,0.007873535,0,
00:08.0,-0.004463196,-0.000165939,0.007862091,0,
00:08.0,-0.004457474,-0.000165939,0.007862091,0,
00:08.0,-0.004451752,-0.000160217,0.007879257,0,
00:08.0,-0.004440308,-0.000154495,0.007879257,0,
00:08.0,-0.004463196,-0.000160217,0.007873535,0,
00:08.0,-0.004457474,-0.000160217,0.007862091,0,
00:08.0,-0.004451752,-0.000160217,0.007844925,0,
00:08.0,-0.004451752,-0.000160217,0.007896423,0,
00:08.0,-0.004434586,-0.000165939,0.007873535,0,
00:08.0,-0.004434586,-0.000154495,0.007873535,0,
00:08.0,-0.004451752,-0.000154495,0.007879257,0,
00:00:08,-0.004451752,-0.000154495,0.007879257,0,
00:08.0,-0.00444603,-0.000154495,0.007873535,0,
00:08.0,-0.004451752,-0.000160217,0.007873535,0,
00:08.0,-0.004451752,-0.000154495,0.007873535,0,
00:08.0,-0.004457474,-0.000160217,0.007856369,0,
00:08.0,-0.004451752,-0.000160217,0.007890701,0,
00:08.0,-0.00444603,-0.000154495,0.007867813,0,
00:08.0,-0.004434586,-0.000154495,0.007879257,0,
00:08.0,-0.004434586,-0.000160217,0.007884979,0,
00:08.0,-0.004440308,-0.000148773,0.007884979,0,
00:08.0,-0.00444603,-0.000148773,0.007884979,0,
00:08.0,-0.004457474,-0.000160217,0.007862091,0,
00:08.0,-0.004451752,-0.000154495,0.007856369,0,
00:08.1,-0.004451752,-0.000154495,0.007896423,0,
00:08.1,-0.00444603,-0.000154495,0.007884979,0,
00:08.1,-0.004434586,-0.000154495,0.007867813,0,
00:08.1,-0.00444603,-0.000154495,0.007862091,0,
00:08.1,-0.004440308,-0.000154495,0.007896423,0,
00:08.1,-0.004440308,-0.000154495,0.007873535,0,
00:08.1,-0.004451752,-0.000160217,0.007873535,0,
00:08.1,-0.004463196,-0.000160217,0.007873535,0,
00:08.1,-0.004457474,-0.000171661,0.007890701,0,
00:08.1,-0.004451752,-0.000160217,0.007896423,0,
00:08.1,-0.004434586,-0.000154495,0.007884979,0,
00:08.1,-0.004417419,-0.000154495,0.007867813,0,
00:08.1,-0.004423141,-0.000148773,0.007902145,0,
00:08.1,-0.004434586,-0.000154495,0.007884979,0,
00:08.1,-0.004457474,-0.000160217,0.007873535,0,
00:08.1,-0.00444603,-0.000160217,0.007896423,0,
00:08.1,-0.004440308,-0.000160217,0.007890701,0,
00:08.1,-0.004428864,-0.000160217,0.007890701,0,
00:08.1,-0.004428864,-0.000160217,0.007884979,0,
00:08.1,-0.004434586,-0.000160217,0.007879257,0,
00:08.1,-0.004440308,-0.000154495,0.007896423,0,
00:08.1,-0.00444603,-0.000160217,0.007896423,0,
00:08.1,-0.004440308,-0.000160217,0.007879257,0,
00:08.1,-0.004440308,-0.000160217,0.007884979,0,
00:08.1,-0.004434586,-0.000160217,0.007879257,0,
00:08.2,-0.004451752,-0.000160217,0.007902145,0,
00:08.2,-0.00444603,-0.000160217,0.007890701,0,
00:08.2,-0.004428864,-0.000154495,0.007850647,0,
00:08.2,-0.004423141,-0.000154495,0.007839203,0,
00:08.2,-0.004434586,-0.000160217,0.007890701,0,
00:08.2,-0.00444603,-0.000160217,0.007936478,0,
00:08.2,-0.004457474,-0.000160217,0.007907867,0,
00:08.2,-0.004451752,-0.000160217,0.007907867,0,
00:08.2,-0.004440308,-0.000165939,0.007907867,0,
00:08.2,-0.00444603,-0.000160217,0.007902145,0,
00:08.2,-0.004423141,-0.000148773,0.007890701,0,
00:08.2,-0.004417419,-0.000154495,0.007884979,0,
00:08.2,-0.004423141,-0.000154495,0.007884979,0,
00:08.2,-0.004434586,-0.000160217,0.007867813,0,
00:08.2,-0.004434586,-0.000160217,0.007890701,0,
00:08.2,-0.004428864,-0.000165939,0.007902145,0,
00:08.2,-0.004428864,-0.000160217,0.007919312,0,
00:08.2,-0.00444603,-0.000165939,0.007902145,0,
00:08.2,-0.00444603,-0.000160217,0.007896423,0,
00:08.2,-0.004440308,-0.000154495,0.007902145,0,
00:08.2,-0.004440308,-0.000160217,0.007907867,0,
00:08.2,-0.004428864,-0.000165939,0.007896423,0,
00:08.2,-0.004440308,-0.000165939,0.007896423,0,
00:08.2,-0.004434586,-0.000165939,0.007902145,0,
00:08.2,-0.004423141,-0.000160217,0.007902145,0,
00:08.3,-0.004440308,-0.000160217,0.007862091,0,
00:08.3,-0.004434586,-0.000165939,0.007896423,0,
00:08.3,-0.004434586,-0.000171661,0.007919312,0,
00:08.3,-0.004434586,-0.000160217,0.007896423,0,
00:08.3,-0.004423141,-0.000154495,0.007902145,0,
00:08.3,-0.004423141,-0.000154495,0.007896423,0,
00:08.3,-0.004434586,-0.000160217,0.007884979,0,
00:08.3,-0.004457474,-0.000165939,0.007902145,0,
00:08.3,-0.004440308,-0.000165939,0.007907867,0,
00:08.3,-0.004434586,-0.000160217,0.007896423,0,
00:08.3,-0.004434586,-0.000160217,0.007896423,0,
00:08.3,-0.004434586,-0.000160217,0.007925034,0,
00:08.3,-0.004423141,-0.000154495,0.007907867,0,
00:08.3,-0.004417419,-0.000160217,0.007913589,0,
00:08.3,-0.004423141,-0.000165939,0.007907867,0,
00:08.3,-0.004440308,-0.000160217,0.007907867,0,
00:08.3,-0.00444603,-0.000160217,0.007896423,0,
00:08.3,-0.004428864,-0.000160217,0.007884979,0,
00:08.3,-0.004417419,-0.000154495,0.007902145,0,
00:08.3,-0.004428864,-0.000160217,0.007925034,0,
00:08.3,-0.004428864,-0.000160217,0.007913589,0,
00:08.3,-0.00444603,-0.000160217,0.007907867,0,
00:08.3,-0.004440308,-0.000154495,0.007907867,0,
00:08.3,-0.004417419,-0.000160217,0.007884979,0,
00:08.3,-0.004417419,-0.000160217,0.007867813,0,
00:08.4,-0.004423141,-0.000154495,0.007907867,0,
00:08.4,-0.004434586,-0.000160217,0.007925034,0,
00:08.4,-0.004434586,-0.000160217,0.007902145,0,
00:08.4,-0.004423141,-0.000154495,0.007896423,0,
00:08.4,-0.004400253,-0.000154495,0.007925034,0,
00:08.4,-0.004417419,-0.000154495,0.007913589,0,
00:08.4,-0.004423141,-0.000154495,0.007919312,0,
00:08.4,-0.004417419,-0.000160217,0.007907867,0,
00:08.4,-0.004423141,-0.000154495,0.007896423,0,
00:08.4,-0.004423141,-0.000154495,0.007879257,0,
00:08.4,-0.004423141,-0.000154495,0.007919312,0,
00:08.4,-0.004428864,-0.000154495,0.007925034,0,
00:08.4,-0.004411697,-0.000154495,0.007936478,0,
00:08.4,-0.004411697,-0.000148773,0.007919312,0,
00:08.4,-0.004428864,-0.000148773,0.007913589,0,
00:08.4,-0.004434586,-0.000154495,0.007925034,0,
00:08.4,-0.00444603,-0.000160217,0.007925034,0,
00:08.4,-0.004440308,-0.000160217,0.007930756,0,
00:08.4,-0.004423141,-0.000160217,0.007919312,0,
00:08.4,-0.004423141,-0.000160217,0.007907867,0,
00:08.4,-0.004423141,-0.000154495,0.007896423,0,
00:08.4,-0.004423141,-0.000160217,0.007907867,0,
00:08.4,-0.004428864,-0.000154495,0.007896423,0,
00:08.4,-0.004417419,-0.000160217,0.007925034,0,
00:08.4,-0.004411697,-0.000154495,0.007925034,0,
00:08.5,-0.004411697,-0.000148773,0.007913589,0,
00:08.5,-0.004411697,-0.000148773,0.007919312,0,
00:08.5,-0.004411697,-0.000160217,0.007913589,0,
00:08.5,-0.004400253,-0.000154495,0.007925034,0,
00:08.5,-0.004405975,-0.000154495,0.007919312,0,
00:08.5,-0.004411697,-0.000154495,0.007936478,0,
00:08.5,-0.004417419,-0.000154495,0.007919312,0,
00:08.5,-0.004417419,-0.000148773,0.007925034,0,
00:08.5,-0.004423141,-0.000154495,0.007925034,0,
00:08.5,-0.004417419,-0.000160217,0.007907867,0,
00:08.5,-0.004411697,-0.000154495,0.007919312,0,
00:08.5,-0.004411697,-0.000154495,0.007930756,0,
00:08.5,-0.004428864,-0.000160217,0.007936478,0,
00:08.5,-0.004423141,-0.000160217,0.007936478,0,
00:08.5,-0.004417419,-0.000154495,0.007913589,0,
00:08.5,-0.004411697,-0.000154495,0.007907867,0,
00:08.5,-0.004405975,-0.000148773,0.007884979,0,
00:08.5,-0.004394531,-0.000148773,0.007907867,0,
00:08.5,-0.004405975,-0.000148773,0.007925034,0,
00:08.5,-0.004417419,-0.000154495,0.007936478,0,
00:08.5,-0.004428864,-0.000160217,0.007919312,0,
00:08.5,-0.004405975,-0.000154495,0.007936478,0,
00:08.5,-0.004400253,-0.000154495,0.007925034,0,
00:08.5,-0.004417419,-0.000160217,0.007919312,0,
00:08.5,-0.004411697,-0.000154495,0.007907867,0,
00:08.6,-0.004411697,-0.000148773,0.007925034,0,
00:08.6,-0.004417419,-0.000148773,0.007902145,0,
00:08.6,-0.004417419,-0.000154495,0.007896423,0,
00:08.6,-0.004411697,-0.000148773,0.007947922,0,
00:08.6,-0.004405975,-0.000148773,0.007925034,0,
00:08.6,-0.004405975,-0.000148773,0.007919312,0,
00:08.6,-0.004405975,-0.000148773,0.007913589,0,
00:08.6,-0.004383087,-0.000143051,0.007902145,0,
00:08.6,-0.004394531,-0.000143051,0.007902145,0,
00:08.6,-0.004417419,-0.000148773,0.007925034,0,
00:08.6,-0.004428864,-0.000148773,0.007936478,0,
00:08.6,-0.004417419,-0.000148773,0.007930756,0,
00:08.6,-0.004400253,-0.000148773,0.007919312,0,
00:08.6,-0.004405975,-0.000154495,0.007925034,0,
00:08.6,-0.004405975,-0.000148773,0.007919312,0,
00:08.6,-0.004400253,-0.000143051,0.007907867,0,
00:08.6,-0.004394531,-0.000143051,0.007930756,0,
00:08.6,-0.004400253,-0.000143051,0.007919312,0,
00:08.6,-0.004411697,-0.000143051,0.007936478,0,
00:08.6,-0.004417419,-0.000148773,0.007930756,0,
00:08.6,-0.004394531,-0.000143051,0.007930756,0,
00:08.6,-0.004405975,-0.000137329,0.007936478,0,
00:08.6,-0.004411697,-0.000143051,0.007907867,0,
00:08.6,-0.004405975,-0.000148773,0.007919312,0,
00:08.6,-0.004394531,-0.000143051,0.007936478,0,
00:08.7,-0.004400253,-0.000143051,0.007913589,0,
00:08.7,-0.004405975,-0.000143051,0.007936478,0,
00:08.7,-0.004405975,-0.000143051,0.007930756,0,
00:08.7,-0.004405975,-0.000143051,0.007930756,0,
00:08.7,-0.004400253,-0.000143051,0.007930756,0,
00:08.7,-0.004411697,-0.000143051,0.007936478,0,
00:08.7,-0.004405975,-0.000143051,0.007930756,0,
00:08.7,-0.004400253,-0.000143051,0.007936478,0,
00:08.7,-0.004388809,-0.000148773,0.007925034,0,
00:08.7,-0.004383087,-0.000137329,0.007913589,0,
00:08.7,-0.004400253,-0.000143051,0.007936478,0,
00:08.7,-0.004417419,-0.000148773,0.007930756,0,
00:08.7,-0.004394531,-0.000143051,0.007925034,0,
00:08.7,-0.004383087,-0.000143051,0.007947922,0,
00:08.7,-0.004394531,-0.000137329,0.007953644,0,
00:08.7,-0.004400253,-0.000137329,0.007936478,0,
00:08.7,-0.004417419,-0.000143051,0.007930756,0,
00:08.7,-0.004417419,-0.000148773,0.007930756,0,
00:08.7,-0.004405975,-0.000143051,0.007925034,0,
00:08.7,-0.004388809,-0.000143051,0.007936478,0,
00:08.7,-0.004400253,-0.000143051,0.007947922,0,
00:08.7,-0.004405975,-0.000143051,0.007925034,0,
00:08.7,-0.004394531,-0.000143051,0.007936478,0,
00:08.7,-0.004388809,-0.000143051,0.007953644,0,
00:08.7,-0.004394531,-0.000143051,0.007936478,0,
00:08.8,-0.004405975,-0.000137329,0.0079422,0,
00:08.8,-0.004411697,-0.000143051,0.0079422,0,
00:08.8,-0.004405975,-0.000143051,0.007947922,0,
00:08.8,-0.004388809,-0.000143051,0.007953644,0,
00:08.8,-0.004388809,-0.000137329,0.007947922,0,
00:08.8,-0.004400253,-0.000137329,0.007925034,0,
00:08.8,-0.004400253,-0.000143051,0.0079422,0,
00:08.8,-0.004394531,-0.000143051,0.007936478,0,
00:08.8,-0.004388809,-0.000143051,0.007959366,0,
00:08.8,-0.004394531,-0.000143051,0.007959366,0,
00:08.8,-0.004411697,-0.000143051,0.0079422,0,
00:08.8,-0.004405975,-0.000143051,0.007947922,0,
00:08.8,-0.004388809,-0.000143051,0.007965088,0,
00:08.8,-0.004388809,-0.000143051,0.0079422,0,
00:08.8,-0.004405975,-0.000143051,0.007959366,0,
00:08.8,-0.004400253,-0.000137329,0.007936478,0,
00:08.8,-0.004394531,-0.000137329,0.007930756,0,
00:08.8,-0.004394531,-0.000137329,0.007947922,0,
00:08.8,-0.004388809,-0.000143051,0.007959366,0,
00:08.8,-0.004388809,-0.000137329,0.0079422,0,
00:08.8,-0.004377365,-0.000137329,0.0079422,0,
00:08.8,-0.004383087,-0.000143051,0.007959366,0,
00:08.8,-0.004377365,-0.000143051,0.007953644,0,
00:08.8,-0.004388809,-0.000143051,0.007953644,0,
00:08.8,-0.004394531,-0.000137329,0.007953644,0,
00:08.9,-0.004400253,-0.000137329,0.007953644,0,
00:08.9,-0.004394531,-0.000137329,0.007959366,0,
00:08.9,-0.004388809,-0.000137329,0.007965088,0,
00:08.9,-0.004377365,-0.000137329,0.007947922,0,
00:08.9,-0.004388809,-0.000137329,0.0079422,0,
00:08.9,-0.004394531,-0.000143051,0.007959366,0,
00:08.9,-0.004394531,-0.000137329,0.007976532,0,
00:08.9,-0.004405975,-0.000137329,0.007959366,0,
00:08.9,-0.004405975,-0.000137329,0.007959366,0,
00:08.9,-0.004388809,-0.000137329,0.007947922,0,
00:08.9,-0.004394531,-0.000125885,0.007947922,0,
00:08.9,-0.004388809,-0.000131607,0.007947922,0,
00:08.9,-0.004388809,-0.000131607,0.007953644,0,
00:08.9,-0.004383087,-0.000137329,0.00797081,0,
00:08.9,-0.004383087,-0.000137329,0.007976532,0,
00:08.9,-0.004383087,-0.000143051,0.00797081,0,
00:08.9,-0.004383087,-0.000137329,0.007953644,0,
00:08.9,-0.004377365,-0.000137329,0.007947922,0,
00:08.9,-0.004377365,-0.000137329,0.007959366,0,
00:08.9,-0.004371643,-0.000137329,0.007959366,0,
00:08.9,-0.004377365,-0.000131607,0.007947922,0,
00:08.9,-0.004394531,-0.000143051,0.00797081,0,
00:08.9,-0.004388809,-0.000143051,0.00797081,0,
00:08.9,-0.004383087,-0.000137329,0.00797081,0,
00:08.9,-0.004394531,-0.000143051,0.007947922,0,
00:09.0,-0.004383087,-0.000137329,0.0079422,0,
00:09.0,-0.004388809,-0.000131607,0.007936478,0,
00:09.0,-0.004388809,-0.000137329,0.007987976,0,
00:09.0,-0.004394531,-0.000143051,0.00797081,0,
00:09.0,-0.004400253,-0.000143051,0.007965088,0,
00:09.0,-0.004383087,-0.000137329,0.00797081,0,
00:09.0,-0.004371643,-0.000137329,0.007965088,0,
00:09.0,-0.004388809,-0.000143051,0.00797081,0,
00:09.0,-0.004383087,-0.000137329,0.00797081,0,
00:09.0,-0.004383087,-0.000137329,0.007976532,0,
00:09.0,-0.004388809,-0.000131607,0.007953644,0,
00:09.0,-0.004388809,-0.000131607,0.007936478,0,
00:00:09,-0.004377365,-0.000131607,0.007982254,0,
00:09.0,-0.004377365,-0.000137329,0.007982254,0,
00:09.0,-0.004377365,-0.000137329,0.00797081,0,
00:09.0,-0.004388809,-0.000137329,0.007976532,0,
00:09.0,-0.004383087,-0.000125885,0.007959366,0,
00:09.0,-0.004371643,-0.000131607,0.007976532,0,
00:09.0,-0.004365921,-0.000131607,0.007982254,0,
00:09.0,-0.004377365,-0.000125885,0.007959366,0,
00:09.0,-0.004383087,-0.000131607,0.007953644,0,
00:09.0,-0.004394531,-0.000137329,0.007976532,0,
00:09.0,-0.004388809,-0.000137329,0.007982254,0,
00:09.0,-0.004371643,-0.000137329,0.007982254,0,
00:09.0,-0.004365921,-0.000125885,0.007982254,0,
00:09.1,-0.004383087,-0.000125885,0.007976532,0,
00:09.1,-0.004394531,-0.000137329,0.007976532,0,
00:09.1,-0.004377365,-0.000137329,0.007987976,0,
00:09.1,-0.004383087,-0.000131607,0.007976532,0,
00:09.1,-0.004388809,-0.000125885,0.007959366,0,
00:09.1,-0.004371643,-0.000125885,0.007982254,0,
00:09.1,-0.004377365,-0.000125885,0.007976532,0,
00:09.1,-0.004377365,-0.000125885,0.007965088,0,
00:09.1,-0.004365921,-0.000125885,0.00797081,0,
00:09.1,-0.004371643,-0.000131607,0.0079422,0,
00:09.1,-0.004388809,-0.000137329,0.007993698,0,
00:09.1,-0.004394531,-0.000137329,0.007987976,0,
00:09.1,-0.004377365,-0.000131607,0.007982254,0,
00:09.1,-0.004365921,-0.000131607,0.007993698,0,
00:09.1,-0.004365921,-0.000131607,0.007976532,0,
00:09.1,-0.004371643,-0.000120163,0.007959366,0,
00:09.1,-0.004377365,-0.000125885,0.007982254,0,
00:09.1,-0.004377365,-0.000131607,0.007987976,0,
00:09.1,-0.004365921,-0.000125885,0.00799942,0,
00:09.1,-0.004354477,-0.000125885,0.007982254,0,
00:09.1,-0.004365921,-0.000125885,0.007965088,0,
00:09.1,-0.004388809,-0.000131607,0.007976532,0,
00:09.1,-0.004377365,-0.000131607,0.00799942,0,
00:09.1,-0.004371643,-0.000125885,0.007947922,0,
00:09.1,-0.004377365,-0.000131607,0.007982254,0,
00:09.2,-0.004383087,-0.000131607,0.00799942,0,
00:09.2,-0.004383087,-0.000137329,0.00799942,0,
00:09.2,-0.004377365,-0.000131607,0.007993698,0,
00:09.2,-0.004365921,-0.000125885,0.007993698,0,
00:09.2,-0.004377365,-0.000131607,0.007959366,0,
00:09.2,-0.004371643,-0.000131607,0.007856369,0,
00:09.2,-0.004354477,-0.000125885,0.007965088,0,
00:09.2,-0.004360199,-0.000131607,0.008045197,0,
00:09.2,-0.004360199,-0.000131607,0.008016586,0,
00:09.2,-0.004377365,-0.000131607,0.008010864,0,
00:09.2,-0.004377365,-0.000131607,0.007993698,0,
00:09.2,-0.004377365,-0.000131607,0.007987976,0,
00:09.2,-0.004371643,-0.000137329,0.00799942,0,
00:09.2,-0.004365921,-0.000137329,0.00799942,0,
00:09.2,-0.004371643,-0.000131607,0.007987976,0,
00:09.2,-0.004377365,-0.000131607,0.007982254,0,
00:09.2,-0.004371643,-0.000125885,0.008005142,0,
00:09.2,-0.004365921,-0.000125885,0.008005142,0,
00:09.2,-0.004354477,-0.000131607,0.008005142,0,
00:09.2,-0.004360199,-0.000125885,0.008005142,0,
00:09.2,-0.004365921,-0.000131607,0.008010864,0,
00:09.2,-0.004365921,-0.000131607,0.008005142,0,
00:09.2,-0.004360199,-0.000125885,0.007976532,0,
00:09.2,-0.004360199,-0.000131607,0.007993698,0,
00:09.2,-0.004348755,-0.000125885,0.008005142,0,
00:09.3,-0.004371643,-0.000131607,0.008005142,0,
00:09.3,-0.004383087,-0.000137329,0.007982254,0,
00:09.3,-0.004383087,-0.000131607,0.007982254,0,
00:09.3,-0.004377365,-0.000137329,0.007982254,0,
00:09.3,-0.004371643,-0.000137329,0.007965088,0,
00:09.3,-0.004371643,-0.000131607,0.008022308,0,
00:09.3,-0.004360199,-0.000137329,0.008033752,0,
00:09.3,-0.004360199,-0.000125885,0.008010864,0,
00:09.3,-0.004360199,-0.000125885,0.008005142,0,
00:09.3,-0.004343033,-0.000125885,0.008010864,0,
00:09.3,-0.004343033,-0.000125885,0.007982254,0,
00:09.3,-0.004343033,-0.000125885,0.008022308,0,
00:09.3,-0.004354477,-0.000131607,0.00799942,0,
00:09.3,-0.004360199,-0.000125885,0.00802803,0,
00:09.3,-0.004365921,-0.000120163,0.00802803,0,
00:09.3,-0.004365921,-0.000120163,0.008022308,0,
00:09.3,-0.004360199,-0.000125885,0.007993698,0,
00:09.3,-0.004360199,-0.000125885,0.007993698,0,
00:09.3,-0.004354477,-0.000125885,0.008033752,0,
00:09.3,-0.004365921,-0.000125885,0.008022308,0,
00:09.3,-0.004377365,-0.000125885,0.008010864,0,
00:09.3,-0.004360199,-0.000125885,0.008010864,0,
00:09.3,-0.004360199,-0.000125885,0.008016586,0,
00:09.3,-0.004354477,-0.000125885,0.008016586,0,
00:09.3,-0.004354477,-0.000125885,0.008022308,0,
00:09.4,-0.004348755,-0.000120163,0.008022308,0,
00:09.4,-0.004348755,-0.000120163,0.008022308,0,
00:09.4,-0.004354477,-0.000125885,0.00802803,0,
00:09.4,-0.004365921,-0.000125885,0.00802803,0,
00:09.4,-0.004365921,-0.000125885,0.00799942,0,
00:09.4,-0.004371643,-0.000125885,0.00802803,0,
00:09.4,-0.004383087,-0.000125885,0.008033752,0,
00:09.4,-0.004360199,-0.000125885,0.008033752,0,
00:09.4,-0.004360199,-0.000120163,0.008016586,0,
00:09.4,-0.004365921,-0.000120163,0.008022308,0,
00:09.4,-0.004360199,-0.000125885,0.008022308,0,
00:09.4,-0.004354477,-0.000125885,0.008005142,0,
00:09.4,-0.004354477,-0.000131607,0.008039474,0,
00:09.4,-0.004360199,-0.000125885,0.008050919,0,
00:09.4,-0.004360199,-0.000125885,0.008045197,0,
00:09.4,-0.004365921,-0.000125885,0.008033752,0,
00:09.4,-0.004371643,-0.000120163,0.008039474,0,
00:09.4,-0.004354477,-0.000120163,0.008010864,0,
00:09.4,-0.004348755,-0.000125885,0.008022308,0,
00:09.4,-0.004365921,-0.000125885,0.008039474,0,
00:09.4,-0.004377365,-0.000120163,0.008010864,0,
00:09.4,-0.004371643,-0.000120163,0.008039474,0,
00:09.4,-0.004343033,-0.000120163,0.008062363,0,
00:09.4,-0.004343033,-0.000114441,0.008045197,0,
00:09.4,-0.004371643,-0.000125885,0.00802803,0,
00:09.5,-0.004360199,-0.000120163,0.008045197,0,
00:09.5,-0.004343033,-0.000120163,0.008050919,0,
00:09.5,-0.004343033,-0.000120163,0.008033752,0,
00:09.5,-0.004343033,-0.000120163,0.00802803,0,
00:09.5,-0.004360199,-0.000120163,0.00802803,0,
00:09.5,-0.004365921,-0.000120163,0.00802803,0,
00:09.5,-0.004360199,-0.000120163,0.008090973,0,
00:09.5,-0.004354477,-0.000125885,0.008068085,0,
00:09.5,-0.004360199,-0.000120163,0.008062363,0,
00:09.5,-0.004365921,-0.000125885,0.008050919,0,
00:09.5,-0.004365921,-0.000125885,0.008050919,0,
00:09.5,-0.004360199,-0.000125885,0.008056641,0,
00:09.5,-0.004354477,-0.000131607,0.008056641,0,
00:09.5,-0.004354477,-0.000125885,0.008056641,0,
00:09.5,-0.004360199,-0.000125885,0.008056641,0,
00:09.5,-0.004365921,-0.000125885,0.008039474,0,
00:09.5,-0.004365921,-0.000114441,0.008022308,0,
00:09.5,-0.004348755,-0.000120163,0.008085251,0,
00:09.5,-0.004348755,-0.000120163,0.008079529,0,
00:09.5,-0.004354477,-0.000120163,0.008073807,0,
00:09.5,-0.004360199,-0.000120163,0.008062363,0,
00:09.5,-0.004365921,-0.000125885,0.008068085,0,
00:09.5,-0.004348755,-0.000120163,0.008073807,0,
00:09.5,-0.004360199,-0.000125885,0.008073807,0,
00:09.5,-0.004371643,-0.000125885,0.008073807,0,
00:09.6,-0.004365921,-0.000120163,0.008062363,0,
00:09.6,-0.004343033,-0.000114441,0.008073807,0,
00:09.6,-0.004348755,-0.000114441,0.008079529,0,
00:09.6,-0.004348755,-0.000114441,0.008033752,0,
00:09.6,-0.004343033,-0.000120163,0.008079529,0,
00:09.6,-0.004354477,-0.000125885,0.008102417,0,
00:09.6,-0.004377365,-0.000131607,0.008108139,0,
00:09.6,-0.004354477,-0.000125885,0.008096695,0,
00:09.6,-0.004354477,-0.000120163,0.008073807,0,
00:09.6,-0.004365921,-0.000120163,0.008085251,0,
00:09.6,-0.004371643,-0.000120163,0.008096695,0,
00:09.6,-0.004360199,-0.000120163,0.008079529,0,
00:09.6,-0.004354477,-0.000120163,0.008085251,0,
00:09.6,-0.004348755,-0.000114441,0.008085251,0,
00:09.6,-0.004354477,-0.000114441,0.008113861,0,
00:09.6,-0.004348755,-0.000120163,0.008113861,0,
00:09.6,-0.004348755,-0.000120163,0.008113861,0,
00:09.6,-0.004365921,-0.000120163,0.008119583,0,
00:09.6,-0.004371643,-0.000120163,0.008119583,0,
00:09.6,-0.004377365,-0.000120163,0.008102417,0,
00:09.6,-0.004365921,-0.000120163,0.008108139,0,
00:09.6,-0.004354477,-0.000114441,0.008050919,0,
00:09.6,-0.004354477,-0.000120163,0.008136749,0,
00:09.6,-0.004365921,-0.000125885,0.008131027,0,
00:09.6,-0.004360199,-0.000125885,0.008136749,0,
00:09.7,-0.004365921,-0.000114441,0.008113861,0,
00:09.7,-0.004365921,-0.000120163,0.008136749,0,
00:09.7,-0.004360199,-0.000120163,0.008142471,0,
00:09.7,-0.004360199,-0.000120163,0.008136749,0,
00:09.7,-0.004371643,-0.000114441,0.008136749,0,
00:09.7,-0.004383087,-0.000125885,0.008142471,0,
00:09.7,-0.004377365,-0.000125885,0.008136749,0,
00:09.7,-0.004354477,-0.000114441,0.008113861,0,
00:09.7,-0.004348755,-0.000114441,0.008171082,0,
00:09.7,-0.004360199,-0.000114441,0.008148193,0,
00:09.7,-0.004365921,-0.000120163,0.008142471,0,
00:09.7,-0.004360199,-0.000120163,0.008153915,0,
00:09.7,-0.004365921,-0.000114441,0.008142471,0,
00:09.7,-0.004365921,-0.000114441,0.008171082,0,
00:09.7,-0.004365921,-0.000120163,0.008165359,0,
00:09.7,-0.004377365,-0.000120163,0.008153915,0,
00:09.7,-0.004365921,-0.000108719,0.008148193,0,
00:09.7,-0.004354477,-0.000120163,0.008159637,0,
00:09.7,-0.004354477,-0.000120163,0.008176804,0,
00:09.7,-0.004360199,-0.000114441,0.008176804,0,
00:09.7,-0.004365921,-0.000108719,0.008188248,0,
00:09.7,-0.004360199,-0.000108719,0.008176804,0,
00:09.7,-0.004365921,-0.000108719,0.008182526,0,
00:09.7,-0.004371643,-0.000114441,0.008182526,0,
00:09.7,-0.004360199,-0.000108719,0.00819397,0,
00:09.8,-0.004348755,-0.000114441,0.008199692,0,
00:09.8,-0.004360199,-0.000108719,0.008188248,0,
00:09.8,-0.004360199,-0.000102997,0.008188248,0,
00:09.8,-0.004371643,-0.000108719,0.008176804,0,
00:09.8,-0.004371643,-0.000108719,0.008205414,0,
00:09.8,-0.004354477,-0.000102997,0.008199692,0,
00:09.8,-0.004348755,-0.000108719,0.008211136,0,
00:09.8,-0.004360199,-0.000108719,0.008205414,0,
00:09.8,-0.004371643,-0.000108719,0.008211136,0,
00:09.8,-0.004383087,-0.000102997,0.008199692,0,
00:09.8,-0.004371643,-0.000102997,0.008211136,0,
00:09.8,-0.004365921,-0.000102997,0.008205414,0,
00:09.8,-0.004365921,-0.000108719,0.008211136,0,
00:09.8,-0.004365921,-0.000102997,0.008182526,0,
00:09.8,-0.004377365,-0.000108719,0.008165359,0,
00:09.8,-0.004383087,-0.000114441,0.008245468,0,
00:09.8,-0.004371643,-0.000102997,0.008256912,0,
00:09.8,-0.004360199,-0.000102997,0.008239746,0,
00:09.8,-0.004360199,-0.000102997,0.008211136,0,
00:09.8,-0.004360199,-0.000102997,0.008228302,0,
00:09.8,-0.004371643,-0.000102997,0.008245468,0,
00:09.8,-0.004371643,-0.000102997,0.008245468,0,
