Elapsed_Time,EMG1,EMG2,EMG3,BioRadio Event,Unnamed: 5
00:00:00,-0.00425148,-0.000823975,0.007547379,0,
00:00.0,-0.004240036,-0.000823975,0.007547379,0,
00:00.0,-0.004240036,-0.000812531,0.007547379,0,
00:00.0,-0.004245758,-0.000812531,0.007547379,0,
00:00.0,-0.00425148,-0.000812531,0.007553101,0,
00:00.0,-0.004245758,-0.000812531,0.007547379,0,
00:00.0,-0.004245758,-0.000812531,0.007547379,0,
00:00.0,-0.004245758,-0.000812531,0.007558823,0,
00:00.0,-0.004245758,-0.000818253,0.007558823,0,
00:00.0,-0.004245758,-0.000818253,0.007553101,0,
00:00.0,-0.004257202,-0.000818253,0.007553101,0,
00:00.0,-0.004262924,-0.000818253,0.007558823,0,
00:00.0,-0.00425148,-0.000818253,0.007570267,0,
00:00.1,-0.004234314,-0.000812531,0.007570267,0,
00:00.1,-0.004228592,-0.000806808,0.007570267,0,
00:00.1,-0.004228592,-0.000812531,0.007570267,0,
00:00.1,-0.004211426,-0.000806808,0.007575989,0,
00:00.1,-0.004217148,-0.000806808,0.007570267,0,
00:00.1,-0.00425148,-0.000812531,0.007575989,0,
00:00.1,-0.004257202,-0.000818253,0.007575989,0,
00:00.1,-0.004257202,-0.000823975,0.007581711,0,
00:00.1,-0.00425148,-0.000818253,0.007581711,0,
00:00.1,-0.004234314,-0.000818253,0.007581711,0,
00:00.1,-0.00422287,-0.000812531,0.007581711,0,
00:00.1,-0.004228592,-0.000806808,0.007581711,0,
00:00.1,-0.004240036,-0.000806808,0.007587433,0,
00:00.1,-0.004245758,-0.000818253,0.007587433,0,
00:00.1,-0.00425148,-0.000829697,0.007581711,0,
00:00.1,-0.004245758,-0.000818253,0.007587433,0,
00:00.1,-0.004245758,-0.000812531,0.007593155,0,
00:00.1,-0.004240036,-0.000818253,0.007593155,0,
00:00.1,-0.004234314,-0.000818253,0.007587433,0,
00:00.1,-0.004234314,-0.000818253,0.007593155,0,
00:00.1,-0.004234314,-0.000818253,0.007598877,0,
00:00.1,-0.004240036,-0.000818253,0.007598877,0,
00:00.1,-0.004240036,-0.000812531,0.007598877,0,
00:00.1,-0.004240036,-0.000806808,0.007604599,0,
00:00.1,-0.004228592,-0.000806808,0.007616043,0,
00:00.2,-0.004234314,-0.000806808,0.007604599,0,
00:00.2,-0.004245758,-0.000812531,0.007593155,0,
00:00.2,-0.004245758,-0.000812531,0.007598877,0,
00:00.2,-0.004234314,-0.000812531,0.007604599,0,
00:00.2,-0.00422287,-0.000812531,0.007610321,0,
00:00.2,-0.00422287,-0.000806808,0.007610321,0,
00:00.2,-0.004240036,-0.000806808,0.007610321,0,
00:00.2,-0.004240036,-0.000812531,0.007610321,0,
00:00.2,-0.004234314,-0.000812531,0.007616043,0,
00:00.2,-0.004228592,-0.000806808,0.007616043,0,
00:00.2,-0.004228592,-0.000806808,0.007616043,0,
00:00.2,-0.00422287,-0.000812531,0.007616043,0,
00:00.2,-0.00422287,-0.000806808,0.007621765,0,
00:00.2,-0.00422287,-0.000806808,0.007621765,0,
00:00.2,-0.00422287,-0.000801086,0.007627487,0,
00:00.2,-0.004228592,-0.000806808,0.007627487,0,
00:00.2,-0.004234314,-0.000812531,0.007627487,0,
00:00.2,-0.004240036,-0.000823975,0.007633209,0,
00:00.2,-0.004245758,-0.000818253,0.007633209,0,
00:00.2,-0.004240036,-0.000801086,0.007633209,0,
00:00.2,-0.004234314,-0.000806808,0.007633209,0,
00:00.2,-0.004228592,-0.000801086,0.007644653,0,
00:00.2,-0.004217148,-0.000801086,0.007644653,0,
00:00.2,-0.004217148,-0.000801086,0.007638931,0,
00:00.2,-0.004234314,-0.000806808,0.007633209,0,
00:00.3,-0.00425148,-0.000801086,0.007633209,0,
00:00.3,-0.004245758,-0.000801086,0.007638931,0,
00:00.3,-0.00422287,-0.000806808,0.007644653,0,
00:00.3,-0.004211426,-0.000806808,0.007644653,0,
00:00.3,-0.004211426,-0.000801086,0.007644653,0,
00:00.3,-0.004228592,-0.000801086,0.007644653,0,
00:00.3,-0.004228592,-0.000801086,0.007650375,0,
00:00.3,-0.004228592,-0.000801086,0.007650375,0,
00:00.3,-0.004228592,-0.000801086,0.007650375,0,
00:00.3,-0.004234314,-0.000806808,0.007650375,0,
00:00.3,-0.004240036,-0.000806808,0.007650375,0,
00:00.3,-0.004245758,-0.000801086,0.007656097,0,
00:00.3,-0.004228592,-0.000801086,0.007667542,0,
00:00.3,-0.004217148,-0.000801086,0.007656097,0,
00:00.3,-0.004211426,-0.000806808,0.007650375,0,
00:00.3,-0.00422287,-0.000812531,0.007656097,0,
00:00.3,-0.004228592,-0.000801086,0.007656097,0,
00:00.3,-0.004234314,-0.000801086,0.007661819,0,
00:00.3,-0.004240036,-0.000806808,0.007667542,0,
00:00.3,-0.004240036,-0.000806808,0.007667542,0,
00:00.3,-0.004228592,-0.000801086,0.007667542,0,
00:00.3,-0.004211426,-0.000795364,0.007667542,0,
00:00.3,-0.004211426,-0.000801086,0.007673264,0,
00:00.3,-0.00422287,-0.000801086,0.007673264,0,
00:00.3,-0.004228592,-0.000795364,0.007673264,0,
00:00.4,-0.004217148,-0.000789642,0.007673264,0,
00:00.4,-0.004217148,-0.000795364,0.007678986,0,
00:00.4,-0.00422287,-0.000801086,0.007673264,0,
00:00.4,-0.00422287,-0.000801086,0.007678986,0,
00:00.4,-0.004217148,-0.000801086,0.007678986,0,
00:00.4,-0.00422287,-0.000795364,0.007684708,0,
00:00.4,-0.00422287,-0.000806808,0.007684708,0,
00:00.4,-0.00422287,-0.000801086,0.007684708,0,
00:00.4,-0.00422287,-0.000795364,0.007696152,0,
00:00.4,-0.004217148,-0.000795364,0.00769043,0,
00:00.4,-0.00422287,-0.000801086,0.007684708,0,
00:00.4,-0.004228592,-0.000801086,0.00769043,0,
00:00.4,-0.004217148,-0.000795364,0.007696152,0,
00:00.4,-0.004211426,-0.000795364,0.007696152,0,
00:00.4,-0.00422287,-0.000801086,0.007696152,0,
00:00.4,-0.004234314,-0.000806808,0.00769043,0,
00:00.4,-0.004228592,-0.000801086,0.007696152,0,
00:00.4,-0.004217148,-0.000795364,0.007701874,0,
00:00.4,-0.004211426,-0.000795364,0.007701874,0,
00:00.4,-0.004211426,-0.000795364,0.007701874,0,
00:00.4,-0.004217148,-0.000795364,0.007701874,0,
00:00.4,-0.004228592,-0.000795364,0.007701874,0,
00:00.4,-0.004234314,-0.000801086,0.007713318,0,
00:00.4,-0.004217148,-0.000795364,0.00771904,0,
00:00.4,-0.004211426,-0.000801086,0.00771904,0,
00:00.5,-0.004217148,-0.000795364,0.007707596,0,
00:00.5,-0.004211426,-0.000789642,0.007707596,0,
00:00.5,-0.004205704,-0.000789642,0.007713318,0,
00:00.5,-0.004199982,-0.000789642,0.00771904,0,
00:00.5,-0.004211426,-0.000795364,0.00771904,0,
00:00.5,-0.004205704,-0.000789642,0.00771904,0,
00:00.5,-0.004217148,-0.000789642,0.00771904,0,
00:00.5,-0.00422287,-0.000795364,0.00771904,0,
00:00.5,-0.004217148,-0.000795364,0.00771904,0,
00:00.5,-0.00422287,-0.000795364,0.00771904,0,
00:00.5,-0.004228592,-0.000795364,0.007730484,0,
00:00.5,-0.00422287,-0.000795364,0.007730484,0,
00:00.5,-0.004205704,-0.000789642,0.007730484,0,
00:00.5,-0.004199982,-0.000795364,0.007730484,0,
00:00.5,-0.004217148,-0.000795364,0.007736206,0,
00:00.5,-0.004234314,-0.00078392,0.007730484,0,
00:00.5,-0.004228592,-0.000789642,0.007730484,0,
00:00.5,-0.004211426,-0.000795364,0.007736206,0,
00:00.5,-0.004188538,-0.000789642,0.007741928,0,
00:00.5,-0.00419426,-0.000795364,0.007741928,0,
00:00.5,-0.00422287,-0.000795364,0.007736206,0,
00:00.5,-0.004228592,-0.000801086,0.007741928,0,
00:00.5,-0.004228592,-0.000789642,0.00774765,0,
00:00.5,-0.004217148,-0.000789642,0.007741928,0,
00:00.5,-0.004205704,-0.000789642,0.00774765,0,
00:00.6,-0.00419426,-0.000789642,0.00774765,0,
00:00.6,-0.00419426,-0.00078392,0.007741928,0,
00:00.6,-0.004205704,-0.000789642,0.00774765,0,
00:00.6,-0.004228592,-0.000795364,0.007753372,0,
00:00.6,-0.004228592,-0.000795364,0.007753372,0,
00:00.6,-0.004211426,-0.000789642,0.007759094,0,
00:00.6,-0.00419426,-0.000789642,0.007764816,0,
00:00.6,-0.004199982,-0.00078392,0.007753372,0,
00:00.6,-0.004199982,-0.00078392,0.00774765,0,
00:00.6,-0.004188538,-0.00078392,0.007753372,0,
00:00.6,-0.00419426,-0.00078392,0.007764816,0,
00:00.6,-0.004217148,-0.000789642,0.007764816,0,
00:00.6,-0.004211426,-0.000789642,0.007764816,0,
00:00.6,-0.004205704,-0.00078392,0.007764816,0,
00:00.6,-0.004211426,-0.000789642,0.007764816,0,
00:00.6,-0.004217148,-0.000789642,0.007764816,0,
00:00.6,-0.004217148,-0.000789642,0.007764816,0,
00:00.6,-0.004211426,-0.000789642,0.007764816,0,
00:00.6,-0.004199982,-0.000789642,0.007770538,0,
00:00.6,-0.004199982,-0.00078392,0.007770538,0,
00:00.6,-0.004211426,-0.00078392,0.007770538,0,
00:00.6,-0.004217148,-0.000789642,0.00777626,0,
00:00.6,-0.004211426,-0.000789642,0.00777626,0,
00:00.6,-0.00419426,-0.00078392,0.007781982,0,
00:00.6,-0.00419426,-0.00078392,0.00777626,0,
00:00.7,-0.004199982,-0.000789642,0.007781982,0,
00:00.7,-0.004199982,-0.000789642,0.007781982,0,
00:00.7,-0.004188538,-0.000789642,0.007781982,0,
00:00.7,-0.004188538,-0.000795364,0.007781982,0,
00:00.7,-0.004199982,-0.00078392,0.007781982,0,
00:00.7,-0.004217148,-0.000789642,0.007787704,0,
00:00.7,-0.00422287,-0.000795364,0.007787704,0,
00:00.7,-0.004205704,-0.00078392,0.007793427,0,
00:00.7,-0.004188538,-0.000778198,0.007787704,0,
00:00.7,-0.004182816,-0.00078392,0.007793427,0,
00:00.7,-0.004182816,-0.00078392,0.007793427,0,
00:00.7,-0.004188538,-0.00078392,0.007793427,0,
00:00.7,-0.004188538,-0.000795364,0.007799149,0,
00:00.7,-0.00419426,-0.00078392,0.007799149,0,
00:00.7,-0.004205704,-0.00078392,0.007793427,0,
00:00.7,-0.004217148,-0.000789642,0.007799149,0,
00:00.7,-0.004217148,-0.000795364,0.007804871,0,
00:00.7,-0.004205704,-0.000789642,0.007804871,0,
00:00.7,-0.004188538,-0.000789642,0.007804871,0,
00:00.7,-0.004182816,-0.00078392,0.007804871,0,
00:00.7,-0.004182816,-0.00078392,0.007810593,0,
00:00.7,-0.004182816,-0.000778198,0.007804871,0,
00:00.7,-0.004182816,-0.00078392,0.007810593,0,
00:00.7,-0.004188538,-0.00078392,0.007810593,0,
00:00.7,-0.00419426,-0.00078392,0.007810593,0,
00:00.8,-0.004199982,-0.000789642,0.007816315,0,
00:00.8,-0.004211426,-0.000789642,0.007816315,0,
00:00.8,-0.004211426,-0.000789642,0.007816315,0,
00:00.8,-0.004199982,-0.000789642,0.007822037,0,
00:00.8,-0.004182816,-0.00078392,0.007822037,0,
00:00.8,-0.004182816,-0.00078392,0.007822037,0,
00:00.8,-0.004199982,-0.00078392,0.007827759,0,
00:00.8,-0.004205704,-0.000789642,0.007827759,0,
00:00.8,-0.004217148,-0.000795364,0.007827759,0,
00:00.8,-0.00422287,-0.000795364,0.007827759,0,
00:00.8,-0.004217148,-0.000789642,0.007827759,0,
00:00.8,-0.004205704,-0.000789642,0.007827759,0,
00:00.8,-0.00419426,-0.00078392,0.007833481,0,
00:00.8,-0.004171371,-0.00078392,0.007833481,0,
00:00.8,-0.004159927,-0.00078392,0.007822037,0,
00:00.8,-0.004177094,-0.000778198,0.007827759,0,
00:00.8,-0.004182816,-0.00078392,0.007827759,0,
00:00.8,-0.004182816,-0.000789642,0.007827759,0,
00:00.8,-0.004188538,-0.000795364,0.007833481,0,
00:00.8,-0.00419426,-0.00078392,0.007839203,0,
00:00.8,-0.004182816,-0.000778198,0.007839203,0,
00:00.8,-0.004182816,-0.00078392,0.007839203,0,
00:00.8,-0.004182816,-0.000789642,0.007844925,0,
00:00.8,-0.004182816,-0.000789642,0.007844925,0,
00:00.8,-0.004182816,-0.00078392,0.007839203,0,
00:00.9,-0.004182816,-0.00078392,0.007844925,0,
00:00.9,-0.004182816,-0.000789642,0.007850647,0,
00:00.9,-0.004182816,-0.00078392,0.007850647,0,
00:00.9,-0.004182816,-0.00078392,0.007850647,0,
00:00.9,-0.004188538,-0.00078392,0.007850647,0,
00:00.9,-0.004177094,-0.000789642,0.007856369,0,
00:00.9,-0.004171371,-0.00078392,0.007856369,0,
00:00.9,-0.004188538,-0.00078392,0.007856369,0,
00:00.9,-0.004199982,-0.000789642,0.007862091,0,
00:00.9,-0.004188538,-0.00078392,0.007867813,0,
00:00.9,-0.004188538,-0.00078392,0.007862091,0,
00:00.9,-0.00419426,-0.000789642,0.007862091,0,
00:00.9,-0.004177094,-0.000789642,0.007862091,0,
00:00.9,-0.004171371,-0.00078392,0.007867813,0,
00:00.9,-0.004188538,-0.00078392,0.007873535,0,
00:00.9,-0.004188538,-0.00078392,0.007873535,0,
00:00.9,-0.004171371,-0.00078392,0.007873535,0,
00:00.9,-0.004177094,-0.00078392,0.007873535,0,
00:00.9,-0.00419426,-0.000795364,0.007879257,0,
00:00.9,-0.004199982,-0.000801086,0.007884979,0,
00:00.9,-0.004182816,-0.000801086,0.007884979,0,
00:00.9,-0.004159927,-0.00078392,0.007879257,0,
00:00.9,-0.004148483,-0.000772476,0.007879257,0,
00:00.9,-0.004165649,-0.000778198,0.007884979,0,
00:00.9,-0.00419426,-0.00078392,0.007884979,0,
00:01.0,-0.004205704,-0.00078392,0.007890701,0,
00:01.0,-0.004199982,-0.00078392,0.007890701,0,
00:01.0,-0.004171371,-0.000789642,0.007890701,0,
00:01.0,-0.004148483,-0.00078392,0.007896423,0,
00:01.0,-0.004154205,-0.000778198,0.007896423,0,
00:01.0,-0.004171371,-0.00078392,0.007896423,0,
00:01.0,-0.004177094,-0.00078392,0.007896423,0,
00:01.0,-0.004182816,-0.00078392,0.007907867,0,
00:01.0,-0.004182816,-0.000789642,0.007907867,0,
00:01.0,-0.004171371,-0.000778198,0.007902145,0,
00:01.0,-0.004165649,-0.000778198,0.007907867,0,
00:01.0,-0.004171371,-0.00078392,0.007913589,0,
00:00:01,-0.004171371,-0.00078392,0.007913589,0,
00:01.0,-0.004177094,-0.00078392,0.007913589,0,
00:01.0,-0.004182816,-0.000789642,0.007907867,0,
00:01.0,-0.004188538,-0.00078392,0.007913589,0,
00:01.0,-0.00419426,-0.00078392,0.007913589,0,
00:01.0,-0.004182816,-0.000778198,0.007919312,0,
00:01.0,-0.004171371,-0.00078392,0.007919312,0,
00:01.0,-0.004171371,-0.000789642,0.007919312,0,
00:01.0,-0.004171371,-0.000789642,0.007925034,0,
00:01.0,-0.004165649,-0.00078392,0.007925034,0,
00:01.0,-0.004171371,-0.00078392,0.007930756,0,
00:01.0,-0.004165649,-0.000789642,0.007925034,0,
00:01.0,-0.004165649,-0.00078392,0.007930756,0,
00:01.1,-0.004177094,-0.00078392,0.007930756,0,
00:01.1,-0.004177094,-0.00078392,0.007936478,0,
00:01.1,-0.004159927,-0.000778198,0.007936478,0,
00:01.1,-0.004159927,-0.000778198,0.007936478,0,
00:01.1,-0.004171371,-0.00078392,0.007936478,0,
00:01.1,-0.004165649,-0.00078392,0.007936478,0,
00:01.1,-0.004159927,-0.00078392,0.007936478,0,
00:01.1,-0.004159927,-0.000778198,0.0079422,0,
00:01.1,-0.004171371,-0.00078392,0.007947922,0,
00:01.1,-0.004188538,-0.00078392,0.007947922,0,
00:01.1,-0.004182816,-0.000789642,0.007947922,0,
00:01.1,-0.004159927,-0.000778198,0.0079422,0,
00:01.1,-0.004142761,-0.000772476,0.007936478,0,
00:01.1,-0.004154205,-0.00078392,0.007947922,0,
00:01.1,-0.004171371,-0.00078392,0.007959366,0,
00:01.1,-0.004188538,-0.000789642,0.007953644,0,
00:01.1,-0.004177094,-0.000789642,0.007947922,0,
00:01.1,-0.004154205,-0.00078392,0.007953644,0,
00:01.1,-0.004154205,-0.00078392,0.007953644,0,
00:01.1,-0.004165649,-0.00078392,0.007953644,0,
00:01.1,-0.004171371,-0.00078392,0.007959366,0,
00:01.1,-0.004165649,-0.00078392,0.007965088,0,
00:01.1,-0.004177094,-0.000778198,0.007959366,0,
00:01.1,-0.004188538,-0.00078392,0.007959366,0,
00:01.1,-0.004159927,-0.00078392,0.007965088,0,
00:01.2,-0.004148483,-0.000778198,0.007965088,0,
00:01.2,-0.004148483,-0.000778198,0.007959366,0,
00:01.2,-0.004159927,-0.00078392,0.007965088,0,
00:01.2,-0.004171371,-0.00078392,0.00797081,0,
00:01.2,-0.004165649,-0.000772476,0.00797081,0,
00:01.2,-0.004159927,-0.000772476,0.00797081,0,
00:01.2,-0.004165649,-0.00078392,0.00797081,0,
00:01.2,-0.004154205,-0.000778198,0.00797081,0,
00:01.2,-0.004159927,-0.000778198,0.007976532,0,
00:01.2,-0.004165649,-0.000778198,0.007976532,0,
00:01.2,-0.004165649,-0.000778198,0.007976532,0,
00:01.2,-0.004148483,-0.000778198,0.007976532,0,
00:01.2,-0.004154205,-0.000778198,0.007976532,0,
00:01.2,-0.004177094,-0.000778198,0.00797081,0,
00:01.2,-0.004182816,-0.00078392,0.007976532,0,
00:01.2,-0.004171371,-0.00078392,0.007987976,0,
00:01.2,-0.004148483,-0.000778198,0.007987976,0,
00:01.2,-0.004148483,-0.000772476,0.007987976,0,
00:01.2,-0.004171371,-0.000778198,0.007993698,0,
00:01.2,-0.004171371,-0.000778198,0.007993698,0,
00:01.2,-0.004171371,-0.00078392,0.00799942,0,
00:01.2,-0.004148483,-0.000778198,0.00799942,0,
00:01.2,-0.004131317,-0.000772476,0.00799942,0,
00:01.2,-0.004125595,-0.000766754,0.00799942,0,
00:01.2,-0.004142761,-0.000772476,0.00799942,0,
00:01.3,-0.004165649,-0.00078392,0.008005142,0,
00:01.3,-0.004154205,-0.000772476,0.008010864,0,
00:01.3,-0.004142761,-0.000766754,0.008005142,0,
00:01.3,-0.004148483,-0.000778198,0.008005142,0,
00:01.3,-0.004142761,-0.00078392,0.008005142,0,
00:01.3,-0.004142761,-0.000778198,0.008005142,0,
00:01.3,-0.004148483,-0.000778198,0.008010864,0,
00:01.3,-0.004148483,-0.00078392,0.008010864,0,
00:01.3,-0.004148483,-0.000778198,0.008010864,0,
00:01.3,-0.004165649,-0.000772476,0.008016586,0,
00:01.3,-0.004165649,-0.00078392,0.008005142,0,
00:01.3,-0.004154205,-0.00078392,0.008010864,0,
00:01.3,-0.004131317,-0.000766754,0.008010864,0,
00:01.3,-0.004131317,-0.000766754,0.008010864,0,
00:01.3,-0.004142761,-0.000772476,0.008010864,0,
00:01.3,-0.004165649,-0.00078392,0.008005142,0,
00:01.3,-0.004177094,-0.000789642,0.008016586,0,
00:01.3,-0.004171371,-0.000778198,0.008022308,0,
00:01.3,-0.004159927,-0.000778198,0.008022308,0,
00:01.3,-0.004137039,-0.000772476,0.008016586,0,
00:01.3,-0.004125595,-0.000766754,0.008022308,0,
00:01.3,-0.004125595,-0.000772476,0.00802803,0,
00:01.3,-0.004148483,-0.000772476,0.00802803,0,
00:01.3,-0.004148483,-0.000772476,0.00802803,0,
00:01.3,-0.004154205,-0.000772476,0.00802803,0,
00:01.4,-0.004159927,-0.000778198,0.00802803,0,
00:01.4,-0.004148483,-0.00078392,0.00802803,0,
00:01.4,-0.004142761,-0.00078392,0.008033752,0,
00:01.4,-0.004142761,-0.000772476,0.008039474,0,
00:01.4,-0.004137039,-0.000772476,0.008039474,0,
00:01.4,-0.004148483,-0.000772476,0.008039474,0,
00:01.4,-0.004159927,-0.000778198,0.008039474,0,
00:01.4,-0.004154205,-0.000778198,0.008045197,0,
00:01.4,-0.004148483,-0.000772476,0.008045197,0,
00:01.4,-0.004148483,-0.000766754,0.008045197,0,
00:01.4,-0.004148483,-0.000766754,0.008050919,0,
00:01.4,-0.004148483,-0.000772476,0.008050919,0,
00:01.4,-0.004142761,-0.000778198,0.008050919,0,
00:01.4,-0.004142761,-0.000778198,0.008045197,0,
00:01.4,-0.004148483,-0.000772476,0.008045197,0,
00:01.4,-0.004154205,-0.000766754,0.008056641,0,
00:01.4,-0.004142761,-0.000772476,0.008068085,0,
00:01.4,-0.004137039,-0.000772476,0.008056641,0,
00:01.4,-0.004131317,-0.000772476,0.008056641,0,
00:01.4,-0.004137039,-0.000772476,0.008062363,0,
00:01.4,-0.004137039,-0.000778198,0.008056641,0,
00:01.4,-0.004142761,-0.000772476,0.008056641,0,
00:01.4,-0.004148483,-0.000778198,0.008056641,0,
00:01.4,-0.004148483,-0.000772476,0.008056641,0,
00:01.4,-0.004142761,-0.000772476,0.008056641,0,
00:01.5,-0.004137039,-0.000772476,0.008068085,0,
00:01.5,-0.004137039,-0.000772476,0.008073807,0,
00:01.5,-0.004125595,-0.000772476,0.008068085,0,
00:01.5,-0.004131317,-0.000772476,0.008073807,0,
00:01.5,-0.004137039,-0.000772476,0.008073807,0,
00:01.5,-0.004142761,-0.000772476,0.008073807,0,
00:01.5,-0.004148483,-0.000772476,0.008073807,0,
00:01.5,-0.004137039,-0.000772476,0.008079529,0,
00:01.5,-0.004125595,-0.000772476,0.008085251,0,
00:01.5,-0.004131317,-0.000772476,0.008079529,0,
00:01.5,-0.004142761,-0.000778198,0.008085251,0,
00:01.5,-0.004148483,-0.000772476,0.008090973,0,
00:01.5,-0.004137039,-0.000772476,0.008090973,0,
00:01.5,-0.004131317,-0.000772476,0.008090973,0,
00:01.5,-0.004125595,-0.000778198,0.008085251,0,
00:01.5,-0.004125595,-0.000772476,0.008090973,0,
00:01.5,-0.004142761,-0.000766754,0.008096695,0,
00:01.5,-0.004142761,-0.000772476,0.008096695,0,
00:01.5,-0.004131317,-0.000772476,0.008096695,0,
00:01.5,-0.004137039,-0.000778198,0.008102417,0,
00:01.5,-0.004142761,-0.000778198,0.008102417,0,
00:01.5,-0.004148483,-0.000778198,0.008102417,0,
00:01.5,-0.004142761,-0.000772476,0.008108139,0,
00:01.5,-0.004125595,-0.000772476,0.008108139,0,
00:01.5,-0.004125595,-0.000772476,0.008108139,0,
00:01.6,-0.004142761,-0.000778198,0.008108139,0,
00:01.6,-0.004148483,-0.00078392,0.008113861,0,
00:01.6,-0.004148483,-0.00078392,0.008113861,0,
00:01.6,-0.004131317,-0.000772476,0.008119583,0,
00:01.6,-0.004119873,-0.000772476,0.008119583,0,
00:01.6,-0.004119873,-0.000772476,0.008125305,0,
00:01.6,-0.004119873,-0.000766754,0.008119583,0,
00:01.6,-0.004114151,-0.000766754,0.008113861,0,
00:01.6,-0.004114151,-0.000766754,0.008119583,0,
00:01.6,-0.004131317,-0.000772476,0.008125305,0,
00:01.6,-0.004137039,-0.000778198,0.008125305,0,
00:01.6,-0.004131317,-0.000778198,0.008131027,0,
00:01.6,-0.004119873,-0.000772476,0.008131027,0,
00:01.6,-0.004131317,-0.000772476,0.008136749,0,
00:01.6,-0.004131317,-0.000772476,0.008136749,0,
00:01.6,-0.004125595,-0.000772476,0.008136749,0,
00:01.6,-0.004114151,-0.000772476,0.008136749,0,
00:01.6,-0.004108429,-0.000766754,0.008136749,0,
00:01.6,-0.004108429,-0.000761032,0.008136749,0,
00:01.6,-0.004125595,-0.000766754,0.008136749,0,
00:01.6,-0.004119873,-0.000766754,0.008148193,0,
00:01.6,-0.004119873,-0.000766754,0.008142471,0,
00:01.6,-0.004125595,-0.000766754,0.008148193,0,
00:01.6,-0.004131317,-0.000772476,0.008153915,0,
00:01.6,-0.004137039,-0.000772476,0.008153915,0,
00:01.7,-0.004142761,-0.000778198,0.008153915,0,
00:01.7,-0.004142761,-0.000778198,0.008159637,0,
00:01.7,-0.004137039,-0.000772476,0.008159637,0,
00:01.7,-0.004137039,-0.000772476,0.008165359,0,
00:01.7,-0.004119873,-0.000772476,0.008165359,0,
00:01.7,-0.004102707,-0.000766754,0.008165359,0,
00:01.7,-0.004108429,-0.000772476,0.008171082,0,
00:01.7,-0.004114151,-0.000772476,0.008171082,0,
00:01.7,-0.004119873,-0.000766754,0.008176804,0,
00:01.7,-0.004119873,-0.000772476,0.008176804,0,
00:01.7,-0.004108429,-0.000766754,0.008171082,0,
00:01.7,-0.004119873,-0.000766754,0.008171082,0,
00:01.7,-0.004125595,-0.000766754,0.008188248,0,
00:01.7,-0.004119873,-0.000766754,0.00819397,0,
00:01.7,-0.004114151,-0.000772476,0.008182526,0,
00:01.7,-0.004114151,-0.000772476,0.008188248,0,
00:01.7,-0.004119873,-0.000766754,0.008188248,0,
00:01.7,-0.004114151,-0.000766754,0.008188248,0,
00:01.7,-0.004108429,-0.000766754,0.00819397,0,
00:01.7,-0.004119873,-0.000766754,0.008199692,0,
00:01.7,-0.004125595,-0.000761032,0.008199692,0,
00:01.7,-0.004114151,-0.000766754,0.00819397,0,
00:01.7,-0.004108429,-0.000772476,0.008199692,0,
00:01.7,-0.004114151,-0.000778198,0.008211136,0,
00:01.7,-0.004131317,-0.000772476,0.008211136,0,
00:01.8,-0.004137039,-0.000766754,0.008211136,0,
00:01.8,-0.004137039,-0.000766754,0.008211136,0,
00:01.8,-0.004142761,-0.000772476,0.008211136,0,
00:01.8,-0.004114151,-0.000761032,0.008211136,0,
00:01.8,-0.004096985,-0.000766754,0.00822258,0,
00:01.8,-0.004091263,-0.000766754,0.00822258,0,
00:01.8,-0.004096985,-0.000766754,0.00822258,0,
00:01.8,-0.004102707,-0.000766754,0.00822258,0,
00:01.8,-0.004125595,-0.000772476,0.00822258,0,
00:01.8,-0.004131317,-0.000772476,0.008228302,0,
00:01.8,-0.004119873,-0.000772476,0.008228302,0,
00:01.8,-0.004108429,-0.000778198,0.008228302,0,
00:01.8,-0.004102707,-0.000772476,0.008228302,0,
00:01.8,-0.004096985,-0.00075531,0.008234024,0,
00:01.8,-0.004096985,-0.00075531,0.008228302,0,
00:01.8,-0.004108429,-0.000761032,0.008234024,0,
00:01.8,-0.004102707,-0.000766754,0.008239746,0,
00:01.8,-0.004108429,-0.000761032,0.008239746,0,
00:01.8,-0.004102707,-0.000766754,0.008234024,0,
00:01.8,-0.004108429,-0.000761032,0.008239746,0,
00:01.8,-0.004108429,-0.000766754,0.008245468,0,
00:01.8,-0.004114151,-0.000766754,0.008245468,0,
00:01.8,-0.004114151,-0.000766754,0.00825119,0,
00:01.8,-0.004119873,-0.000766754,0.00825119,0,
00:01.8,-0.004114151,-0.000772476,0.008256912,0,
00:01.9,-0.004114151,-0.000772476,0.008256912,0,
00:01.9,-0.004119873,-0.000772476,0.00825119,0,
00:01.9,-0.004125595,-0.000772476,0.008256912,0,
00:01.9,-0.004131317,-0.000778198,0.008256912,0,
00:01.9,-0.004119873,-0.000772476,0.008256912,0,
00:01.9,-0.004119873,-0.000766754,0.008256912,0,
00:01.9,-0.004096985,-0.000766754,0.008268356,0,
00:01.9,-0.004074097,-0.000761032,0.008268356,0,
00:01.9,-0.004085541,-0.000761032,0.008268356,0,
00:01.9,-0.004091263,-0.000761032,0.008262634,0,
00:01.9,-0.004096985,-0.000766754,0.008268356,0,
00:01.9,-0.004096985,-0.000766754,0.0082798,0,
00:01.9,-0.004091263,-0.000761032,0.0082798,0,
00:01.9,-0.004096985,-0.000761032,0.0082798,0,
00:01.9,-0.004108429,-0.000772476,0.008274078,0,
00:01.9,-0.004114151,-0.000778198,0.008274078,0,
00:01.9,-0.004119873,-0.000772476,0.0082798,0,
00:01.9,-0.004114151,-0.000761032,0.0082798,0,
00:01.9,-0.004096985,-0.000761032,0.0082798,0,
00:01.9,-0.004091263,-0.000761032,0.0082798,0,
00:01.9,-0.004079819,-0.000761032,0.008285522,0,
00:01.9,-0.004085541,-0.000761032,0.008291245,0,
00:01.9,-0.004096985,-0.000766754,0.008285522,0,
00:01.9,-0.004108429,-0.000766754,0.008285522,0,
00:01.9,-0.004108429,-0.000766754,0.008291245,0,
00:02.0,-0.004102707,-0.000766754,0.008291245,0,
00:02.0,-0.004102707,-0.000772476,0.008302689,0,
00:02.0,-0.004108429,-0.000772476,0.008291245,0,
00:02.0,-0.004096985,-0.000766754,0.008285522,0,
00:02.0,-0.004108429,-0.000772476,0.008291245,0,
00:02.0,-0.004114151,-0.000766754,0.008296967,0,
00:02.0,-0.004102707,-0.000766754,0.008296967,0,
00:02.0,-0.004108429,-0.000772476,0.008302689,0,
00:02.0,-0.004114151,-0.000766754,0.008308411,0,
00:02.0,-0.004114151,-0.000766754,0.008308411,0,
00:02.0,-0.004108429,-0.000772476,0.008314133,0,
00:02.0,-0.004091263,-0.000772476,0.008308411,0,
00:00:02,-0.004062653,-0.000761032,0.008314133,0,
00:02.0,-0.004062653,-0.00075531,0.008314133,0,
00:02.0,-0.004085541,-0.000766754,0.008314133,0,
00:02.0,-0.004091263,-0.000766754,0.008325577,0,
00:02.0,-0.004079819,-0.000761032,0.008314133,0,
00:02.0,-0.004074097,-0.00075531,0.008308411,0,
00:02.0,-0.004085541,-0.00075531,0.008308411,0,
00:02.0,-0.004102707,-0.000761032,0.008314133,0,
00:02.0,-0.004114151,-0.000772476,0.008325577,0,
00:02.0,-0.004102707,-0.000766754,0.008325577,0,
00:02.0,-0.004091263,-0.000766754,0.008325577,0,
00:02.0,-0.004085541,-0.000761032,0.008325577,0,
00:02.0,-0.004102707,-0.000766754,0.008325577,0,
00:02.1,-0.004114151,-0.000778198,0.008331299,0,
00:02.1,-0.004108429,-0.000761032,0.008337021,0,
00:02.1,-0.004096985,-0.000761032,0.008337021,0,
00:02.1,-0.004091263,-0.000766754,0.008331299,0,
00:02.1,-0.004091263,-0.000761032,0.008337021,0,
00:02.1,-0.004096985,-0.000761032,0.008337021,0,
00:02.1,-0.004096985,-0.000761032,0.008337021,0,
00:02.1,-0.004085541,-0.000761032,0.008337021,0,
00:02.1,-0.004085541,-0.000761032,0.008337021,0,
00:02.1,-0.004096985,-0.000761032,0.008342743,0,
00:02.1,-0.004096985,-0.000766754,0.008348465,0,
00:02.1,-0.004102707,-0.000772476,0.008342743,0,
00:02.1,-0.004096985,-0.000766754,0.008342743,0,
00:02.1,-0.004102707,-0.000761032,0.008348465,0,
00:02.1,-0.004091263,-0.000761032,0.008348465,0,
00:02.1,-0.004079819,-0.000761032,0.008348465,0,
00:02.1,-0.004056931,-0.000766754,0.008348465,0,
00:02.1,-0.004056931,-0.000761032,0.008354187,0,
00:02.1,-0.004079819,-0.000761032,0.008348465,0,
00:02.1,-0.004091263,-0.000761032,0.008348465,0,
00:02.1,-0.004091263,-0.000766754,0.008354187,0,
00:02.1,-0.004096985,-0.000766754,0.008354187,0,
00:02.1,-0.004096985,-0.000766754,0.008359909,0,
00:02.1,-0.004079819,-0.000761032,0.008359909,0,
00:02.1,-0.004079819,-0.00075531,0.008359909,0,
00:02.2,-0.004091263,-0.000761032,0.008359909,0,
00:02.2,-0.004085541,-0.000766754,0.008359909,0,
00:02.2,-0.004079819,-0.000761032,0.008359909,0,
00:02.2,-0.004091263,-0.000766754,0.008365631,0,
00:02.2,-0.004102707,-0.000766754,0.008371353,0,
00:02.2,-0.004096985,-0.000772476,0.008365631,0,
00:02.2,-0.004079819,-0.000766754,0.008365631,0,
00:02.2,-0.004074097,-0.00075531,0.008371353,0,
00:02.2,-0.004074097,-0.000761032,0.008371353,0,
00:02.2,-0.004079819,-0.000766754,0.008371353,0,
00:02.2,-0.004085541,-0.000766754,0.008377075,0,
00:02.2,-0.004085541,-0.000766754,0.008377075,0,
00:02.2,-0.004091263,-0.000766754,0.008388519,0,
00:02.2,-0.004119873,-0.000766754,0.008382797,0,
00:02.2,-0.004119873,-0.000772476,0.008371353,0,
00:02.2,-0.004085541,-0.000761032,0.008377075,0,
00:02.2,-0.004056931,-0.000761032,0.008377075,0,
00:02.2,-0.004062653,-0.000766754,0.008382797,0,
00:02.2,-0.004068375,-0.000761032,0.008382797,0,
00:02.2,-0.004091263,-0.000766754,0.008382797,0,
00:02.2,-0.004085541,-0.000766754,0.008382797,0,
00:02.2,-0.004079819,-0.000761032,0.008388519,0,
00:02.2,-0.004085541,-0.00075531,0.008382797,0,
00:02.2,-0.004096985,-0.000761032,0.008382797,0,
00:02.2,-0.004091263,-0.000761032,0.008388519,0,
00:02.3,-0.004074097,-0.000761032,0.008388519,0,
00:02.3,-0.004068375,-0.000761032,0.008388519,0,
00:02.3,-0.004074097,-0.000761032,0.008394241,0,
00:02.3,-0.004079819,-0.000761032,0.008394241,0,
00:02.3,-0.004085541,-0.000761032,0.008394241,0,
00:02.3,-0.004079819,-0.000761032,0.008394241,0,
00:02.3,-0.004074097,-0.000761032,0.008394241,0,
00:02.3,-0.004068375,-0.000761032,0.008394241,0,
00:02.3,-0.004079819,-0.000761032,0.008394241,0,
00:02.3,-0.004079819,-0.000766754,0.008399963,0,
00:02.3,-0.004074097,-0.000761032,0.008399963,0,
00:02.3,-0.004068375,-0.000761032,0.008399963,0,
00:02.3,-0.004091263,-0.000766754,0.008405685,0,
00:02.3,-0.004119873,-0.000772476,0.008405685,0,
00:02.3,-0.004108429,-0.000772476,0.008411407,0,
00:02.3,-0.004074097,-0.000766754,0.008411407,0,
00:02.3,-0.004062653,-0.000761032,0.008405685,0,
00:02.3,-0.004068375,-0.000761032,0.008411407,0,
00:02.3,-0.004085541,-0.000761032,0.00841713,0,
00:02.3,-0.004085541,-0.000766754,0.008422852,0,
00:02.3,-0.004079819,-0.000772476,0.00841713,0,
00:02.3,-0.004068375,-0.000772476,0.008411407,0,
00:02.3,-0.004068375,-0.000761032,0.00841713,0,
00:02.3,-0.004079819,-0.000761032,0.00841713,0,
00:02.3,-0.004079819,-0.000761032,0.008411407,0,
00:02.4,-0.004079819,-0.000761032,0.008411407,0,
00:02.4,-0.004079819,-0.000761032,0.00841713,0,
00:02.4,-0.004074097,-0.000766754,0.008422852,0,
00:02.4,-0.004074097,-0.000766754,0.008422852,0,
00:02.4,-0.004074097,-0.000761032,0.008422852,0,
00:02.4,-0.004079819,-0.000761032,0.008422852,0,
00:02.4,-0.004068375,-0.000766754,0.008422852,0,
00:02.4,-0.004068375,-0.000761032,0.008428574,0,
00:02.4,-0.004085541,-0.000761032,0.008422852,0,
00:02.4,-0.004085541,-0.000766754,0.008428574,0,
00:02.4,-0.004079819,-0.000766754,0.008428574,0,
00:02.4,-0.004068375,-0.000766754,0.008422852,0,
00:02.4,-0.004068375,-0.000761032,0.008428574,0,
00:02.4,-0.004091263,-0.000772476,0.008434296,0,
00:02.4,-0.004096985,-0.000778198,0.008434296,0,
00:02.4,-0.004091263,-0.000761032,0.008440018,0,
00:02.4,-0.004074097,-0.000761032,0.008440018,0,
00:02.4,-0.004051208,-0.000761032,0.008428574,0,
00:02.4,-0.004062653,-0.00075531,0.008434296,0,
00:02.4,-0.004074097,-0.000761032,0.008434296,0,
00:02.4,-0.004074097,-0.000761032,0.008434296,0,
00:02.4,-0.004074097,-0.000766754,0.008440018,0,
00:02.4,-0.004068375,-0.000761032,0.008440018,0,
00:02.4,-0.004062653,-0.00075531,0.008434296,0,
00:02.4,-0.004062653,-0.00075531,0.008434296,0,
00:02.5,-0.004062653,-0.000761032,0.008434296,0,
00:02.5,-0.004062653,-0.000761032,0.008434296,0,
00:02.5,-0.004068375,-0.000761032,0.008440018,0,
00:02.5,-0.004079819,-0.000772476,0.00844574,0,
00:02.5,-0.004079819,-0.000772476,0.008440018,0,
00:02.5,-0.004074097,-0.00075531,0.008440018,0,
00:02.5,-0.004062653,-0.00075531,0.008440018,0,
00:02.5,-0.004062653,-0.000761032,0.008440018,0,
00:02.5,-0.004062653,-0.000761032,0.00844574,0,
00:02.5,-0.004068375,-0.000766754,0.008451462,0,
00:02.5,-0.004074097,-0.000766754,0.008451462,0,
00:02.5,-0.004068375,-0.000761032,0.008451462,0,
00:02.5,-0.004079819,-0.000766754,0.00844574,0,
00:02.5,-0.004091263,-0.000766754,0.00844574,0,
00:02.5,-0.004085541,-0.000761032,0.008451462,0,
00:02.5,-0.004062653,-0.000761032,0.008451462,0,
00:02.5,-0.004056931,-0.000761032,0.008451462,0,
00:02.5,-0.004062653,-0.000766754,0.008451462,0,
00:02.5,-0.004068375,-0.000766754,0.008451462,0,
00:02.5,-0.004062653,-0.000761032,0.008451462,0,
00:02.5,-0.004074097,-0.00075531,0.008457184,0,
00:02.5,-0.004074097,-0.000761032,0.008462906,0,
00:02.5,-0.004085541,-0.000772476,0.008451462,0,
00:02.5,-0.004085541,-0.000772476,0.008451462,0,
00:02.5,-0.004062653,-0.000766754,0.008457184,0,
00:02.6,-0.004051208,-0.00075531,0.008457184,0,
00:02.6,-0.004039764,-0.00075531,0.008457184,0,
00:02.6,-0.004039764,-0.00075531,0.008457184,0,
00:02.6,-0.004056931,-0.000761032,0.008457184,0,
00:02.6,-0.004068375,-0.00075531,0.008457184,0,
00:02.6,-0.004074097,-0.000761032,0.008462906,0,
00:02.6,-0.004074097,-0.000766754,0.008457184,0,
00:02.6,-0.004079819,-0.000766754,0.008457184,0,
00:02.6,-0.004079819,-0.000772476,0.008462906,0,
00:02.6,-0.004074097,-0.000772476,0.008457184,0,
00:02.6,-0.004068375,-0.000766754,0.008462906,0,
00:02.6,-0.004056931,-0.000761032,0.008468628,0,
00:02.6,-0.004051208,-0.000761032,0.008468628,0,
00:02.6,-0.004051208,-0.000766754,0.008468628,0,
00:02.6,-0.004051208,-0.00075531,0.008468628,0,
00:02.6,-0.004051208,-0.00075531,0.008468628,0,
00:02.6,-0.004068375,-0.00075531,0.008468628,0,
00:02.6,-0.004085541,-0.000761032,0.00847435,0,
00:02.6,-0.004074097,-0.000772476,0.008468628,0,
00:02.6,-0.004068375,-0.000772476,0.008468628,0,
00:02.6,-0.004056931,-0.000761032,0.00847435,0,
00:02.6,-0.004045486,-0.00075531,0.008480072,0,
00:02.6,-0.004045486,-0.00075531,0.00847435,0,
00:02.6,-0.004045486,-0.00075531,0.008480072,0,
00:02.6,-0.004056931,-0.00075531,0.008491516,0,
00:02.7,-0.004068375,-0.000766754,0.008480072,0,
00:02.7,-0.004051208,-0.000766754,0.008468628,0,
00:02.7,-0.004051208,-0.00075531,0.00847435,0,
00:02.7,-0.004051208,-0.00075531,0.008480072,0,
00:02.7,-0.004051208,-0.000761032,0.008485794,0,
00:02.7,-0.004051208,-0.000761032,0.008485794,0,
00:02.7,-0.004068375,-0.000761032,0.008485794,0,
00:02.7,-0.004079819,-0.000766754,0.008491516,0,
00:02.7,-0.004074097,-0.000761032,0.008485794,0,
00:02.7,-0.004051208,-0.00075531,0.008480072,0,
00:02.7,-0.004039764,-0.000749588,0.008480072,0,
00:02.7,-0.004045486,-0.00075531,0.008480072,0,
00:02.7,-0.004068375,-0.00075531,0.008480072,0,
00:02.7,-0.004074097,-0.00075531,0.008480072,0,
00:02.7,-0.004068375,-0.000761032,0.008491516,0,
00:02.7,-0.004045486,-0.00075531,0.008491516,0,
00:02.7,-0.004045486,-0.000761032,0.008491516,0,
00:02.7,-0.004056931,-0.000749588,0.008491516,0,
00:02.7,-0.004068375,-0.00075531,0.008491516,0,
00:02.7,-0.004068375,-0.000761032,0.008491516,0,
00:02.7,-0.004045486,-0.00075531,0.008491516,0,
00:02.7,-0.004034042,-0.000749588,0.008491516,0,
00:02.7,-0.004045486,-0.000749588,0.008491516,0,
00:02.7,-0.004056931,-0.00075531,0.008491516,0,
00:02.7,-0.004056931,-0.00075531,0.008491516,0,
00:02.8,-0.004056931,-0.00075531,0.008491516,0,
00:02.8,-0.004056931,-0.000761032,0.008485794,0,
00:02.8,-0.004051208,-0.000761032,0.008491516,0,
00:02.8,-0.004045486,-0.00075531,0.008497238,0,
00:02.8,-0.004045486,-0.00075531,0.00850296,0,
00:02.8,-0.004039764,-0.000761032,0.008491516,0,
00:02.8,-0.004045486,-0.000766754,0.008491516,0,
00:02.8,-0.004051208,-0.00075531,0.008491516,0,
00:02.8,-0.004051208,-0.000743866,0.008497238,0,
00:02.8,-0.004051208,-0.000749588,0.008497238,0,
00:02.8,-0.004039764,-0.00075531,0.008497238,0,
00:02.8,-0.004039764,-0.00075531,0.008508682,0,
00:02.8,-0.004045486,-0.00075531,0.00850296,0,
00:02.8,-0.004045486,-0.00075531,0.008497238,0,
00:02.8,-0.004051208,-0.00075531,0.008497238,0,
00:02.8,-0.004056931,-0.000761032,0.008497238,0,
00:02.8,-0.004051208,-0.00075531,0.008497238,0,
00:02.8,-0.004045486,-0.00075531,0.008497238,0,
00:02.8,-0.004045486,-0.00075531,0.008497238,0,
00:02.8,-0.004051208,-0.00075531,0.008497238,0,
00:02.8,-0.004045486,-0.00075531,0.008497238,0,
00:02.8,-0.004039764,-0.000749588,0.00850296,0,
00:02.8,-0.004034042,-0.000749588,0.008508682,0,
00:02.8,-0.004051208,-0.00075531,0.00850296,0,
00:02.8,-0.004062653,-0.000761032,0.00850296,0,
00:02.9,-0.004051208,-0.000761032,0.00850296,0,
00:02.9,-0.004034042,-0.00075531,0.008497238,0,
00:02.9,-0.004039764,-0.000749588,0.008491516,0,
00:02.9,-0.004039764,-0.000749588,0.008497238,0,
00:02.9,-0.00402832,-0.00075531,0.00850296,0,
00:02.9,-0.004051208,-0.000761032,0.008508682,0,
00:02.9,-0.004068375,-0.000766754,0.008508682,0,
00:02.9,-0.004051208,-0.000761032,0.00850296,0,
00:02.9,-0.004039764,-0.000749588,0.008508682,0,
00:02.9,-0.004022598,-0.000743866,0.008508682,0,
00:02.9,-0.004034042,-0.000749588,0.00850296,0,
00:02.9,-0.004045486,-0.00075531,0.00850296,0,
00:02.9,-0.004039764,-0.00075531,0.008508682,0,
00:02.9,-0.004034042,-0.000749588,0.008508682,0,
00:02.9,-0.004039764,-0.00075531,0.008508682,0,
00:02.9,-0.004039764,-0.00075531,0.008508682,0,
00:02.9,-0.004039764,-0.000749588,0.008508682,0,
00:02.9,-0.004045486,-0.000749588,0.008508682,0,
00:02.9,-0.004045486,-0.000749588,0.008508682,0,
00:02.9,-0.00402832,-0.000749588,0.008508682,0,
00:02.9,-0.004016876,-0.000743866,0.008514404,0,
00:02.9,-0.004034042,-0.00075531,0.008514404,0,
00:02.9,-0.004045486,-0.00075531,0.008514404,0,
00:02.9,-0.004051208,-0.000749588,0.008514404,0,
00:02.9,-0.004045486,-0.000743866,0.008508682,0,
00:03.0,-0.004039764,-0.000743866,0.008520126,0,
00:03.0,-0.00402832,-0.000749588,0.008525848,0,
00:03.0,-0.004034042,-0.00075531,0.008508682,0,
00:03.0,-0.004045486,-0.000749588,0.008508682,0,
00:03.0,-0.004045486,-0.00075531,0.008514404,0,
00:03.0,-0.004034042,-0.000749588,0.008514404,0,
00:03.0,-0.004022598,-0.000749588,0.008525848,0,
00:03.0,-0.004034042,-0.00075531,0.008525848,0,
00:03.0,-0.004045486,-0.00075531,0.008514404,0,
00:03.0,-0.004039764,-0.00075531,0.008514404,0,
00:03.0,-0.004045486,-0.000761032,0.008514404,0,
00:03.0,-0.004051208,-0.000749588,0.008514404,0,
00:00:03,-0.004051208,-0.000749588,0.008514404,0,
00:03.0,-0.004045486,-0.000749588,0.008514404,0,
00:03.0,-0.004039764,-0.000749588,0.008514404,0,
00:03.0,-0.004034042,-0.00075531,0.008514404,0,
00:03.0,-0.004039764,-0.000749588,0.008514404,0,
00:03.0,-0.004045486,-0.000749588,0.008514404,0,
00:03.0,-0.004039764,-0.000749588,0.008514404,0,
00:03.0,-0.004011154,-0.000749588,0.008514404,0,
00:03.0,-0.00399971,-0.000743866,0.008520126,0,
00:03.0,-0.004005432,-0.000743866,0.008520126,0,
00:03.0,-0.004016876,-0.000743866,0.008520126,0,
00:03.0,-0.004034042,-0.000749588,0.008525848,0,
00:03.0,-0.00402832,-0.000749588,0.008525848,0,
00:03.1,-0.004016876,-0.000743866,0.008520126,0,
00:03.1,-0.00402832,-0.000743866,0.008525848,0,
00:03.1,-0.004034042,-0.000749588,0.008525848,0,
00:03.1,-0.004034042,-0.000749588,0.008525848,0,
00:03.1,-0.004039764,-0.00075531,0.008520126,0,
00:03.1,-0.00402832,-0.00075531,0.008520126,0,
00:03.1,-0.004016876,-0.000743866,0.008520126,0,
00:03.1,-0.004011154,-0.000732422,0.008525848,0,
00:03.1,-0.00402832,-0.000743866,0.00853157,0,
00:03.1,-0.004039764,-0.00075531,0.00853157,0,
00:03.1,-0.004034042,-0.00075531,0.008525848,0,
00:03.1,-0.004034042,-0.000749588,0.008525848,0,
00:03.1,-0.004039764,-0.00075531,0.008520126,0,
00:03.1,-0.004034042,-0.000749588,0.008525848,0,
00:03.1,-0.00402832,-0.000743866,0.008525848,0,
00:03.1,-0.00402832,-0.000749588,0.00853157,0,
00:03.1,-0.004039764,-0.000749588,0.00853157,0,
00:03.1,-0.004045486,-0.000749588,0.00853157,0,
00:03.1,-0.00402832,-0.000743866,0.008525848,0,
00:03.1,-0.004016876,-0.000743866,0.00853157,0,
00:03.1,-0.004011154,-0.000743866,0.00853157,0,
00:03.1,-0.004005432,-0.000749588,0.00853157,0,
00:03.1,-0.004005432,-0.000749588,0.00853157,0,
00:03.1,-0.004016876,-0.000738144,0.008537292,0,
00:03.1,-0.004016876,-0.000743866,0.00853157,0,
00:03.2,-0.004011154,-0.000743866,0.00853157,0,
00:03.2,-0.004016876,-0.000749588,0.008537292,0,
00:03.2,-0.004016876,-0.000749588,0.008537292,0,
00:03.2,-0.004022598,-0.000749588,0.008537292,0,
00:03.2,-0.00402832,-0.00075531,0.008537292,0,
00:03.2,-0.004022598,-0.00075531,0.00853157,0,
00:03.2,-0.004011154,-0.000749588,0.008537292,0,
00:03.2,-0.004022598,-0.000749588,0.008537292,0,
00:03.2,-0.004039764,-0.00075531,0.008537292,0,
00:03.2,-0.004034042,-0.000766754,0.008537292,0,
00:03.2,-0.004016876,-0.000761032,0.008537292,0,
00:03.2,-0.004005432,-0.000743866,0.008537292,0,
00:03.2,-0.004011154,-0.000743866,0.008537292,0,
00:03.2,-0.004022598,-0.000749588,0.008543015,0,
00:03.2,-0.00402832,-0.000743866,0.008554459,0,
00:03.2,-0.004034042,-0.00075531,0.008548737,0,
00:03.2,-0.004034042,-0.000766754,0.008537292,0,
00:03.2,-0.00402832,-0.000761032,0.00853157,0,
00:03.2,-0.00402832,-0.000743866,0.008537292,0,
00:03.2,-0.004016876,-0.000743866,0.008543015,0,
00:03.2,-0.004022598,-0.000749588,0.008548737,0,
00:03.2,-0.00402832,-0.000749588,0.008548737,0,
00:03.2,-0.004022598,-0.000749588,0.008548737,0,
00:03.2,-0.004016876,-0.000749588,0.008548737,0,
00:03.2,-0.004011154,-0.000749588,0.008548737,0,
00:03.3,-0.004005432,-0.000743866,0.008543015,0,
00:03.3,-0.00399971,-0.000743866,0.008548737,0,
00:03.3,-0.00399971,-0.000738144,0.008554459,0,
00:03.3,-0.004005432,-0.000738144,0.008560181,0,
00:03.3,-0.004005432,-0.000743866,0.008548737,0,
00:03.3,-0.004005432,-0.000749588,0.008548737,0,
00:03.3,-0.004011154,-0.000749588,0.008554459,0,
00:03.3,-0.004011154,-0.000749588,0.008554459,0,
00:03.3,-0.004011154,-0.000749588,0.008560181,0,
00:03.3,-0.004011154,-0.000749588,0.008560181,0,
00:03.3,-0.004016876,-0.000749588,0.008565903,0,
00:03.3,-0.004011154,-0.000749588,0.008565903,0,
00:03.3,-0.004011154,-0.000749588,0.008565903,0,
00:03.3,-0.004005432,-0.000743866,0.008571625,0,
00:03.3,-0.004016876,-0.000743866,0.008571625,0,
00:03.3,-0.00402832,-0.000749588,0.008571625,0,
00:03.3,-0.004016876,-0.000743866,0.008571625,0,
00:03.3,-0.004022598,-0.000749588,0.008565903,0,
00:03.3,-0.00402832,-0.000749588,0.008571625,0,
00:03.3,-0.004022598,-0.00075531,0.008577347,0,
00:03.3,-0.00402832,-0.000761032,0.008571625,0,
00:03.3,-0.00402832,-0.000749588,0.008577347,0,
00:03.3,-0.004016876,-0.000738144,0.008577347,0,
00:03.3,-0.00399971,-0.000732422,0.008583069,0,
00:03.3,-0.003988266,-0.000738144,0.008583069,0,
00:03.4,-0.003982544,-0.000743866,0.008583069,0,
00:03.4,-0.00399971,-0.000749588,0.008588791,0,
00:03.4,-0.00402832,-0.000749588,0.008588791,0,
00:03.4,-0.00402832,-0.000749588,0.008594513,0,
00:03.4,-0.00402832,-0.000749588,0.008594513,0,
00:03.4,-0.004011154,-0.000743866,0.008600235,0,
00:03.4,-0.003993988,-0.000743866,0.008600235,0,
00:03.4,-0.003976822,-0.000738144,0.008600235,0,
00:03.4,-0.00399971,-0.000749588,0.008600235,0,
00:03.4,-0.004011154,-0.000743866,0.008605957,0,
00:03.4,-0.004005432,-0.000743866,0.008605957,0,
00:03.4,-0.003988266,-0.000749588,0.008605957,0,
00:03.4,-0.004005432,-0.000749588,0.008611679,0,
00:03.4,-0.00402832,-0.000749588,0.008611679,0,
00:03.4,-0.004011154,-0.000749588,0.008617401,0,
00:03.4,-0.003988266,-0.000743866,0.008611679,0,
00:03.4,-0.003982544,-0.000738144,0.008617401,0,
00:03.4,-0.00399971,-0.000743866,0.008617401,0,
00:03.4,-0.004005432,-0.000743866,0.008623123,0,
00:03.4,-0.004005432,-0.000743866,0.008623123,0,
00:03.4,-0.004005432,-0.000743866,0.008623123,0,
00:03.4,-0.004005432,-0.000749588,0.008623123,0,
00:03.4,-0.004016876,-0.00075531,0.008623123,0,
00:03.4,-0.004016876,-0.000743866,0.008628845,0,
00:03.4,-0.00399971,-0.000743866,0.008623123,0,
00:03.5,-0.004005432,-0.000749588,0.008628845,0,
00:03.5,-0.004011154,-0.000749588,0.008628845,0,
00:03.5,-0.004011154,-0.000749588,0.008634567,0,
00:03.5,-0.004005432,-0.000749588,0.008628845,0,
00:03.5,-0.003993988,-0.000749588,0.008628845,0,
00:03.5,-0.003988266,-0.000749588,0.008628845,0,
00:03.5,-0.003993988,-0.000749588,0.008628845,0,
00:03.5,-0.00399971,-0.000749588,0.008628845,0,
00:03.5,-0.00399971,-0.000749588,0.008628845,0,
00:03.5,-0.004005432,-0.000749588,0.008628845,0,
00:03.5,-0.00399971,-0.000749588,0.008634567,0,
00:03.5,-0.003993988,-0.000743866,0.008628845,0,
00:03.5,-0.00399971,-0.000743866,0.008628845,0,
00:03.5,-0.004005432,-0.000749588,0.008634567,0,
00:03.5,-0.004011154,-0.00075531,0.008634567,0,
00:03.5,-0.004016876,-0.000749588,0.008634567,0,
00:03.5,-0.004022598,-0.00075531,0.008634567,0,
00:03.5,-0.004005432,-0.00075531,0.008634567,0,
00:03.5,-0.003988266,-0.000749588,0.008640289,0,
00:03.5,-0.003982544,-0.000738144,0.008640289,0,
00:03.5,-0.003993988,-0.000743866,0.008646011,0,
00:03.5,-0.004016876,-0.00075531,0.008634567,0,
00:03.5,-0.004034042,-0.00075531,0.008634567,0,
00:03.5,-0.00402832,-0.00075531,0.008634567,0,
00:03.5,-0.00399971,-0.000743866,0.008640289,0,
00:03.6,-0.003993988,-0.000743866,0.008640289,0,
00:03.6,-0.003988266,-0.000738144,0.008634567,0,
00:03.6,-0.003993988,-0.000738144,0.008634567,0,
00:03.6,-0.003993988,-0.000743866,0.008640289,0,
00:03.6,-0.003988266,-0.000743866,0.008640289,0,
00:03.6,-0.00399971,-0.000749588,0.008646011,0,
00:03.6,-0.004005432,-0.00075531,0.008646011,0,
00:03.6,-0.004005432,-0.00075531,0.008646011,0,
00:03.6,-0.004005432,-0.000743866,0.008646011,0,
00:03.6,-0.003988266,-0.000743866,0.008651733,0,
00:03.6,-0.003982544,-0.000743866,0.008640289,0,
00:03.6,-0.003982544,-0.000743866,0.008640289,0,
00:03.6,-0.00399971,-0.000743866,0.008646011,0,
00:03.6,-0.00399971,-0.000743866,0.008646011,0,
00:03.6,-0.004005432,-0.000743866,0.008640289,0,
00:03.6,-0.00399971,-0.000749588,0.008640289,0,
00:03.6,-0.00399971,-0.000749588,0.008640289,0,
00:03.6,-0.00399971,-0.00075531,0.008646011,0,
00:03.6,-0.003993988,-0.00075531,0.008651733,0,
00:03.6,-0.003988266,-0.000743866,0.008646011,0,
00:03.6,-0.003993988,-0.000743866,0.008651733,0,
00:03.6,-0.004005432,-0.000749588,0.008651733,0,
00:03.6,-0.004011154,-0.000761032,0.008651733,0,
00:03.6,-0.004005432,-0.00075531,0.008651733,0,
00:03.6,-0.003982544,-0.000743866,0.008651733,0,
00:03.7,-0.003988266,-0.000743866,0.008651733,0,
00:03.7,-0.004005432,-0.000749588,0.008657455,0,
00:03.7,-0.004022598,-0.00075531,0.008657455,0,
00:03.7,-0.004005432,-0.00075531,0.008657455,0,
00:03.7,-0.003982544,-0.000749588,0.008657455,0,
00:03.7,-0.003976822,-0.000749588,0.008657455,0,
00:03.7,-0.003982544,-0.000749588,0.008657455,0,
00:03.7,-0.003982544,-0.00075531,0.008651733,0,
00:03.7,-0.003993988,-0.000749588,0.008657455,0,
00:03.7,-0.003993988,-0.000749588,0.008657455,0,
00:03.7,-0.003993988,-0.00075531,0.008657455,0,
00:03.7,-0.003988266,-0.00075531,0.008657455,0,
00:03.7,-0.003993988,-0.000749588,0.008657455,0,
00:03.7,-0.004005432,-0.00075531,0.008657455,0,
00:03.7,-0.004005432,-0.00075531,0.008657455,0,
00:03.7,-0.003993988,-0.00075531,0.008657455,0,
00:03.7,-0.003988266,-0.000749588,0.008657455,0,
00:03.7,-0.0039711,-0.000749588,0.008663177,0,
00:03.7,-0.003982544,-0.000749588,0.0086689,0,
00:03.7,-0.00399971,-0.00075531,0.0086689,0,
00:03.7,-0.00399971,-0.00075531,0.0086689,0,
00:03.7,-0.003993988,-0.00075531,0.008674622,0,
00:03.7,-0.003988266,-0.000749588,0.0086689,0,
00:03.7,-0.00399971,-0.000749588,0.008663177,0,
00:03.7,-0.00399971,-0.000749588,0.0086689,0,
00:03.8,-0.003988266,-0.000749588,0.0086689,0,
00:03.8,-0.0039711,-0.000749588,0.0086689,0,
00:03.8,-0.003965378,-0.000743866,0.0086689,0,
00:03.8,-0.003982544,-0.000749588,0.008674622,0,
00:03.8,-0.003993988,-0.00075531,0.008674622,0,
00:03.8,-0.003988266,-0.000749588,0.008674622,0,
00:03.8,-0.003976822,-0.000749588,0.008674622,0,
00:03.8,-0.003988266,-0.000749588,0.008674622,0,
00:03.8,-0.004005432,-0.00075531,0.008680344,0,
00:03.8,-0.00399971,-0.00075531,0.008680344,0,
00:03.8,-0.003982544,-0.00075531,0.008680344,0,
00:03.8,-0.0039711,-0.000749588,0.008686066,0,
00:03.8,-0.003976822,-0.000749588,0.008686066,0,
00:03.8,-0.003988266,-0.000749588,0.008680344,0,
00:03.8,-0.003982544,-0.000749588,0.008686066,0,
00:03.8,-0.003988266,-0.00075531,0.008686066,0,
00:03.8,-0.00399971,-0.00075531,0.008691788,0,
00:03.8,-0.004005432,-0.000749588,0.008686066,0,
00:03.8,-0.003993988,-0.00075531,0.008691788,0,
00:03.8,-0.003982544,-0.00075531,0.008691788,0,
00:03.8,-0.003976822,-0.000749588,0.008691788,0,
00:03.8,-0.0039711,-0.000749588,0.008691788,0,
00:03.8,-0.003976822,-0.000749588,0.008686066,0,
00:03.8,-0.003988266,-0.000749588,0.008686066,0,
00:03.8,-0.003982544,-0.00075531,0.008691788,0,
00:03.9,-0.003988266,-0.00075531,0.008691788,0,
00:03.9,-0.003982544,-0.000749588,0.008691788,0,
00:03.9,-0.003976822,-0.000743866,0.00869751,0,
00:03.9,-0.003982544,-0.000743866,0.00869751,0,
00:03.9,-0.003982544,-0.000749588,0.008703232,0,
00:03.9,-0.003982544,-0.000749588,0.00869751,0,
00:03.9,-0.003982544,-0.000743866,0.00869751,0,
00:03.9,-0.003993988,-0.000749588,0.008703232,0,
00:03.9,-0.003993988,-0.000749588,0.008703232,0,
00:03.9,-0.003982544,-0.000749588,0.00869751,0,
00:03.9,-0.003976822,-0.000743866,0.008703232,0,
00:03.9,-0.003976822,-0.000743866,0.008703232,0,
00:03.9,-0.003982544,-0.000743866,0.008708954,0,
00:03.9,-0.003982544,-0.000749588,0.008708954,0,
00:03.9,-0.003976822,-0.000749588,0.008708954,0,
00:03.9,-0.003965378,-0.000743866,0.008708954,0,
00:03.9,-0.0039711,-0.000743866,0.008714676,0,
00:03.9,-0.003988266,-0.000749588,0.008714676,0,
00:03.9,-0.003988266,-0.000749588,0.008714676,0,
00:03.9,-0.003993988,-0.000749588,0.008720398,0,
00:03.9,-0.003993988,-0.000749588,0.008708954,0,
00:03.9,-0.003988266,-0.000749588,0.008708954,0,
00:03.9,-0.003993988,-0.00075531,0.008714676,0,
00:03.9,-0.003982544,-0.000749588,0.008720398,0,
00:03.9,-0.003976822,-0.000749588,0.008720398,0,
00:04.0,-0.0039711,-0.000749588,0.008720398,0,
00:04.0,-0.0039711,-0.000749588,0.008714676,0,
00:04.0,-0.003988266,-0.000738144,0.008714676,0,
00:04.0,-0.003993988,-0.000743866,0.008720398,0,
00:04.0,-0.003982544,-0.00075531,0.008720398,0,
00:04.0,-0.003959656,-0.000749588,0.008714676,0,
00:04.0,-0.003953934,-0.000749588,0.008720398,0,
00:04.0,-0.0039711,-0.00075531,0.008731842,0,
00:04.0,-0.003982544,-0.00075531,0.008731842,0,
00:04.0,-0.003993988,-0.000743866,0.008731842,0,
00:04.0,-0.003988266,-0.000749588,0.00872612,0,
00:04.0,-0.003976822,-0.000749588,0.00872612,0,
00:00:04,-0.003965378,-0.000743866,0.008731842,0,
00:04.0,-0.003965378,-0.000749588,0.008731842,0,
00:04.0,-0.0039711,-0.000749588,0.008731842,0,
00:04.0,-0.0039711,-0.000743866,0.008731842,0,
00:04.0,-0.0039711,-0.000743866,0.008737564,0,
00:04.0,-0.003976822,-0.000749588,0.008737564,0,
00:04.0,-0.003982544,-0.000749588,0.008731842,0,
00:04.0,-0.0039711,-0.000749588,0.008737564,0,
00:04.0,-0.003959656,-0.000749588,0.008737564,0,
00:04.0,-0.0039711,-0.000749588,0.008737564,0,
00:04.0,-0.003988266,-0.00075531,0.008743286,0,
00:04.0,-0.003976822,-0.000749588,0.008743286,0,
00:04.0,-0.003959656,-0.000749588,0.008743286,0,
00:04.1,-0.003953934,-0.000738144,0.008737564,0,
00:04.1,-0.0039711,-0.000743866,0.008737564,0,
00:04.1,-0.003982544,-0.000749588,0.008749008,0,
00:04.1,-0.003976822,-0.000749588,0.00875473,0,
00:04.1,-0.003953934,-0.000743866,0.008749008,0,
00:04.1,-0.00394249,-0.000738144,0.008743286,0,
00:04.1,-0.003948212,-0.000738144,0.008749008,0,
00:04.1,-0.003959656,-0.000743866,0.00875473,0,
00:04.1,-0.003959656,-0.000749588,0.00875473,0,
00:04.1,-0.003965378,-0.000743866,0.00875473,0,
00:04.1,-0.003982544,-0.000749588,0.00875473,0,
00:04.1,-0.003982544,-0.00075531,0.00875473,0,
00:04.1,-0.003976822,-0.000761032,0.00875473,0,
00:04.1,-0.003982544,-0.000749588,0.00875473,0,
00:04.1,-0.0039711,-0.000738144,0.008760452,0,
00:04.1,-0.003948212,-0.000738144,0.008760452,0,
00:04.1,-0.003948212,-0.000743866,0.008760452,0,
00:04.1,-0.003959656,-0.000743866,0.008760452,0,
00:04.1,-0.003959656,-0.000743866,0.008760452,0,
00:04.1,-0.003948212,-0.000738144,0.008760452,0,
00:04.1,-0.00394249,-0.000743866,0.00875473,0,
00:04.1,-0.003965378,-0.000743866,0.008749008,0,
00:04.1,-0.003982544,-0.000749588,0.008760452,0,
00:04.1,-0.003988266,-0.000749588,0.008766174,0,
00:04.1,-0.0039711,-0.000749588,0.008766174,0,
00:04.2,-0.003948212,-0.000743866,0.008760452,0,
00:04.2,-0.003948212,-0.000743866,0.008766174,0,
00:04.2,-0.003965378,-0.000743866,0.008771896,0,
00:04.2,-0.0039711,-0.000749588,0.008766174,0,
00:04.2,-0.003965378,-0.000743866,0.008766174,0,
00:04.2,-0.003953934,-0.000743866,0.008777618,0,
00:04.2,-0.003953934,-0.000743866,0.008777618,0,
00:04.2,-0.003959656,-0.000749588,0.008766174,0,
00:04.2,-0.003953934,-0.000749588,0.008766174,0,
00:04.2,-0.00394249,-0.000738144,0.008766174,0,
00:04.2,-0.003953934,-0.000738144,0.008777618,0,
00:04.2,-0.003965378,-0.000738144,0.008777618,0,
00:04.2,-0.0039711,-0.000743866,0.008777618,0,
00:04.2,-0.003965378,-0.000749588,0.008771896,0,
00:04.2,-0.003959656,-0.000743866,0.008777618,0,
00:04.2,-0.003965378,-0.000738144,0.008777618,0,
00:04.2,-0.003976822,-0.000743866,0.008777618,0,
00:04.2,-0.0039711,-0.000743866,0.008777618,0,
00:04.2,-0.003953934,-0.000738144,0.008777618,0,
00:04.2,-0.003948212,-0.000738144,0.008777618,0,
00:04.2,-0.00394249,-0.000738144,0.008777618,0,
00:04.2,-0.00394249,-0.000732422,0.008777618,0,
00:04.2,-0.003959656,-0.000743866,0.00878334,0,
00:04.2,-0.003965378,-0.00075531,0.00878334,0,
00:04.2,-0.0039711,-0.000732422,0.00878334,0,
00:04.3,-0.003982544,-0.000738144,0.00878334,0,
00:04.3,-0.003976822,-0.000743866,0.008789063,0,
00:04.3,-0.003965378,-0.000743866,0.008789063,0,
00:04.3,-0.003959656,-0.000743866,0.008794785,0,
00:04.3,-0.003959656,-0.000743866,0.008794785,0,
00:04.3,-0.003976822,-0.000749588,0.008794785,0,
00:04.3,-0.0039711,-0.000749588,0.008794785,0,
00:04.3,-0.003953934,-0.000743866,0.008794785,0,
00:04.3,-0.003948212,-0.000738144,0.008794785,0,
00:04.3,-0.003948212,-0.000732422,0.008794785,0,
00:04.3,-0.003948212,-0.000738144,0.008794785,0,
00:04.3,-0.003948212,-0.000738144,0.008794785,0,
00:04.3,-0.003948212,-0.000738144,0.008794785,0,
00:04.3,-0.003953934,-0.000738144,0.008794785,0,
00:04.3,-0.003959656,-0.000743866,0.008806229,0,
00:04.3,-0.0039711,-0.000749588,0.008811951,0,
00:04.3,-0.003965378,-0.000749588,0.008794785,0,
00:04.3,-0.003948212,-0.000738144,0.008794785,0,
00:04.3,-0.003948212,-0.000738144,0.008800507,0,
00:04.3,-0.003953934,-0.000743866,0.008806229,0,
00:04.3,-0.003965378,-0.000749588,0.008806229,0,
00:04.3,-0.003965378,-0.000738144,0.008806229,0,
00:04.3,-0.003965378,-0.000738144,0.008800507,0,
00:04.3,-0.003959656,-0.000743866,0.008800507,0,
00:04.3,-0.003959656,-0.000743866,0.008800507,0,
00:04.4,-0.003953934,-0.000743866,0.008800507,0,
00:04.4,-0.003948212,-0.000743866,0.008806229,0,
00:04.4,-0.00394249,-0.000743866,0.008806229,0,
00:04.4,-0.00394249,-0.000743866,0.008800507,0,
00:04.4,-0.003959656,-0.000743866,0.008806229,0,
00:04.4,-0.0039711,-0.000743866,0.008806229,0,
00:04.4,-0.003953934,-0.000749588,0.008811951,0,
00:04.4,-0.00394249,-0.000743866,0.008811951,0,
00:04.4,-0.003936768,-0.000738144,0.008806229,0,
00:04.4,-0.003953934,-0.000743866,0.008806229,0,
00:04.4,-0.003959656,-0.000743866,0.008806229,0,
00:04.4,-0.003953934,-0.000743866,0.008800507,0,
00:04.4,-0.003953934,-0.000738144,0.008806229,0,
00:04.4,-0.003965378,-0.000743866,0.008811951,0,
00:04.4,-0.003959656,-0.000749588,0.008811951,0,
00:04.4,-0.003953934,-0.000743866,0.008811951,0,
00:04.4,-0.003965378,-0.000743866,0.008811951,0,
00:04.4,-0.003953934,-0.000743866,0.008811951,0,
00:04.4,-0.003931046,-0.000738144,0.008817673,0,
00:04.4,-0.003925323,-0.000732422,0.008817673,0,
00:04.4,-0.003931046,-0.000732422,0.008823395,0,
00:04.4,-0.00394249,-0.000738144,0.008817673,0,
00:04.4,-0.003948212,-0.000743866,0.008811951,0,
00:04.4,-0.003953934,-0.000749588,0.008811951,0,
00:04.4,-0.003953934,-0.000749588,0.008817673,0,
00:04.5,-0.003959656,-0.000743866,0.008817673,0,
00:04.5,-0.003959656,-0.000743866,0.008817673,0,
00:04.5,-0.003959656,-0.000743866,0.008817673,0,
00:04.5,-0.003953934,-0.000743866,0.008823395,0,
00:04.5,-0.003936768,-0.000738144,0.008823395,0,
00:04.5,-0.003936768,-0.000743866,0.008823395,0,
00:04.5,-0.003936768,-0.000738144,0.008817673,0,
00:04.5,-0.00394249,-0.000738144,0.008817673,0,
00:04.5,-0.003948212,-0.000738144,0.008817673,0,
00:04.5,-0.003948212,-0.000738144,0.008823395,0,
00:04.5,-0.003953934,-0.000743866,0.008823395,0,
00:04.5,-0.003953934,-0.000743866,0.008823395,0,
00:04.5,-0.003948212,-0.000738144,0.008823395,0,
00:04.5,-0.003948212,-0.000743866,0.008823395,0,
00:04.5,-0.003936768,-0.000743866,0.008823395,0,
00:04.5,-0.003925323,-0.000738144,0.008817673,0,
00:04.5,-0.003925323,-0.000738144,0.008823395,0,
00:04.5,-0.003936768,-0.000732422,0.008823395,0,
00:04.5,-0.00394249,-0.000738144,0.008823395,0,
00:04.5,-0.003936768,-0.000738144,0.008823395,0,
00:04.5,-0.003936768,-0.000743866,0.008834839,0,
00:04.5,-0.003936768,-0.000743866,0.008834839,0,
00:04.5,-0.003936768,-0.000732422,0.008834839,0,
00:04.5,-0.003931046,-0.000732422,0.008829117,0,
00:04.5,-0.003931046,-0.000738144,0.008829117,0,
00:04.6,-0.00394249,-0.000732422,0.008829117,0,
00:04.6,-0.003965378,-0.000738144,0.008829117,0,
00:04.6,-0.003959656,-0.000749588,0.008829117,0,
00:04.6,-0.003936768,-0.000743866,0.008829117,0,
00:04.6,-0.003919601,-0.0007267,0.008829117,0,
00:04.6,-0.003913879,-0.0007267,0.008834839,0,
00:04.6,-0.003919601,-0.000732422,0.008829117,0,
00:04.6,-0.003931046,-0.000738144,0.008823395,0,
00:04.6,-0.003931046,-0.000732422,0.008829117,0,
00:04.6,-0.003925323,-0.000732422,0.008829117,0,
00:04.6,-0.003925323,-0.000732422,0.008834839,0,
00:04.6,-0.003948212,-0.000738144,0.008834839,0,
00:04.6,-0.003953934,-0.000743866,0.008834839,0,
00:04.6,-0.003953934,-0.000738144,0.008834839,0,
00:04.6,-0.003936768,-0.000732422,0.008834839,0,
00:04.6,-0.00394249,-0.000738144,0.008834839,0,
00:04.6,-0.00394249,-0.000738144,0.008834839,0,
00:04.6,-0.003936768,-0.000738144,0.008840561,0,
00:04.6,-0.003925323,-0.000738144,0.008840561,0,
00:04.6,-0.003931046,-0.000738144,0.008840561,0,
00:04.6,-0.003936768,-0.000732422,0.008840561,0,
00:04.6,-0.003925323,-0.000732422,0.008840561,0,
00:04.6,-0.003919601,-0.0007267,0.008840561,0,
00:04.6,-0.003919601,-0.0007267,0.008840561,0,
00:04.6,-0.003919601,-0.000732422,0.008846283,0,
00:04.7,-0.00394249,-0.000738144,0.008846283,0,
00:04.7,-0.003959656,-0.000738144,0.008846283,0,
00:04.7,-0.00394249,-0.000738144,0.008840561,0,
00:04.7,-0.003919601,-0.000732422,0.008846283,0,
00:04.7,-0.003908157,-0.000732422,0.008846283,0,
00:04.7,-0.003919601,-0.000732422,0.008840561,0,
00:04.7,-0.003925323,-0.0007267,0.008846283,0,
00:04.7,-0.003925323,-0.0007267,0.008846283,0,
00:04.7,-0.003925323,-0.000720978,0.008852005,0,
00:04.7,-0.003925323,-0.0007267,0.008846283,0,
00:04.7,-0.003936768,-0.000732422,0.008846283,0,
00:04.7,-0.00394249,-0.000732422,0.008846283,0,
00:04.7,-0.003953934,-0.000738144,0.008852005,0,
00:04.7,-0.00394249,-0.000732422,0.008852005,0,
00:04.7,-0.003919601,-0.0007267,0.008852005,0,
00:04.7,-0.003913879,-0.0007267,0.008846283,0,
00:04.7,-0.003925323,-0.0007267,0.008846283,0,
00:04.7,-0.003925323,-0.0007267,0.008852005,0,
00:04.7,-0.003925323,-0.000732422,0.008857727,0,
00:04.7,-0.003925323,-0.000732422,0.008852005,0,
00:04.7,-0.003925323,-0.0007267,0.008852005,0,
00:04.7,-0.003931046,-0.000732422,0.008852005,0,
00:04.7,-0.003936768,-0.000732422,0.008852005,0,
00:04.7,-0.003925323,-0.0007267,0.008852005,0,
00:04.7,-0.003919601,-0.0007267,0.008852005,0,
00:04.8,-0.003919601,-0.0007267,0.008852005,0,
00:04.8,-0.003931046,-0.0007267,0.008852005,0,
00:04.8,-0.003936768,-0.000732422,0.008852005,0,
00:04.8,-0.003936768,-0.0007267,0.008857727,0,
00:04.8,-0.003925323,-0.0007267,0.008863449,0,
00:04.8,-0.003919601,-0.000720978,0.008863449,0,
00:04.8,-0.003919601,-0.0007267,0.008863449,0,
00:04.8,-0.003919601,-0.000732422,0.008863449,0,
00:04.8,-0.003913879,-0.0007267,0.008863449,0,
00:04.8,-0.003902435,-0.0007267,0.008863449,0,
00:04.8,-0.003913879,-0.0007267,0.008863449,0,
00:04.8,-0.003919601,-0.000732422,0.008857727,0,
00:04.8,-0.003919601,-0.000720978,0.008863449,0,
00:04.8,-0.003931046,-0.0007267,0.008863449,0,
00:04.8,-0.003936768,-0.000732422,0.008863449,0,
00:04.8,-0.003936768,-0.000732422,0.008869171,0,
00:04.8,-0.00394249,-0.000732422,0.008874893,0,
00:04.8,-0.003936768,-0.000732422,0.008874893,0,
00:04.8,-0.003919601,-0.0007267,0.008869171,0,
00:04.8,-0.003913879,-0.0007267,0.008874893,0,
00:04.8,-0.003913879,-0.0007267,0.008874893,0,
00:04.8,-0.003925323,-0.000732422,0.008874893,0,
00:04.8,-0.003913879,-0.000732422,0.008880615,0,
00:04.8,-0.003896713,-0.000720978,0.008880615,0,
00:04.8,-0.003908157,-0.0007267,0.008880615,0,
00:04.9,-0.003931046,-0.000720978,0.008880615,0,
00:04.9,-0.003931046,-0.000720978,0.008880615,0,
00:04.9,-0.003925323,-0.000732422,0.008880615,0,
00:04.9,-0.003919601,-0.000732422,0.008886337,0,
00:04.9,-0.003936768,-0.000732422,0.008886337,0,
00:04.9,-0.003936768,-0.000732422,0.008886337,0,
00:04.9,-0.003919601,-0.000732422,0.008886337,0,
00:04.9,-0.003908157,-0.0007267,0.008886337,0,
00:04.9,-0.003925323,-0.0007267,0.008886337,0,
00:04.9,-0.003936768,-0.000732422,0.008886337,0,
00:04.9,-0.003931046,-0.000738144,0.008886337,0,
00:04.9,-0.003908157,-0.000738144,0.008886337,0,
00:04.9,-0.003913879,-0.0007267,0.008886337,0,
00:04.9,-0.003925323,-0.000732422,0.008892059,0,
00:04.9,-0.003919601,-0.000732422,0.008886337,0,
00:04.9,-0.003919601,-0.000732422,0.008892059,0,
00:04.9,-0.003925323,-0.000732422,0.008897781,0,
00:04.9,-0.003925323,-0.000732422,0.008897781,0,
00:04.9,-0.003919601,-0.000738144,0.008886337,0,
00:04.9,-0.003908157,-0.000738144,0.008886337,0,
00:04.9,-0.003913879,-0.000732422,0.008886337,0,
00:04.9,-0.003931046,-0.000738144,0.008892059,0,
00:04.9,-0.003919601,-0.000738144,0.008897781,0,
00:04.9,-0.003913879,-0.000743866,0.008892059,0,
00:04.9,-0.003919601,-0.000738144,0.008892059,0,
00:05.0,-0.003919601,-0.000738144,0.008892059,0,
00:05.0,-0.003925323,-0.000738144,0.008897781,0,
00:05.0,-0.003936768,-0.000738144,0.008892059,0,
00:05.0,-0.003948212,-0.000743866,0.008892059,0,
00:05.0,-0.003936768,-0.000743866,0.008892059,0,
00:05.0,-0.003908157,-0.000738144,0.008897781,0,
00:05.0,-0.003896713,-0.000732422,0.008897781,0,
00:05.0,-0.003908157,-0.000732422,0.008892059,0,
00:05.0,-0.003913879,-0.000732422,0.008886337,0,
00:05.0,-0.003919601,-0.000738144,0.008892059,0,
00:05.0,-0.003925323,-0.000738144,0.008897781,0,
00:05.0,-0.003925323,-0.000743866,0.008897781,0,
00:00:05,-0.003931046,-0.000743866,0.008903503,0,
00:05.0,-0.003925323,-0.000743866,0.008903503,0,
00:05.0,-0.003925323,-0.000743866,0.008903503,0,
00:05.0,-0.003936768,-0.000743866,0.008903503,0,
00:05.0,-0.003931046,-0.000738144,0.008903503,0,
00:05.0,-0.003913879,-0.000738144,0.008903503,0,
00:05.0,-0.003902435,-0.000738144,0.008909225,0,
00:05.0,-0.003913879,-0.000738144,0.008909225,0,
00:05.0,-0.003925323,-0.000743866,0.008903503,0,
00:05.0,-0.003919601,-0.000738144,0.008903503,0,
00:05.0,-0.003919601,-0.000738144,0.008903503,0,
00:05.0,-0.003919601,-0.000738144,0.008909225,0,
00:05.0,-0.003908157,-0.000738144,0.008903503,0,
00:05.1,-0.003913879,-0.000738144,0.008903503,0,
00:05.1,-0.003919601,-0.000743866,0.008903503,0,
00:05.1,-0.003931046,-0.000743866,0.008903503,0,
00:05.1,-0.003936768,-0.00075531,0.008903503,0,
00:05.1,-0.003931046,-0.000749588,0.008903503,0,
00:05.1,-0.003919601,-0.000738144,0.008903503,0,
00:05.1,-0.003902435,-0.000732422,0.008903503,0,
00:05.1,-0.003902435,-0.000738144,0.008909225,0,
00:05.1,-0.003919601,-0.000743866,0.008897781,0,
00:05.1,-0.003919601,-0.000732422,0.008897781,0,
00:05.1,-0.003902435,-0.000732422,0.008897781,0,
00:05.1,-0.003896713,-0.000732422,0.008897781,0,
00:05.1,-0.003908157,-0.000738144,0.008892059,0,
00:05.1,-0.003925323,-0.000743866,0.008892059,0,
00:05.1,-0.003925323,-0.000743866,0.008897781,0,
00:05.1,-0.003919601,-0.000738144,0.008897781,0,
00:05.1,-0.003919601,-0.000738144,0.008897781,0,
00:05.1,-0.003913879,-0.000732422,0.008897781,0,
00:05.1,-0.003919601,-0.000738144,0.008897781,0,
00:05.1,-0.003908157,-0.000738144,0.008897781,0,
00:05.1,-0.003908157,-0.000738144,0.008897781,0,
00:05.1,-0.003913879,-0.000743866,0.008903503,0,
00:05.1,-0.003931046,-0.000743866,0.008903503,0,
00:05.1,-0.003931046,-0.000743866,0.008903503,0,
00:05.1,-0.003919601,-0.000738144,0.008903503,0,
00:05.2,-0.003913879,-0.000743866,0.008909225,0,
00:05.2,-0.003913879,-0.000738144,0.008909225,0,
00:05.2,-0.003919601,-0.000743866,0.008903503,0,
00:05.2,-0.003913879,-0.000743866,0.008903503,0,
00:05.2,-0.003896713,-0.000738144,0.008909225,0,
00:05.2,-0.003896713,-0.000738144,0.008909225,0,
00:05.2,-0.003902435,-0.000738144,0.008903503,0,
00:05.2,-0.003902435,-0.000738144,0.008903503,0,
00:05.2,-0.003902435,-0.000738144,0.008909225,0,
00:05.2,-0.003908157,-0.000743866,0.008903503,0,
00:05.2,-0.003908157,-0.000738144,0.008903503,0,
00:05.2,-0.003913879,-0.000738144,0.008909225,0,
00:05.2,-0.003919601,-0.000738144,0.008909225,0,
00:05.2,-0.003913879,-0.000732422,0.008909225,0,
00:05.2,-0.003902435,-0.000732422,0.008909225,0,
00:05.2,-0.003908157,-0.000738144,0.008914948,0,
00:05.2,-0.003919601,-0.000743866,0.008914948,0,
00:05.2,-0.003913879,-0.000732422,0.008914948,0,
00:05.2,-0.003908157,-0.000738144,0.00892067,0,
00:05.2,-0.003913879,-0.000743866,0.008909225,0,
00:05.2,-0.003913879,-0.000738144,0.008914948,0,
00:05.2,-0.003908157,-0.0007267,0.008914948,0,
00:05.2,-0.003896713,-0.0007267,0.00892067,0,
00:05.2,-0.003896713,-0.0007267,0.00892067,0,
00:05.2,-0.003908157,-0.0007267,0.00892067,0,
00:05.3,-0.003913879,-0.000732422,0.00892067,0,
00:05.3,-0.003913879,-0.000732422,0.00892067,0,
00:05.3,-0.003919601,-0.000732422,0.00892067,0,
00:05.3,-0.003913879,-0.000732422,0.008926392,0,
00:05.3,-0.003913879,-0.000732422,0.008926392,0,
00:05.3,-0.003902435,-0.0007267,0.008926392,0,
00:05.3,-0.003896713,-0.000720978,0.008926392,0,
00:05.3,-0.003896713,-0.0007267,0.008926392,0,
00:05.3,-0.003890991,-0.0007267,0.008926392,0,
00:05.3,-0.003890991,-0.0007267,0.008932114,0,
00:05.3,-0.003896713,-0.0007267,0.008937836,0,
00:05.3,-0.003902435,-0.0007267,0.008932114,0,
00:05.3,-0.003902435,-0.0007267,0.008932114,0,
00:05.3,-0.003902435,-0.000732422,0.008932114,0,
00:05.3,-0.003913879,-0.000732422,0.008937836,0,
00:05.3,-0.003913879,-0.000732422,0.008932114,0,
00:05.3,-0.003902435,-0.000732422,0.008937836,0,
00:05.3,-0.003896713,-0.000732422,0.008943558,0,
00:05.3,-0.003896713,-0.000732422,0.008943558,0,
00:05.3,-0.003902435,-0.0007267,0.008943558,0,
00:05.3,-0.003919601,-0.0007267,0.008943558,0,
00:05.3,-0.003931046,-0.000732422,0.008943558,0,
00:05.3,-0.003919601,-0.000738144,0.00894928,0,
00:05.3,-0.003885269,-0.000732422,0.008943558,0,
00:05.3,-0.003890991,-0.000732422,0.00894928,0,
00:05.4,-0.003902435,-0.000732422,0.008943558,0,
00:05.4,-0.003902435,-0.000732422,0.00894928,0,
00:05.4,-0.003890991,-0.000738144,0.00894928,0,
00:05.4,-0.003885269,-0.000732422,0.00894928,0,
00:05.4,-0.003890991,-0.0007267,0.00894928,0,
00:05.4,-0.003902435,-0.0007267,0.00894928,0,
00:05.4,-0.003902435,-0.000732422,0.00894928,0,
00:05.4,-0.003902435,-0.0007267,0.00894928,0,
00:05.4,-0.003913879,-0.000732422,0.00894928,0,
00:05.4,-0.003908157,-0.000738144,0.00894928,0,
00:05.4,-0.003896713,-0.000732422,0.008955002,0,
00:05.4,-0.003885269,-0.000732422,0.008955002,0,
00:05.4,-0.003885269,-0.0007267,0.00894928,0,
00:05.4,-0.003885269,-0.0007267,0.00894928,0,
00:05.4,-0.003890991,-0.0007267,0.008955002,0,
00:05.4,-0.003896713,-0.0007267,0.008955002,0,
00:05.4,-0.003902435,-0.0007267,0.008955002,0,
00:05.4,-0.003902435,-0.000732422,0.008955002,0,
00:05.4,-0.003908157,-0.000738144,0.008966446,0,
00:05.4,-0.003902435,-0.000738144,0.008966446,0,
00:05.4,-0.003890991,-0.000732422,0.00894928,0,
00:05.4,-0.003879547,-0.000732422,0.008955002,0,
00:05.4,-0.003879547,-0.000732422,0.008955002,0,
00:05.4,-0.003885269,-0.000732422,0.008960724,0,
00:05.4,-0.003890991,-0.000732422,0.008960724,0,
00:05.5,-0.003902435,-0.000732422,0.008960724,0,
00:05.5,-0.003919601,-0.000738144,0.008960724,0,
00:05.5,-0.003936768,-0.000743866,0.008966446,0,
00:05.5,-0.003919601,-0.000743866,0.008966446,0,
00:05.5,-0.003873825,-0.000732422,0.008966446,0,
00:05.5,-0.003862381,-0.0007267,0.008966446,0,
00:05.5,-0.003879547,-0.000732422,0.008972168,0,
00:05.5,-0.003885269,-0.000732422,0.008972168,0,
00:05.5,-0.003873825,-0.0007267,0.008972168,0,
00:05.5,-0.003873825,-0.0007267,0.008972168,0,
00:05.5,-0.003885269,-0.000732422,0.008972168,0,
00:05.5,-0.003890991,-0.000732422,0.008972168,0,
00:05.5,-0.003896713,-0.000732422,0.00897789,0,
00:05.5,-0.003890991,-0.000738144,0.00897789,0,
00:05.5,-0.003885269,-0.000743866,0.00897789,0,
00:05.5,-0.003885269,-0.000732422,0.008972168,0,
00:05.5,-0.003885269,-0.0007267,0.008972168,0,
00:05.5,-0.003885269,-0.000732422,0.008972168,0,
00:05.5,-0.003873825,-0.000732422,0.008983612,0,
00:05.5,-0.003873825,-0.000738144,0.008989334,0,
00:05.5,-0.003885269,-0.000732422,0.008983612,0,
00:05.5,-0.003890991,-0.000732422,0.008983612,0,
00:05.5,-0.003885269,-0.000732422,0.008983612,0,
00:05.5,-0.003879547,-0.000732422,0.008989334,0,
00:05.5,-0.003890991,-0.000732422,0.008989334,0,
00:05.6,-0.003896713,-0.000732422,0.008983612,0,
00:05.6,-0.003890991,-0.000738144,0.008995056,0,
00:05.6,-0.003879547,-0.000732422,0.008989334,0,
00:05.6,-0.003879547,-0.000732422,0.008989334,0,
00:05.6,-0.003885269,-0.000738144,0.008995056,0,
00:05.6,-0.003885269,-0.000738144,0.008995056,0,
00:05.6,-0.003879547,-0.000732422,0.008995056,0,
00:05.6,-0.003890991,-0.000732422,0.008995056,0,
00:05.6,-0.003896713,-0.000738144,0.008995056,0,
00:05.6,-0.003896713,-0.000743866,0.008995056,0,
00:05.6,-0.003896713,-0.000743866,0.008995056,0,
00:05.6,-0.003890991,-0.000743866,0.008995056,0,
00:05.6,-0.003873825,-0.000738144,0.009000778,0,
00:05.6,-0.003862381,-0.000732422,0.009000778,0,
00:05.6,-0.003850937,-0.000732422,0.009000778,0,
00:05.6,-0.003862381,-0.000732422,0.009000778,0,
00:05.6,-0.003873825,-0.000732422,0.009000778,0,
00:05.6,-0.003879547,-0.000738144,0.008995056,0,
00:05.6,-0.003879547,-0.000738144,0.008995056,0,
00:05.6,-0.003879547,-0.000732422,0.009000778,0,
00:05.6,-0.003879547,-0.000738144,0.009000778,0,
00:05.6,-0.003879547,-0.000738144,0.0090065,0,
00:05.6,-0.003890991,-0.000738144,0.009000778,0,
00:05.6,-0.003879547,-0.000738144,0.0090065,0,
00:05.6,-0.003856659,-0.000732422,0.0090065,0,
00:05.7,-0.003862381,-0.000732422,0.0090065,0,
00:05.7,-0.003873825,-0.000738144,0.0090065,0,
00:05.7,-0.003879547,-0.000743866,0.0090065,0,
00:05.7,-0.003868103,-0.000732422,0.0090065,0,
00:05.7,-0.003862381,-0.0007267,0.0090065,0,
00:05.7,-0.003873825,-0.000732422,0.009017944,0,
00:05.7,-0.003879547,-0.000738144,0.009012222,0,
00:05.7,-0.003879547,-0.000738144,0.009000778,0,
00:05.7,-0.003885269,-0.000738144,0.0090065,0,
00:05.7,-0.003890991,-0.000738144,0.009012222,0,
00:05.7,-0.003879547,-0.000738144,0.009012222,0,
00:05.7,-0.003868103,-0.0007267,0.009012222,0,
00:05.7,-0.003856659,-0.0007267,0.0090065,0,
00:05.7,-0.003862381,-0.000732422,0.009012222,0,
00:05.7,-0.003868103,-0.000732422,0.009017944,0,
00:05.7,-0.003879547,-0.000732422,0.009017944,0,
00:05.7,-0.003873825,-0.0007267,0.009012222,0,
00:05.7,-0.003856659,-0.0007267,0.009012222,0,
00:05.7,-0.003850937,-0.0007267,0.009017944,0,
00:05.7,-0.003862381,-0.0007267,0.009023666,0,
00:05.7,-0.003873825,-0.000732422,0.009023666,0,
00:05.7,-0.003885269,-0.0007267,0.009017944,0,
00:05.7,-0.003873825,-0.0007267,0.009017944,0,
00:05.7,-0.003868103,-0.000732422,0.009023666,0,
00:05.7,-0.003862381,-0.0007267,0.009023666,0,
00:05.8,-0.003873825,-0.000720978,0.009029388,0,
00:05.8,-0.003885269,-0.000732422,0.00903511,0,
00:05.8,-0.003873825,-0.000738144,0.009029388,0,
00:05.8,-0.003868103,-0.000732422,0.009029388,0,
00:05.8,-0.003879547,-0.000732422,0.009029388,0,
00:05.8,-0.003873825,-0.000738144,0.009029388,0,
00:05.8,-0.003850937,-0.0007267,0.00903511,0,
00:05.8,-0.003850937,-0.000720978,0.00903511,0,
00:05.8,-0.003868103,-0.0007267,0.00903511,0,
00:05.8,-0.003879547,-0.000732422,0.009029388,0,
00:05.8,-0.003873825,-0.000732422,0.009029388,0,
00:05.8,-0.003862381,-0.0007267,0.009040833,0,
00:05.8,-0.003868103,-0.000732422,0.009046555,0,
00:05.8,-0.003873825,-0.000732422,0.009040833,0,
00:05.8,-0.003873825,-0.000732422,0.009040833,0,
00:05.8,-0.003856659,-0.0007267,0.009046555,0,
00:05.8,-0.003850937,-0.0007267,0.009040833,0,
00:05.8,-0.003856659,-0.0007267,0.009040833,0,
00:05.8,-0.003868103,-0.000732422,0.009040833,0,
00:05.8,-0.003873825,-0.0007267,0.009046555,0,
00:05.8,-0.003873825,-0.0007267,0.009046555,0,
00:05.8,-0.003862381,-0.0007267,0.009046555,0,
00:05.8,-0.003868103,-0.000732422,0.009046555,0,
00:05.8,-0.003868103,-0.000732422,0.009052277,0,
00:05.8,-0.003862381,-0.000732422,0.009052277,0,
00:05.9,-0.003862381,-0.0007267,0.009052277,0,
00:05.9,-0.003856659,-0.000720978,0.009052277,0,
00:05.9,-0.003856659,-0.000732422,0.009052277,0,
00:05.9,-0.003862381,-0.000738144,0.009052277,0,
00:05.9,-0.003873825,-0.000732422,0.009052277,0,
00:05.9,-0.003879547,-0.000732422,0.009057999,0,
00:05.9,-0.003873825,-0.0007267,0.009052277,0,
00:05.9,-0.003862381,-0.000732422,0.009052277,0,
00:05.9,-0.003856659,-0.000732422,0.009052277,0,
00:05.9,-0.003856659,-0.000720978,0.009052277,0,
00:05.9,-0.003839493,-0.0007267,0.009052277,0,
00:05.9,-0.003845215,-0.0007267,0.009052277,0,
00:05.9,-0.003856659,-0.000720978,0.009057999,0,
00:05.9,-0.003862381,-0.0007267,0.009057999,0,
00:05.9,-0.003868103,-0.000732422,0.009057999,0,
00:05.9,-0.003862381,-0.0007267,0.009057999,0,
00:05.9,-0.003862381,-0.0007267,0.009057999,0,
00:05.9,-0.003862381,-0.0007267,0.009057999,0,
00:05.9,-0.003845215,-0.0007267,0.009063721,0,
00:05.9,-0.003845215,-0.000732422,0.009069443,0,
00:05.9,-0.003856659,-0.0007267,0.009063721,0,
00:05.9,-0.003850937,-0.000720978,0.009057999,0,
00:05.9,-0.003856659,-0.0007267,0.009057999,0,
00:05.9,-0.003868103,-0.000732422,0.009057999,0,
00:05.9,-0.003862381,-0.000732422,0.009057999,0,
00:06.0,-0.003850937,-0.0007267,0.009063721,0,
00:06.0,-0.003856659,-0.000720978,0.009063721,0,
00:06.0,-0.003862381,-0.0007267,0.009069443,0,
00:06.0,-0.003862381,-0.0007267,0.009063721,0,
00:06.0,-0.003856659,-0.0007267,0.009063721,0,
00:06.0,-0.003862381,-0.0007267,0.009063721,0,
00:06.0,-0.003873825,-0.000732422,0.009057999,0,
00:06.0,-0.003873825,-0.000732422,0.009063721,0,
00:06.0,-0.003868103,-0.000732422,0.009075165,0,
00:06.0,-0.003856659,-0.000732422,0.009069443,0,
00:06.0,-0.003856659,-0.0007267,0.009069443,0,
00:06.0,-0.003856659,-0.000732422,0.009063721,0,
00:00:06,-0.003833771,-0.000720978,0.009063721,0,
00:06.0,-0.003833771,-0.000715256,0.009063721,0,
00:06.0,-0.003833771,-0.0007267,0.009063721,0,
00:06.0,-0.003839493,-0.000720978,0.009069443,0,
00:06.0,-0.003850937,-0.0007267,0.009069443,0,
00:06.0,-0.003850937,-0.000732422,0.009069443,0,
00:06.0,-0.003856659,-0.000732422,0.009069443,0,
00:06.0,-0.003850937,-0.000732422,0.009069443,0,
00:06.0,-0.003856659,-0.000732422,0.009069443,0,
00:06.0,-0.003862381,-0.0007267,0.009069443,0,
00:06.0,-0.003850937,-0.000720978,0.009069443,0,
00:06.0,-0.003845215,-0.000720978,0.009069443,0,
00:06.0,-0.003845215,-0.000720978,0.009075165,0,
00:06.1,-0.003856659,-0.0007267,0.009075165,0,
00:06.1,-0.003856659,-0.0007267,0.009080887,0,
00:06.1,-0.003856659,-0.0007267,0.009080887,0,
00:06.1,-0.003850937,-0.000720978,0.009075165,0,
00:06.1,-0.003845215,-0.000720978,0.009069443,0,
00:06.1,-0.003833771,-0.000720978,0.009075165,0,
00:06.1,-0.003833771,-0.000715256,0.009080887,0,
00:06.1,-0.003862381,-0.0007267,0.009080887,0,
00:06.1,-0.003868103,-0.000732422,0.009080887,0,
00:06.1,-0.003873825,-0.000732422,0.009075165,0,
00:06.1,-0.003879547,-0.000732422,0.009080887,0,
00:06.1,-0.003868103,-0.000732422,0.009086609,0,
00:06.1,-0.003845215,-0.000720978,0.009080887,0,
00:06.1,-0.003833771,-0.000715256,0.009075165,0,
00:06.1,-0.003839493,-0.000720978,0.009080887,0,
00:06.1,-0.003839493,-0.000720978,0.009080887,0,
00:06.1,-0.003839493,-0.000720978,0.009080887,0,
00:06.1,-0.003845215,-0.000720978,0.009080887,0,
00:06.1,-0.003856659,-0.000720978,0.009080887,0,
00:06.1,-0.003850937,-0.000720978,0.009080887,0,
00:06.1,-0.003839493,-0.000715256,0.009086609,0,
00:06.1,-0.003839493,-0.000709534,0.009092331,0,
00:06.1,-0.003839493,-0.0007267,0.009092331,0,
00:06.1,-0.003845215,-0.0007267,0.009092331,0,
00:06.1,-0.003845215,-0.000715256,0.009092331,0,
00:06.2,-0.003833771,-0.000715256,0.009098053,0,
00:06.2,-0.003833771,-0.000720978,0.009098053,0,
00:06.2,-0.003856659,-0.000720978,0.009092331,0,
00:06.2,-0.003856659,-0.000720978,0.009092331,0,
00:06.2,-0.003856659,-0.000720978,0.009092331,0,
00:06.2,-0.003856659,-0.0007267,0.009092331,0,
00:06.2,-0.003850937,-0.000720978,0.009092331,0,
00:06.2,-0.003850937,-0.000715256,0.009092331,0,
00:06.2,-0.003845215,-0.000720978,0.009098053,0,
00:06.2,-0.003839493,-0.000720978,0.009098053,0,
00:06.2,-0.003845215,-0.000720978,0.009103775,0,
00:06.2,-0.003850937,-0.000720978,0.009098053,0,
00:06.2,-0.003850937,-0.000720978,0.009098053,0,
00:06.2,-0.003850937,-0.000720978,0.009098053,0,
00:06.2,-0.003856659,-0.0007267,0.009098053,0,
00:06.2,-0.003850937,-0.000720978,0.009103775,0,
00:06.2,-0.003850937,-0.000715256,0.009103775,0,
00:06.2,-0.003850937,-0.000720978,0.009098053,0,
00:06.2,-0.003845215,-0.000720978,0.009103775,0,
00:06.2,-0.003839493,-0.000720978,0.009103775,0,
00:06.2,-0.003856659,-0.0007267,0.009103775,0,
00:06.2,-0.003862381,-0.0007267,0.009092331,0,
00:06.2,-0.003850937,-0.000720978,0.009092331,0,
00:06.2,-0.003828049,-0.000720978,0.009103775,0,
00:06.2,-0.003828049,-0.000720978,0.009109497,0,
00:06.3,-0.003828049,-0.000715256,0.009103775,0,
00:06.3,-0.003839493,-0.000715256,0.009103775,0,
00:06.3,-0.003845215,-0.000720978,0.009098053,0,
00:06.3,-0.003850937,-0.0007267,0.009098053,0,
00:06.3,-0.003850937,-0.0007267,0.009109497,0,
00:06.3,-0.003856659,-0.000720978,0.009109497,0,
00:06.3,-0.003845215,-0.000720978,0.009109497,0,
00:06.3,-0.003833771,-0.000720978,0.009103775,0,
00:06.3,-0.003816605,-0.0007267,0.009103775,0,
00:06.3,-0.003828049,-0.000715256,0.009103775,0,
00:06.3,-0.003845215,-0.000715256,0.009103775,0,
00:06.3,-0.003856659,-0.000720978,0.009109497,0,
00:06.3,-0.003845215,-0.000720978,0.009115219,0,
00:06.3,-0.003833771,-0.000720978,0.009115219,0,
00:06.3,-0.003845215,-0.000720978,0.009115219,0,
00:06.3,-0.003850937,-0.0007267,0.009115219,0,
00:06.3,-0.003845215,-0.000720978,0.009109497,0,
00:06.3,-0.003839493,-0.000720978,0.009109497,0,
00:06.3,-0.003839493,-0.000715256,0.009109497,0,
00:06.3,-0.003850937,-0.000720978,0.009115219,0,
00:06.3,-0.003868103,-0.0007267,0.009115219,0,
00:06.3,-0.003850937,-0.000720978,0.009115219,0,
00:06.3,-0.003828049,-0.000715256,0.009115219,0,
00:06.3,-0.003828049,-0.000715256,0.009115219,0,
00:06.3,-0.003833771,-0.000715256,0.009115219,0,
00:06.4,-0.003845215,-0.000720978,0.009120941,0,
00:06.4,-0.003845215,-0.000720978,0.009126663,0,
00:06.4,-0.003850937,-0.000732422,0.009120941,0,
00:06.4,-0.003839493,-0.0007267,0.009115219,0,
00:06.4,-0.003833771,-0.000715256,0.009120941,0,
00:06.4,-0.003839493,-0.000709534,0.009120941,0,
00:06.4,-0.003850937,-0.000709534,0.009126663,0,
00:06.4,-0.003845215,-0.000720978,0.009126663,0,
00:06.4,-0.003839493,-0.0007267,0.009120941,0,
00:06.4,-0.003828049,-0.000720978,0.009126663,0,
00:06.4,-0.003822327,-0.000715256,0.009126663,0,
00:06.4,-0.003822327,-0.000715256,0.009126663,0,
00:06.4,-0.003833771,-0.000715256,0.009126663,0,
00:06.4,-0.003833771,-0.000720978,0.009126663,0,
00:06.4,-0.003833771,-0.000720978,0.009132385,0,
00:06.4,-0.003833771,-0.000715256,0.009138107,0,
00:06.4,-0.003833771,-0.0007267,0.009132385,0,
00:06.4,-0.003833771,-0.0007267,0.009132385,0,
00:06.4,-0.003833771,-0.0007267,0.009132385,0,
00:06.4,-0.003828049,-0.000720978,0.009132385,0,
00:06.4,-0.003839493,-0.0007267,0.009132385,0,
00:06.4,-0.003850937,-0.0007267,0.009132385,0,
00:06.4,-0.003845215,-0.000720978,0.009132385,0,
00:06.4,-0.003833771,-0.000720978,0.009138107,0,
00:06.4,-0.003822327,-0.000720978,0.009138107,0,
00:06.5,-0.003828049,-0.0007267,0.009138107,0,
00:06.5,-0.003833771,-0.000720978,0.009138107,0,
00:06.5,-0.003839493,-0.0007267,0.009138107,0,
00:06.5,-0.003833771,-0.000732422,0.009138107,0,
00:06.5,-0.003828049,-0.0007267,0.009143829,0,
00:06.5,-0.003822327,-0.000715256,0.009149551,0,
00:06.5,-0.003822327,-0.000720978,0.009138107,0,
00:06.5,-0.003822327,-0.000720978,0.009143829,0,
00:06.5,-0.003828049,-0.0007267,0.009143829,0,
00:06.5,-0.003828049,-0.000720978,0.009143829,0,
00:06.5,-0.003828049,-0.000720978,0.009138107,0,
00:06.5,-0.003828049,-0.0007267,0.009138107,0,
00:06.5,-0.003822327,-0.0007267,0.009143829,0,
00:06.5,-0.003810883,-0.000720978,0.009155273,0,
00:06.5,-0.003816605,-0.0007267,0.009143829,0,
00:06.5,-0.003833771,-0.000732422,0.009138107,0,
00:06.5,-0.003839493,-0.000732422,0.009143829,0,
00:06.5,-0.003833771,-0.0007267,0.009143829,0,
00:06.5,-0.003816605,-0.000720978,0.009149551,0,
00:06.5,-0.003816605,-0.000720978,0.009149551,0,
00:06.5,-0.003822327,-0.000720978,0.009149551,0,
00:06.5,-0.003828049,-0.000720978,0.009149551,0,
00:06.5,-0.003828049,-0.000715256,0.009149551,0,
00:06.5,-0.003828049,-0.000720978,0.009143829,0,
00:06.5,-0.003828049,-0.000720978,0.009149551,0,
00:06.6,-0.003822327,-0.000720978,0.009149551,0,
00:06.6,-0.003828049,-0.000720978,0.009149551,0,
00:06.6,-0.003833771,-0.000720978,0.009155273,0,
00:06.6,-0.003822327,-0.000720978,0.009155273,0,
00:06.6,-0.003805161,-0.000715256,0.009155273,0,
00:06.6,-0.003828049,-0.000715256,0.009149551,0,
00:06.6,-0.003839493,-0.0007267,0.009149551,0,
00:06.6,-0.003828049,-0.0007267,0.009155273,0,
00:06.6,-0.003810883,-0.000715256,0.009155273,0,
00:06.6,-0.003805161,-0.000715256,0.009155273,0,
00:06.6,-0.003816605,-0.000720978,0.009155273,0,
00:06.6,-0.003822327,-0.000720978,0.009160995,0,
00:06.6,-0.003822327,-0.000720978,0.009155273,0,
00:06.6,-0.003816605,-0.000715256,0.009155273,0,
00:06.6,-0.003822327,-0.000720978,0.009155273,0,
00:06.6,-0.003816605,-0.000720978,0.009149551,0,
00:06.6,-0.003816605,-0.000720978,0.009155273,0,
00:06.6,-0.003828049,-0.0007267,0.009160995,0,
00:06.6,-0.003828049,-0.0007267,0.009155273,0,
00:06.6,-0.003816605,-0.000715256,0.009155273,0,
00:06.6,-0.003816605,-0.000715256,0.009155273,0,
00:06.6,-0.003816605,-0.000720978,0.009160995,0,
00:06.6,-0.003810883,-0.000720978,0.009166718,0,
00:06.6,-0.003810883,-0.000720978,0.009160995,0,
00:06.6,-0.003828049,-0.0007267,0.009160995,0,
00:06.7,-0.003845215,-0.0007267,0.009160995,0,
00:06.7,-0.003833771,-0.0007267,0.009160995,0,
00:06.7,-0.003787994,-0.000715256,0.009160995,0,
00:06.7,-0.003782272,-0.000703812,0.009160995,0,
00:06.7,-0.003805161,-0.000715256,0.009155273,0,
00:06.7,-0.003828049,-0.0007267,0.009160995,0,
00:06.7,-0.003828049,-0.000732422,0.009160995,0,
00:06.7,-0.003822327,-0.000732422,0.009160995,0,
00:06.7,-0.003828049,-0.0007267,0.009166718,0,
00:06.7,-0.003822327,-0.000720978,0.009166718,0,
00:06.7,-0.003822327,-0.000715256,0.009166718,0,
00:06.7,-0.003833771,-0.000720978,0.009166718,0,
00:06.7,-0.003833771,-0.000720978,0.009166718,0,
00:06.7,-0.003816605,-0.000715256,0.00917244,0,
00:06.7,-0.003793716,-0.000709534,0.00917244,0,
00:06.7,-0.003805161,-0.000715256,0.009166718,0,
00:06.7,-0.003810883,-0.000720978,0.009166718,0,
00:06.7,-0.003828049,-0.000720978,0.009166718,0,
00:06.7,-0.003822327,-0.000720978,0.009166718,0,
00:06.7,-0.003810883,-0.000715256,0.009166718,0,
00:06.7,-0.003799438,-0.000715256,0.009166718,0,
00:06.7,-0.003805161,-0.000715256,0.00917244,0,
00:06.7,-0.003816605,-0.000715256,0.00917244,0,
00:06.7,-0.003822327,-0.000715256,0.00917244,0,
00:06.7,-0.003822327,-0.000720978,0.00917244,0,
00:06.8,-0.003822327,-0.000715256,0.009178162,0,
00:06.8,-0.003816605,-0.000715256,0.009178162,0,
00:06.8,-0.003810883,-0.000715256,0.00917244,0,
00:06.8,-0.003810883,-0.000715256,0.009178162,0,
00:06.8,-0.003810883,-0.000715256,0.009183884,0,
00:06.8,-0.003810883,-0.000715256,0.009189606,0,
00:06.8,-0.003810883,-0.000715256,0.009183884,0,
00:06.8,-0.003828049,-0.000715256,0.009183884,0,
00:06.8,-0.003828049,-0.000720978,0.009183884,0,
00:06.8,-0.003828049,-0.000720978,0.009183884,0,
00:06.8,-0.003828049,-0.0007267,0.009183884,0,
00:06.8,-0.003822327,-0.0007267,0.009189606,0,
00:06.8,-0.003799438,-0.000709534,0.009189606,0,
00:06.8,-0.003793716,-0.000709534,0.009189606,0,
00:06.8,-0.003799438,-0.000709534,0.009189606,0,
00:06.8,-0.003810883,-0.000715256,0.009183884,0,
00:06.8,-0.003816605,-0.000715256,0.009183884,0,
00:06.8,-0.003810883,-0.000715256,0.009189606,0,
00:06.8,-0.003816605,-0.000720978,0.009206772,0,
00:06.8,-0.003816605,-0.000720978,0.00920105,0,
00:06.8,-0.003810883,-0.000715256,0.009189606,0,
00:06.8,-0.003799438,-0.000709534,0.009189606,0,
00:06.8,-0.003793716,-0.000715256,0.009195328,0,
00:06.8,-0.003805161,-0.000715256,0.009195328,0,
00:06.8,-0.003810883,-0.000715256,0.009195328,0,
00:06.9,-0.003816605,-0.000715256,0.009195328,0,
00:06.9,-0.003816605,-0.000715256,0.00920105,0,
00:06.9,-0.003816605,-0.000715256,0.00920105,0,
00:06.9,-0.003805161,-0.000715256,0.00920105,0,
00:06.9,-0.003805161,-0.000715256,0.00920105,0,
00:06.9,-0.003810883,-0.000715256,0.00920105,0,
00:06.9,-0.003816605,-0.000715256,0.00920105,0,
00:06.9,-0.003805161,-0.000709534,0.009195328,0,
00:06.9,-0.003822327,-0.000709534,0.00920105,0,
00:06.9,-0.003839493,-0.0007267,0.009206772,0,
00:06.9,-0.003839493,-0.0007267,0.009206772,0,
00:06.9,-0.003822327,-0.000715256,0.00920105,0,
00:06.9,-0.003799438,-0.000703812,0.00920105,0,
00:06.9,-0.003816605,-0.0007267,0.00920105,0,
00:06.9,-0.003822327,-0.000720978,0.00920105,0,
00:06.9,-0.003810883,-0.000709534,0.009206772,0,
00:06.9,-0.003805161,-0.000709534,0.009206772,0,
00:06.9,-0.003787994,-0.000709534,0.009206772,0,
00:06.9,-0.003793716,-0.000703812,0.009206772,0,
00:06.9,-0.003805161,-0.000709534,0.009206772,0,
00:06.9,-0.003805161,-0.000709534,0.009206772,0,
00:06.9,-0.003805161,-0.000703812,0.009212494,0,
00:06.9,-0.003799438,-0.000703812,0.009218216,0,
00:06.9,-0.003799438,-0.000709534,0.009206772,0,
00:06.9,-0.003799438,-0.000709534,0.009206772,0,
00:07.0,-0.003805161,-0.000703812,0.009212494,0,
00:07.0,-0.003810883,-0.000709534,0.009218216,0,
00:07.0,-0.003805161,-0.000709534,0.009218216,0,
00:07.0,-0.003810883,-0.000709534,0.009212494,0,
00:07.0,-0.003816605,-0.000715256,0.009218216,0,
00:07.0,-0.003822327,-0.000715256,0.009218216,0,
00:07.0,-0.003805161,-0.000709534,0.009212494,0,
00:07.0,-0.003782272,-0.000703812,0.009218216,0,
00:07.0,-0.003787994,-0.000703812,0.009218216,0,
00:07.0,-0.003799438,-0.000703812,0.009223938,0,
00:07.0,-0.003816605,-0.000715256,0.009223938,0,
00:07.0,-0.003816605,-0.000709534,0.009223938,0,
00:00:07,-0.003816605,-0.000715256,0.009223938,0,
00:07.0,-0.003822327,-0.000720978,0.009223938,0,
00:07.0,-0.003810883,-0.000709534,0.00922966,0,
00:07.0,-0.003793716,-0.00069809,0.00922966,0,
00:07.0,-0.003787994,-0.000703812,0.00922966,0,
00:07.0,-0.003799438,-0.000709534,0.00922966,0,
00:07.0,-0.003793716,-0.000715256,0.00922966,0,
00:07.0,-0.003793716,-0.000703812,0.00922966,0,
00:07.0,-0.003805161,-0.000703812,0.009223938,0,
00:07.0,-0.003805161,-0.000709534,0.00922966,0,
00:07.0,-0.003799438,-0.000703812,0.00922966,0,
00:07.0,-0.003799438,-0.00069809,0.009223938,0,
00:07.0,-0.003799438,-0.000709534,0.009223938,0,
00:07.1,-0.003793716,-0.000709534,0.00922966,0,
00:07.1,-0.003787994,-0.000709534,0.00922966,0,
00:07.1,-0.003799438,-0.000709534,0.009235382,0,
00:07.1,-0.003810883,-0.000715256,0.009241104,0,
00:07.1,-0.003810883,-0.000709534,0.00922966,0,
00:07.1,-0.003810883,-0.000709534,0.00922966,0,
00:07.1,-0.003810883,-0.000709534,0.00922966,0,
00:07.1,-0.003793716,-0.00069809,0.00922966,0,
00:07.1,-0.003793716,-0.00069809,0.009235382,0,
00:07.1,-0.003799438,-0.000703812,0.009235382,0,
00:07.1,-0.003810883,-0.000703812,0.00922966,0,
00:07.1,-0.003810883,-0.000709534,0.00922966,0,
00:07.1,-0.003799438,-0.000709534,0.00922966,0,
00:07.1,-0.003793716,-0.000709534,0.00922966,0,
00:07.1,-0.003805161,-0.000703812,0.00922966,0,
00:07.1,-0.003822327,-0.000709534,0.009235382,0,
00:07.1,-0.003805161,-0.000709534,0.009235382,0,
00:07.1,-0.003787994,-0.000703812,0.009235382,0,
00:07.1,-0.003793716,-0.000703812,0.00922966,0,
00:07.1,-0.003805161,-0.000703812,0.00922966,0,
00:07.1,-0.003799438,-0.000703812,0.009235382,0,
00:07.1,-0.003787994,-0.00069809,0.009241104,0,
00:07.1,-0.003782272,-0.00069809,0.009235382,0,
00:07.1,-0.003787994,-0.000703812,0.009235382,0,
00:07.1,-0.003805161,-0.000703812,0.009241104,0,
00:07.2,-0.003810883,-0.000715256,0.009241104,0,
00:07.2,-0.003810883,-0.000709534,0.009241104,0,
00:07.2,-0.003805161,-0.000709534,0.009246826,0,
00:07.2,-0.003782272,-0.00069809,0.009235382,0,
00:07.2,-0.00377655,-0.000692368,0.009235382,0,
00:07.2,-0.003793716,-0.00069809,0.009235382,0,
00:07.2,-0.003810883,-0.000703812,0.009241104,0,
00:07.2,-0.003799438,-0.000703812,0.009235382,0,
00:07.2,-0.003787994,-0.00069809,0.009235382,0,
00:07.2,-0.003782272,-0.00069809,0.009235382,0,
00:07.2,-0.003782272,-0.000703812,0.009235382,0,
00:07.2,-0.003787994,-0.000703812,0.009235382,0,
00:07.2,-0.003782272,-0.00069809,0.009235382,0,
00:07.2,-0.003793716,-0.00069809,0.009235382,0,
00:07.2,-0.003810883,-0.000703812,0.009235382,0,
00:07.2,-0.003810883,-0.000709534,0.009241104,0,
00:07.2,-0.003787994,-0.000715256,0.009241104,0,
00:07.2,-0.00377655,-0.000703812,0.009241104,0,
00:07.2,-0.00377655,-0.00069809,0.009241104,0,
00:07.2,-0.003787994,-0.00069809,0.009241104,0,
00:07.2,-0.003799438,-0.000703812,0.009241104,0,
00:07.2,-0.003799438,-0.000709534,0.009241104,0,
00:07.2,-0.003799438,-0.000703812,0.009241104,0,
00:07.2,-0.003793716,-0.00069809,0.009241104,0,
00:07.2,-0.003782272,-0.00069809,0.009235382,0,
00:07.3,-0.00377655,-0.000703812,0.009241104,0,
00:07.3,-0.003770828,-0.00069809,0.009241104,0,
00:07.3,-0.00377655,-0.00069809,0.009246826,0,
00:07.3,-0.003787994,-0.000703812,0.009252548,0,
00:07.3,-0.003793716,-0.000703812,0.009246826,0,
00:07.3,-0.003787994,-0.000703812,0.009246826,0,
00:07.3,-0.003787994,-0.000703812,0.009246826,0,
00:07.3,-0.003810883,-0.000703812,0.009252548,0,
00:07.3,-0.003822327,-0.000709534,0.009252548,0,
00:07.3,-0.003793716,-0.000709534,0.009246826,0,
00:07.3,-0.003770828,-0.00069809,0.009246826,0,
00:07.3,-0.00377655,-0.00069809,0.009252548,0,
00:07.3,-0.003782272,-0.000703812,0.009252548,0,
00:07.3,-0.003770828,-0.00069809,0.009241104,0,
00:07.3,-0.003770828,-0.000686646,0.009246826,0,
00:07.3,-0.003787994,-0.00069809,0.009252548,0,
00:07.3,-0.003799438,-0.00069809,0.009246826,0,
00:07.3,-0.003799438,-0.00069809,0.009252548,0,
00:07.3,-0.003799438,-0.00069809,0.009246826,0,
00:07.3,-0.003782272,-0.000703812,0.009246826,0,
00:07.3,-0.003770828,-0.000703812,0.009246826,0,
00:07.3,-0.003770828,-0.000703812,0.009246826,0,
00:07.3,-0.003765106,-0.000703812,0.009246826,0,
00:07.3,-0.003765106,-0.000692368,0.009252548,0,
00:07.3,-0.00377655,-0.000692368,0.009252548,0,
00:07.4,-0.003793716,-0.00069809,0.009252548,0,
00:07.4,-0.003787994,-0.000709534,0.009252548,0,
00:07.4,-0.003793716,-0.000703812,0.009252548,0,
00:07.4,-0.003787994,-0.000703812,0.009252548,0,
00:07.4,-0.003799438,-0.000703812,0.009252548,0,
00:07.4,-0.003799438,-0.000709534,0.00925827,0,
00:07.4,-0.003787994,-0.000709534,0.00925827,0,
00:07.4,-0.003787994,-0.000703812,0.00925827,0,
00:07.4,-0.00377655,-0.000703812,0.009263992,0,
00:07.4,-0.00377655,-0.000703812,0.009263992,0,
00:07.4,-0.003782272,-0.000703812,0.009263992,0,
00:07.4,-0.003782272,-0.000703812,0.009275436,0,
00:07.4,-0.003782272,-0.000703812,0.009275436,0,
00:07.4,-0.003787994,-0.00069809,0.009275436,0,
00:07.4,-0.003787994,-0.00069809,0.009269714,0,
00:07.4,-0.003782272,-0.00069809,0.009275436,0,
00:07.4,-0.003782272,-0.000703812,0.00928688,0,
00:07.4,-0.003770828,-0.00069809,0.009281158,0,
00:07.4,-0.003770828,-0.000692368,0.009281158,0,
00:07.4,-0.003782272,-0.000692368,0.00928688,0,
00:07.4,-0.003787994,-0.00069809,0.009275436,0,
00:07.4,-0.003787994,-0.000703812,0.009275436,0,
00:07.4,-0.003782272,-0.000703812,0.009281158,0,
00:07.4,-0.003787994,-0.000703812,0.009281158,0,
00:07.4,-0.00377655,-0.00069809,0.00928688,0,
00:07.5,-0.003782272,-0.00069809,0.00928688,0,
00:07.5,-0.00377655,-0.00069809,0.00928688,0,
00:07.5,-0.00377655,-0.00069809,0.009281158,0,
00:07.5,-0.003782272,-0.00069809,0.00928688,0,
00:07.5,-0.003787994,-0.00069809,0.009281158,0,
00:07.5,-0.003782272,-0.00069809,0.009281158,0,
00:07.5,-0.003787994,-0.000703812,0.009292603,0,
00:07.5,-0.003793716,-0.000709534,0.009292603,0,
00:07.5,-0.003799438,-0.000709534,0.009292603,0,
00:07.5,-0.00377655,-0.00069809,0.009292603,0,
00:07.5,-0.003765106,-0.000692368,0.009292603,0,
00:07.5,-0.003765106,-0.00069809,0.009292603,0,
00:07.5,-0.003765106,-0.00069809,0.009292603,0,
00:07.5,-0.003765106,-0.00069809,0.009292603,0,
00:07.5,-0.003765106,-0.000709534,0.009292603,0,
00:07.5,-0.003765106,-0.000692368,0.009298325,0,
00:07.5,-0.003765106,-0.000692368,0.009292603,0,
00:07.5,-0.003770828,-0.00069809,0.009298325,0,
00:07.5,-0.003782272,-0.00069809,0.009304047,0,
00:07.5,-0.003787994,-0.00069809,0.009304047,0,
00:07.5,-0.003793716,-0.000703812,0.009298325,0,
00:07.5,-0.003782272,-0.000709534,0.009292603,0,
00:07.5,-0.003770828,-0.000703812,0.009304047,0,
00:07.5,-0.003765106,-0.00069809,0.009298325,0,
00:07.5,-0.003770828,-0.000703812,0.009298325,0,
00:07.6,-0.00377655,-0.00069809,0.009298325,0,
00:07.6,-0.003770828,-0.00069809,0.009304047,0,
00:07.6,-0.003787994,-0.00069809,0.009304047,0,
00:07.6,-0.003787994,-0.000703812,0.009309769,0,
00:07.6,-0.003782272,-0.00069809,0.009309769,0,
00:07.6,-0.00377655,-0.000709534,0.009309769,0,
00:07.6,-0.003770828,-0.000709534,0.009309769,0,
00:07.6,-0.003765106,-0.00069809,0.009309769,0,
00:07.6,-0.003753662,-0.00069809,0.009309769,0,
00:07.6,-0.003759384,-0.00069809,0.009309769,0,
00:07.6,-0.003770828,-0.00069809,0.009309769,0,
00:07.6,-0.003770828,-0.00069809,0.009309769,0,
00:07.6,-0.00377655,-0.000703812,0.009315491,0,
00:07.6,-0.00377655,-0.000703812,0.009309769,0,
00:07.6,-0.003770828,-0.00069809,0.009309769,0,
00:07.6,-0.003759384,-0.000692368,0.009309769,0,
00:07.6,-0.003759384,-0.00069809,0.009309769,0,
00:07.6,-0.003753662,-0.000692368,0.009309769,0,
00:07.6,-0.003759384,-0.00069809,0.009315491,0,
00:07.6,-0.003770828,-0.00069809,0.009315491,0,
00:07.6,-0.003782272,-0.00069809,0.009315491,0,
00:07.6,-0.00377655,-0.000703812,0.009321213,0,
00:07.6,-0.003765106,-0.000703812,0.009321213,0,
00:07.6,-0.003765106,-0.00069809,0.009315491,0,
00:07.6,-0.003770828,-0.00069809,0.009315491,0,
00:07.7,-0.003770828,-0.000703812,0.009321213,0,
00:07.7,-0.003770828,-0.000703812,0.009326935,0,
00:07.7,-0.003770828,-0.000703812,0.009321213,0,
00:07.7,-0.003770828,-0.000703812,0.009326935,0,
00:07.7,-0.003782272,-0.000703812,0.009332657,0,
00:07.7,-0.003787994,-0.000703812,0.009321213,0,
00:07.7,-0.00377655,-0.000703812,0.009315491,0,
00:07.7,-0.003765106,-0.000703812,0.009321213,0,
00:07.7,-0.003753662,-0.000703812,0.009326935,0,
00:07.7,-0.003765106,-0.000703812,0.009332657,0,
00:07.7,-0.003765106,-0.00069809,0.009326935,0,
00:07.7,-0.00374794,-0.000692368,0.009326935,0,
00:07.7,-0.003742218,-0.000692368,0.009326935,0,
00:07.7,-0.003759384,-0.00069809,0.009338379,0,
00:07.7,-0.003765106,-0.00069809,0.009338379,0,
00:07.7,-0.003765106,-0.000703812,0.009338379,0,
00:07.7,-0.003759384,-0.000703812,0.009332657,0,
00:07.7,-0.003753662,-0.00069809,0.009338379,0,
00:07.7,-0.00374794,-0.000692368,0.009338379,0,
00:07.7,-0.003759384,-0.000703812,0.009332657,0,
00:07.7,-0.003753662,-0.000703812,0.009332657,0,
00:07.7,-0.003753662,-0.000703812,0.009344101,0,
00:07.7,-0.003753662,-0.00069809,0.009344101,0,
00:07.7,-0.003759384,-0.00069809,0.009349823,0,
00:07.7,-0.003765106,-0.000703812,0.009349823,0,
00:07.8,-0.003765106,-0.000703812,0.009349823,0,
00:07.8,-0.003759384,-0.000703812,0.009349823,0,
00:07.8,-0.003759384,-0.000703812,0.009349823,0,
00:07.8,-0.003759384,-0.000703812,0.009355545,0,
00:07.8,-0.003759384,-0.000703812,0.009366989,0,
00:07.8,-0.003765106,-0.000709534,0.009366989,0,
00:07.8,-0.003770828,-0.000703812,0.009372711,0,
00:07.8,-0.003770828,-0.000703812,0.009378433,0,
00:07.8,-0.003782272,-0.000703812,0.009366989,0,
00:07.8,-0.003759384,-0.00069809,0.009366989,0,
00:07.8,-0.003736496,-0.00069809,0.009372711,0,
00:07.8,-0.00374794,-0.00069809,0.009372711,0,
00:07.8,-0.003742218,-0.000692368,0.009378433,0,
00:07.8,-0.003753662,-0.000703812,0.009384155,0,
00:07.8,-0.003759384,-0.000709534,0.009384155,0,
00:07.8,-0.003753662,-0.00069809,0.009378433,0,
00:07.8,-0.00374794,-0.00069809,0.009378433,0,
00:07.8,-0.003753662,-0.000703812,0.009378433,0,
00:07.8,-0.003765106,-0.000703812,0.009384155,0,
00:07.8,-0.003770828,-0.00069809,0.009389877,0,
00:07.8,-0.003759384,-0.000692368,0.009389877,0,
00:07.8,-0.003742218,-0.000692368,0.009384155,0,
00:07.8,-0.003736496,-0.00069809,0.009389877,0,
00:07.8,-0.003753662,-0.000703812,0.009389877,0,
00:07.8,-0.003759384,-0.000703812,0.009389877,0,
00:07.9,-0.003759384,-0.000703812,0.009395599,0,
00:07.9,-0.003742218,-0.00069809,0.009395599,0,
00:07.9,-0.003736496,-0.000692368,0.009401321,0,
00:07.9,-0.003742218,-0.00069809,0.009407043,0,
00:07.9,-0.003753662,-0.000703812,0.009407043,0,
00:07.9,-0.00377655,-0.000703812,0.009407043,0,
00:07.9,-0.003765106,-0.000703812,0.009412766,0,
00:07.9,-0.00374794,-0.00069809,0.009412766,0,
00:07.9,-0.003753662,-0.00069809,0.009412766,0,
00:07.9,-0.003765106,-0.000703812,0.009412766,0,
00:07.9,-0.003765106,-0.00069809,0.009412766,0,
00:07.9,-0.003753662,-0.00069809,0.009418488,0,
00:07.9,-0.003759384,-0.000703812,0.00942421,0,
00:07.9,-0.003759384,-0.00069809,0.00942421,0,
00:07.9,-0.003753662,-0.000692368,0.00942421,0,
00:07.9,-0.003736496,-0.000692368,0.00942421,0,
00:07.9,-0.003730774,-0.000692368,0.009429932,0,
00:07.9,-0.003730774,-0.000692368,0.00942421,0,
00:07.9,-0.003742218,-0.000686646,0.009435654,0,
00:07.9,-0.00374794,-0.000692368,0.009441376,0,
00:07.9,-0.003759384,-0.00069809,0.009435654,0,
00:07.9,-0.003759384,-0.00069809,0.009441376,0,
00:07.9,-0.003753662,-0.00069809,0.00945282,0,
00:07.9,-0.003742218,-0.00069809,0.009458542,0,
00:07.9,-0.003753662,-0.00069809,0.009464264,0,
00:08.0,-0.003765106,-0.00069809,0.009475708,0,
00:08.0,-0.003753662,-0.00069809,0.00948143,0,
00:08.0,-0.00374794,-0.00069809,0.00948143,0,
00:08.0,-0.00374794,-0.00069809,0.009487152,0,
00:08.0,-0.003759384,-0.00069809,0.009492874,0,
00:08.0,-0.003753662,-0.00069809,0.009498596,0,
00:08.0,-0.00374794,-0.000692368,0.009504318,0,
00:08.0,-0.003753662,-0.00069809,0.00951004,0,
00:08.0,-0.003759384,-0.00069809,0.009515762,0,
00:08.0,-0.003753662,-0.00069809,0.009521484,0,
00:08.0,-0.003753662,-0.000703812,0.009521484,0,
00:08.0,-0.00374794,-0.000709534,0.009527206,0,
00:00:08,-0.00374794,-0.000703812,0.009527206,0,
00:08.0,-0.00374794,-0.000692368,0.009532928,0,
00:08.0,-0.003742218,-0.000692368,0.009532928,0,
00:08.0,-0.003736496,-0.000692368,0.009538651,0,
00:08.0,-0.003730774,-0.000686646,0.009538651,0,
00:08.0,-0.003730774,-0.000692368,0.009544373,0,
00:08.0,-0.003742218,-0.000692368,0.009550095,0,
00:08.0,-0.003765106,-0.00069809,0.009555817,0,
00:08.0,-0.003759384,-0.00069809,0.009561539,0,
00:08.0,-0.00374794,-0.00069809,0.009555817,0,
00:08.0,-0.003742218,-0.000703812,0.009561539,0,
00:08.0,-0.003742218,-0.000703812,0.009561539,0,
00:08.0,-0.003753662,-0.000692368,0.009561539,0,
00:08.1,-0.003753662,-0.000692368,0.009567261,0,
00:08.1,-0.003753662,-0.00069809,0.009567261,0,
00:08.1,-0.00374794,-0.00069809,0.009572983,0,
00:08.1,-0.00374794,-0.000692368,0.009578705,0,
00:08.1,-0.00374794,-0.000692368,0.009584427,0,
00:08.1,-0.003742218,-0.000692368,0.009590149,0,
00:08.1,-0.003736496,-0.00069809,0.009584427,0,
00:08.1,-0.00374794,-0.00069809,0.009584427,0,
00:08.1,-0.003759384,-0.00069809,0.009590149,0,
00:08.1,-0.003759384,-0.00069809,0.009595871,0,
00:08.1,-0.003753662,-0.00069809,0.009595871,0,
00:08.1,-0.00374794,-0.00069809,0.009601593,0,
00:08.1,-0.00374794,-0.00069809,0.009601593,0,
00:08.1,-0.00374794,-0.000686646,0.009607315,0,
00:08.1,-0.003742218,-0.000692368,0.009613037,0,
00:08.1,-0.003736496,-0.00069809,0.009613037,0,
00:08.1,-0.00371933,-0.000692368,0.009613037,0,
00:08.1,-0.003725052,-0.000692368,0.009618759,0,
00:08.1,-0.003730774,-0.000692368,0.009618759,0,
00:08.1,-0.003730774,-0.000692368,0.009624481,0,
00:08.1,-0.003730774,-0.000692368,0.009624481,0,
00:08.1,-0.00374794,-0.00069809,0.009630203,0,
00:08.1,-0.00374794,-0.000703812,0.009635925,0,
00:08.1,-0.003742218,-0.000686646,0.009635925,0,
00:08.1,-0.00374794,-0.000692368,0.009635925,0,
00:08.2,-0.00374794,-0.00069809,0.009641647,0,
00:08.2,-0.003736496,-0.000692368,0.009653091,0,
00:08.2,-0.003736496,-0.000686646,0.009647369,0,
00:08.2,-0.003736496,-0.000692368,0.009641647,0,
00:08.2,-0.003742218,-0.000692368,0.009647369,0,
00:08.2,-0.003759384,-0.000692368,0.009653091,0,
00:08.2,-0.003742218,-0.000692368,0.009658813,0,
00:08.2,-0.003736496,-0.000692368,0.009658813,0,
00:08.2,-0.00374794,-0.000692368,0.009664536,0,
00:08.2,-0.00374794,-0.000692368,0.009670258,0,
00:08.2,-0.003742218,-0.000686646,0.009658813,0,
00:08.2,-0.003753662,-0.000686646,0.009670258,0,
00:08.2,-0.003753662,-0.000692368,0.00967598,0,
00:08.2,-0.003736496,-0.000692368,0.00967598,0,
00:08.2,-0.003736496,-0.000692368,0.00967598,0,
00:08.2,-0.003742218,-0.00069809,0.009681702,0,
00:08.2,-0.003736496,-0.000686646,0.009681702,0,
00:08.2,-0.003725052,-0.000680923,0.009681702,0,
00:08.2,-0.003730774,-0.000686646,0.009687424,0,
00:08.2,-0.003742218,-0.000692368,0.009693146,0,
00:08.2,-0.003736496,-0.000686646,0.009693146,0,
00:08.2,-0.003725052,-0.000680923,0.009693146,0,
00:08.2,-0.003730774,-0.000680923,0.009698868,0,
00:08.2,-0.00374794,-0.000692368,0.009698868,0,
00:08.2,-0.003742218,-0.00069809,0.00970459,0,
00:08.3,-0.003736496,-0.000686646,0.00970459,0,
00:08.3,-0.003742218,-0.000686646,0.009710312,0,
00:08.3,-0.00374794,-0.000686646,0.009710312,0,
00:08.3,-0.003753662,-0.000686646,0.009716034,0,
00:08.3,-0.003742218,-0.000692368,0.009716034,0,
00:08.3,-0.003736496,-0.000686646,0.009721756,0,
00:08.3,-0.003742218,-0.000686646,0.009727478,0,
00:08.3,-0.00374794,-0.000692368,0.009721756,0,
00:08.3,-0.00374794,-0.000686646,0.009716034,0,
00:08.3,-0.003753662,-0.000692368,0.009727478,0,
00:08.3,-0.003753662,-0.00069809,0.0097332,0,
00:08.3,-0.003742218,-0.000686646,0.009738922,0,
00:08.3,-0.00371933,-0.000675201,0.009738922,0,
00:08.3,-0.003725052,-0.000680923,0.009738922,0,
00:08.3,-0.003742218,-0.000680923,0.009744644,0,
00:08.3,-0.00374794,-0.000686646,0.009738922,0,
00:08.3,-0.003736496,-0.000686646,0.009744644,0,
00:08.3,-0.003725052,-0.000680923,0.009750366,0,
00:08.3,-0.003725052,-0.000680923,0.009750366,0,
00:08.3,-0.003730774,-0.000675201,0.009756088,0,
00:08.3,-0.003730774,-0.000680923,0.009756088,0,
00:08.3,-0.003730774,-0.000680923,0.00976181,0,
00:08.3,-0.003742218,-0.000686646,0.00976181,0,
00:08.3,-0.00374794,-0.000692368,0.00976181,0,
00:08.3,-0.003742218,-0.000686646,0.00976181,0,
00:08.4,-0.003736496,-0.000686646,0.009767532,0,
00:08.4,-0.003742218,-0.000692368,0.009767532,0,
00:08.4,-0.003736496,-0.000692368,0.009767532,0,
00:08.4,-0.003725052,-0.000680923,0.009767532,0,
00:08.4,-0.003730774,-0.000680923,0.009773254,0,
00:08.4,-0.003742218,-0.000686646,0.009773254,0,
00:08.4,-0.003742218,-0.000680923,0.009778976,0,
00:08.4,-0.003742218,-0.000686646,0.009778976,0,
00:08.4,-0.003736496,-0.000692368,0.009773254,0,
00:08.4,-0.003730774,-0.000686646,0.009778976,0,
00:08.4,-0.003736496,-0.000686646,0.009790421,0,
00:08.4,-0.003730774,-0.000686646,0.009790421,0,
00:08.4,-0.003730774,-0.000686646,0.009790421,0,
00:08.4,-0.003742218,-0.000686646,0.009796143,0,
00:08.4,-0.003736496,-0.000686646,0.009796143,0,
00:08.4,-0.003730774,-0.000686646,0.009784698,0,
00:08.4,-0.003725052,-0.000680923,0.009796143,0,
00:08.4,-0.003730774,-0.000680923,0.009801865,0,
00:08.4,-0.003736496,-0.000680923,0.009801865,0,
00:08.4,-0.003730774,-0.000680923,0.009807587,0,
00:08.4,-0.003725052,-0.000686646,0.009807587,0,
00:08.4,-0.003725052,-0.000675201,0.009801865,0,
00:08.4,-0.003736496,-0.000680923,0.009801865,0,
00:08.4,-0.003742218,-0.000686646,0.009807587,0,
00:08.4,-0.003742218,-0.000686646,0.009807587,0,
00:08.5,-0.003742218,-0.000686646,0.009813309,0,
00:08.5,-0.00374794,-0.000692368,0.009813309,0,
00:08.5,-0.003736496,-0.000686646,0.009813309,0,
00:08.5,-0.003730774,-0.000686646,0.009813309,0,
00:08.5,-0.00371933,-0.000680923,0.009813309,0,
00:08.5,-0.003707886,-0.000669479,0.009813309,0,
00:08.5,-0.003707886,-0.000675201,0.009819031,0,
00:08.5,-0.003725052,-0.000680923,0.009819031,0,
00:08.5,-0.003742218,-0.000680923,0.009819031,0,
00:08.5,-0.00374794,-0.000686646,0.009824753,0,
00:08.5,-0.003730774,-0.000686646,0.009819031,0,
00:08.5,-0.003713608,-0.000680923,0.009824753,0,
00:08.5,-0.003713608,-0.000680923,0.009830475,0,
00:08.5,-0.003736496,-0.000680923,0.009830475,0,
00:08.5,-0.003736496,-0.000680923,0.009830475,0,
00:08.5,-0.003730774,-0.000680923,0.009836197,0,
00:08.5,-0.003736496,-0.000692368,0.009836197,0,
00:08.5,-0.003730774,-0.000686646,0.009830475,0,
00:08.5,-0.003730774,-0.000680923,0.009830475,0,
00:08.5,-0.003736496,-0.000680923,0.009836197,0,
00:08.5,-0.003725052,-0.000680923,0.009836197,0,
00:08.5,-0.003725052,-0.000675201,0.009836197,0,
00:08.5,-0.003725052,-0.000675201,0.009830475,0,
00:08.5,-0.003736496,-0.000680923,0.009836197,0,
00:08.5,-0.003753662,-0.000686646,0.009841919,0,
00:08.6,-0.003753662,-0.000686646,0.009847641,0,
00:08.6,-0.003736496,-0.000675201,0.009853363,0,
00:08.6,-0.003713608,-0.000675201,0.009841919,0,
00:08.6,-0.003725052,-0.000675201,0.009836197,0,
00:08.6,-0.00374794,-0.000680923,0.009836197,0,
00:08.6,-0.003742218,-0.000692368,0.009841919,0,
00:08.6,-0.00371933,-0.000686646,0.009841919,0,
00:08.6,-0.003707886,-0.000675201,0.009841919,0,
00:08.6,-0.00371933,-0.000680923,0.009841919,0,
00:08.6,-0.003730774,-0.000680923,0.009836197,0,
00:08.6,-0.003730774,-0.000680923,0.009841919,0,
00:08.6,-0.003725052,-0.000680923,0.009841919,0,
00:08.6,-0.003730774,-0.000680923,0.009841919,0,
00:08.6,-0.00374794,-0.000686646,0.009841919,0,
00:08.6,-0.003736496,-0.000680923,0.009841919,0,
00:08.6,-0.00371933,-0.000675201,0.009836197,0,
00:08.6,-0.003713608,-0.000675201,0.009841919,0,
00:08.6,-0.003707886,-0.000669479,0.009841919,0,
00:08.6,-0.003713608,-0.000669479,0.009841919,0,
00:08.6,-0.003725052,-0.000686646,0.009841919,0,
00:08.6,-0.003736496,-0.000686646,0.009841919,0,
00:08.6,-0.003730774,-0.000675201,0.009836197,0,
00:08.6,-0.003725052,-0.000675201,0.009836197,0,
00:08.6,-0.003736496,-0.000680923,0.009841919,0,
00:08.6,-0.003736496,-0.000675201,0.009841919,0,
00:08.7,-0.003725052,-0.000675201,0.009836197,0,
00:08.7,-0.003713608,-0.000675201,0.009830475,0,
00:08.7,-0.003713608,-0.000680923,0.009836197,0,
00:08.7,-0.003730774,-0.000680923,0.009836197,0,
00:08.7,-0.00374794,-0.000680923,0.009836197,0,
00:08.7,-0.003742218,-0.000680923,0.009841919,0,
00:08.7,-0.003725052,-0.000675201,0.009836197,0,
00:08.7,-0.003713608,-0.000669479,0.009824753,0,
00:08.7,-0.003725052,-0.000675201,0.009830475,0,
00:08.7,-0.003730774,-0.000680923,0.009830475,0,
00:08.7,-0.003730774,-0.000680923,0.009824753,0,
00:08.7,-0.003725052,-0.000675201,0.009830475,0,
00:08.7,-0.00371933,-0.000669479,0.009824753,0,
00:08.7,-0.003713608,-0.000669479,0.009824753,0,
00:08.7,-0.00371933,-0.000669479,0.009824753,0,
00:08.7,-0.00371933,-0.000669479,0.009824753,0,
00:08.7,-0.003713608,-0.000669479,0.009824753,0,
00:08.7,-0.003713608,-0.000669479,0.009824753,0,
00:08.7,-0.003730774,-0.000680923,0.009819031,0,
00:08.7,-0.003730774,-0.000669479,0.009819031,0,
00:08.7,-0.003730774,-0.000669479,0.009819031,0,
00:08.7,-0.00371933,-0.000669479,0.009813309,0,
00:08.7,-0.003713608,-0.000669479,0.009807587,0,
00:08.7,-0.003725052,-0.000669479,0.009807587,0,
00:08.7,-0.003742218,-0.000680923,0.009807587,0,
00:08.8,-0.003759384,-0.000680923,0.009807587,0,
00:08.8,-0.00374794,-0.000675201,0.009807587,0,
00:08.8,-0.003725052,-0.000669479,0.009807587,0,
00:08.8,-0.003713608,-0.000663757,0.009801865,0,
00:08.8,-0.003713608,-0.000663757,0.009801865,0,
00:08.8,-0.003713608,-0.000669479,0.009796143,0,
00:08.8,-0.003725052,-0.000669479,0.009790421,0,
00:08.8,-0.003725052,-0.000669479,0.009796143,0,
00:08.8,-0.003736496,-0.000669479,0.009796143,0,
00:08.8,-0.00374794,-0.000669479,0.009796143,0,
00:08.8,-0.003730774,-0.000669479,0.009790421,0,
00:08.8,-0.00371933,-0.000675201,0.009790421,0,
00:08.8,-0.003702164,-0.000669479,0.009790421,0,
00:08.8,-0.003713608,-0.000663757,0.009784698,0,
00:08.8,-0.003725052,-0.000663757,0.009778976,0,
00:08.8,-0.003730774,-0.000669479,0.009773254,0,
00:08.8,-0.003713608,-0.000669479,0.009773254,0,
00:08.8,-0.003707886,-0.000663757,0.009773254,0,
00:08.8,-0.003725052,-0.000663757,0.009773254,0,
00:08.8,-0.003736496,-0.000669479,0.009773254,0,
00:08.8,-0.003736496,-0.000675201,0.009773254,0,
00:08.8,-0.003730774,-0.000675201,0.009767532,0,
00:08.8,-0.003725052,-0.000675201,0.00976181,0,
00:08.8,-0.003713608,-0.000669479,0.00976181,0,
00:08.8,-0.003713608,-0.000669479,0.009756088,0,
00:08.9,-0.00371933,-0.000675201,0.009756088,0,
00:08.9,-0.00371933,-0.000669479,0.009756088,0,
00:08.9,-0.003730774,-0.000669479,0.009750366,0,
00:08.9,-0.003736496,-0.000675201,0.009750366,0,
00:08.9,-0.003736496,-0.000675201,0.009744644,0,
00:08.9,-0.003725052,-0.000669479,0.009744644,0,
00:08.9,-0.003713608,-0.000669479,0.009738922,0,
00:08.9,-0.003707886,-0.000663757,0.009744644,0,
00:08.9,-0.003713608,-0.000669479,0.009738922,0,
00:08.9,-0.003730774,-0.000669479,0.0097332,0,
00:08.9,-0.003742218,-0.000675201,0.009727478,0,
00:08.9,-0.003725052,-0.000675201,0.009727478,0,
00:08.9,-0.003713608,-0.000669479,0.0097332,0,
00:08.9,-0.003713608,-0.000669479,0.009727478,0,
00:08.9,-0.003713608,-0.000669479,0.009721756,0,
00:08.9,-0.00371933,-0.000669479,0.009721756,0,
00:08.9,-0.00371933,-0.000669479,0.009716034,0,
00:08.9,-0.003713608,-0.000675201,0.009716034,0,
00:08.9,-0.003713608,-0.000669479,0.009710312,0,
00:08.9,-0.00371933,-0.000669479,0.009710312,0,
00:08.9,-0.003713608,-0.000663757,0.009710312,0,
00:08.9,-0.00371933,-0.000669479,0.00970459,0,
00:08.9,-0.00371933,-0.000669479,0.00970459,0,
00:08.9,-0.00371933,-0.000669479,0.00970459,0,
00:08.9,-0.003713608,-0.000663757,0.009698868,0,
00:09.0,-0.00371933,-0.000675201,0.009698868,0,
00:09.0,-0.00371933,-0.000675201,0.009693146,0,
00:09.0,-0.00371933,-0.000669479,0.009687424,0,
00:09.0,-0.003713608,-0.000669479,0.009681702,0,
00:09.0,-0.003707886,-0.000669479,0.009681702,0,
00:09.0,-0.003707886,-0.000663757,0.00967598,0,
00:09.0,-0.003713608,-0.000675201,0.00967598,0,
00:09.0,-0.003725052,-0.000680923,0.00967598,0,
00:09.0,-0.003725052,-0.000669479,0.009670258,0,
00:09.0,-0.003713608,-0.000675201,0.009664536,0,
00:09.0,-0.003707886,-0.000669479,0.009664536,0,
00:09.0,-0.003696442,-0.000658035,0.009658813,0,
00:00:09,-0.003696442,-0.000658035,0.009653091,0,
00:09.0,-0.003713608,-0.000663757,0.009653091,0,
00:09.0,-0.003725052,-0.000669479,0.009647369,0,
00:09.0,-0.003725052,-0.000669479,0.009647369,0,
00:09.0,-0.00371933,-0.000675201,0.009641647,0,
00:09.0,-0.003713608,-0.000669479,0.009635925,0,
00:09.0,-0.003707886,-0.000669479,0.009635925,0,
00:09.0,-0.003713608,-0.000669479,0.009635925,0,
00:09.0,-0.00371933,-0.000669479,0.009630203,0,
00:09.0,-0.003707886,-0.000663757,0.009630203,0,
00:09.0,-0.003702164,-0.000663757,0.009624481,0,
00:09.0,-0.003713608,-0.000669479,0.009624481,0,
00:09.0,-0.003730774,-0.000675201,0.009613037,0,
00:09.1,-0.003707886,-0.000669479,0.009607315,0,
00:09.1,-0.003684998,-0.000663757,0.009607315,0,
00:09.1,-0.00369072,-0.000663757,0.009601593,0,
00:09.1,-0.003713608,-0.000669479,0.009595871,0,
00:09.1,-0.003713608,-0.000663757,0.009595871,0,
00:09.1,-0.003707886,-0.000663757,0.009595871,0,
00:09.1,-0.003707886,-0.000669479,0.009590149,0,
00:09.1,-0.003713608,-0.000669479,0.009584427,0,
00:09.1,-0.003707886,-0.000663757,0.009578705,0,
00:09.1,-0.003696442,-0.000663757,0.009578705,0,
00:09.1,-0.003702164,-0.000669479,0.009578705,0,
00:09.1,-0.003702164,-0.000669479,0.009572983,0,
00:09.1,-0.003707886,-0.000663757,0.009567261,0,
00:09.1,-0.003713608,-0.000669479,0.009567261,0,
00:09.1,-0.003707886,-0.000675201,0.009561539,0,
00:09.1,-0.003696442,-0.000658035,0.009561539,0,
00:09.1,-0.003696442,-0.000658035,0.009561539,0,
00:09.1,-0.003696442,-0.000663757,0.009555817,0,
00:09.1,-0.003713608,-0.000663757,0.009550095,0,
00:09.1,-0.003713608,-0.000663757,0.009544373,0,
00:09.1,-0.003707886,-0.000663757,0.009544373,0,
00:09.1,-0.00371933,-0.000669479,0.009538651,0,
00:09.1,-0.003725052,-0.000669479,0.009538651,0,
00:09.1,-0.003713608,-0.000669479,0.009538651,0,
00:09.1,-0.00371933,-0.000663757,0.009532928,0,
00:09.2,-0.003702164,-0.000663757,0.009532928,0,
00:09.2,-0.003684998,-0.000663757,0.009521484,0,
00:09.2,-0.003679276,-0.000658035,0.009521484,0,
00:09.2,-0.003684998,-0.000658035,0.009521484,0,
00:09.2,-0.003696442,-0.000663757,0.00951004,0,
00:09.2,-0.003707886,-0.000663757,0.009504318,0,
00:09.2,-0.003707886,-0.000669479,0.009504318,0,
00:09.2,-0.003713608,-0.000669479,0.009504318,0,
00:09.2,-0.003713608,-0.000663757,0.009504318,0,
00:09.2,-0.003707886,-0.000658035,0.009504318,0,
00:09.2,-0.003707886,-0.000663757,0.009504318,0,
00:09.2,-0.003702164,-0.000663757,0.009498596,0,
00:09.2,-0.00369072,-0.000663757,0.009492874,0,
00:09.2,-0.00369072,-0.000658035,0.009487152,0,
00:09.2,-0.003702164,-0.000658035,0.00948143,0,
00:09.2,-0.003707886,-0.000663757,0.00948143,0,
00:09.2,-0.003707886,-0.000663757,0.009475708,0,
00:09.2,-0.003702164,-0.000663757,0.009469986,0,
00:09.2,-0.003702164,-0.000663757,0.009464264,0,
00:09.2,-0.003707886,-0.000663757,0.009469986,0,
00:09.2,-0.003707886,-0.000663757,0.009464264,0,
00:09.2,-0.003696442,-0.000658035,0.009464264,0,
00:09.2,-0.00369072,-0.000658035,0.009458542,0,
00:09.2,-0.003702164,-0.000658035,0.00945282,0,
00:09.2,-0.003713608,-0.000658035,0.009447098,0,
00:09.3,-0.003696442,-0.000663757,0.009447098,0,
00:09.3,-0.003696442,-0.000663757,0.009441376,0,
00:09.3,-0.003702164,-0.000652313,0.009435654,0,
00:09.3,-0.003702164,-0.000658035,0.009429932,0,
00:09.3,-0.00369072,-0.000658035,0.009429932,0,
00:09.3,-0.003702164,-0.000663757,0.009435654,0,
00:09.3,-0.003702164,-0.000663757,0.009435654,0,
00:09.3,-0.003696442,-0.000652313,0.009429932,0,
00:09.3,-0.003696442,-0.000663757,0.009429932,0,
00:09.3,-0.003702164,-0.000663757,0.009418488,0,
00:09.3,-0.003696442,-0.000658035,0.009418488,0,
00:09.3,-0.003696442,-0.000658035,0.009412766,0,
00:09.3,-0.003702164,-0.000658035,0.009412766,0,
00:09.3,-0.003707886,-0.000658035,0.009412766,0,
00:09.3,-0.003702164,-0.000658035,0.009407043,0,
00:09.3,-0.003696442,-0.000652313,0.009407043,0,
00:09.3,-0.003684998,-0.000652313,0.009401321,0,
00:09.3,-0.003684998,-0.000652313,0.009395599,0,
00:09.3,-0.00369072,-0.000658035,0.009389877,0,
00:09.3,-0.003702164,-0.000658035,0.009389877,0,
00:09.3,-0.003702164,-0.000658035,0.009384155,0,
00:09.3,-0.003707886,-0.000658035,0.009378433,0,
00:09.3,-0.003702164,-0.000658035,0.009378433,0,
00:09.3,-0.003696442,-0.000658035,0.009372711,0,
00:09.3,-0.00369072,-0.000652313,0.009366989,0,
00:09.4,-0.00369072,-0.000652313,0.009366989,0,
00:09.4,-0.00369072,-0.000658035,0.009366989,0,
00:09.4,-0.00369072,-0.000658035,0.009361267,0,
00:09.4,-0.003702164,-0.000658035,0.009361267,0,
00:09.4,-0.003707886,-0.000658035,0.009355545,0,
00:09.4,-0.003696442,-0.000658035,0.009355545,0,
00:09.4,-0.003679276,-0.000658035,0.009349823,0,
00:09.4,-0.003684998,-0.000658035,0.009349823,0,
00:09.4,-0.00369072,-0.000658035,0.009344101,0,
00:09.4,-0.00369072,-0.000658035,0.009338379,0,
00:09.4,-0.00369072,-0.000663757,0.009338379,0,
00:09.4,-0.003696442,-0.000663757,0.009332657,0,
00:09.4,-0.003696442,-0.000658035,0.009332657,0,
00:09.4,-0.003702164,-0.000658035,0.009326935,0,
00:09.4,-0.003696442,-0.000663757,0.009321213,0,
00:09.4,-0.00369072,-0.000663757,0.009321213,0,
00:09.4,-0.003696442,-0.000646591,0.009315491,0,
00:09.4,-0.003696442,-0.000658035,0.009315491,0,
00:09.4,-0.00369072,-0.000658035,0.009309769,0,
00:09.4,-0.00369072,-0.000652313,0.009304047,0,
00:09.4,-0.00369072,-0.000652313,0.009304047,0,
00:09.4,-0.003684998,-0.000652313,0.009309769,0,
00:09.4,-0.003684998,-0.000658035,0.009304047,0,
00:09.4,-0.00369072,-0.000658035,0.009292603,0,
00:09.4,-0.00369072,-0.000652313,0.009292603,0,
00:09.5,-0.003696442,-0.000652313,0.009292603,0,
00:09.5,-0.003707886,-0.000658035,0.00928688,0,
00:09.5,-0.00371933,-0.000663757,0.00928688,0,
00:09.5,-0.003713608,-0.000663757,0.00928688,0,
00:09.5,-0.003696442,-0.000663757,0.00928688,0,
00:09.5,-0.003679276,-0.000658035,0.009281158,0,
00:09.5,-0.003679276,-0.000652313,0.009275436,0,
00:09.5,-0.003673553,-0.000652313,0.009275436,0,
00:09.5,-0.003679276,-0.000646591,0.009269714,0,
00:09.5,-0.003684998,-0.000652313,0.009263992,0,
00:09.5,-0.003673553,-0.000652313,0.009263992,0,
00:09.5,-0.003684998,-0.000652313,0.00925827,0,
00:09.5,-0.003696442,-0.000658035,0.00925827,0,
00:09.5,-0.003696442,-0.000658035,0.00925827,0,
00:09.5,-0.003696442,-0.000658035,0.00925827,0,
00:09.5,-0.003696442,-0.000658035,0.009252548,0,
00:09.5,-0.00369072,-0.000658035,0.009246826,0,
00:09.5,-0.003684998,-0.000663757,0.009246826,0,
00:09.5,-0.00369072,-0.000658035,0.009241104,0,
00:09.5,-0.003702164,-0.000658035,0.009241104,0,
00:09.5,-0.00369072,-0.000658035,0.009241104,0,
00:09.5,-0.003679276,-0.000658035,0.009241104,0,
00:09.5,-0.003667831,-0.000652313,0.009241104,0,
00:09.5,-0.003667831,-0.000658035,0.009241104,0,
00:09.5,-0.003679276,-0.000658035,0.00922966,0,
00:09.6,-0.00369072,-0.000658035,0.00922966,0,
00:09.6,-0.003679276,-0.000658035,0.009223938,0,
00:09.6,-0.003684998,-0.000652313,0.009223938,0,
00:09.6,-0.003702164,-0.000652313,0.009223938,0,
00:09.6,-0.003696442,-0.000652313,0.009223938,0,
00:09.6,-0.00369072,-0.000658035,0.009212494,0,
00:09.6,-0.003679276,-0.000652313,0.009206772,0,
00:09.6,-0.003673553,-0.000658035,0.009212494,0,
00:09.6,-0.003673553,-0.000652313,0.009212494,0,
00:09.6,-0.003673553,-0.000652313,0.009212494,0,
00:09.6,-0.003696442,-0.000658035,0.009206772,0,
00:09.6,-0.003702164,-0.000663757,0.009206772,0,
00:09.6,-0.00369072,-0.000658035,0.00920105,0,
00:09.6,-0.003673553,-0.000652313,0.00920105,0,
00:09.6,-0.003673553,-0.000652313,0.00920105,0,
00:09.6,-0.00369072,-0.000658035,0.00920105,0,
00:09.6,-0.003696442,-0.000663757,0.009189606,0,
00:09.6,-0.00369072,-0.000658035,0.009183884,0,
00:09.6,-0.003679276,-0.000658035,0.009183884,0,
00:09.6,-0.003667831,-0.000652313,0.009183884,0,
00:09.6,-0.003673553,-0.000652313,0.009183884,0,
00:09.6,-0.003684998,-0.000663757,0.009183884,0,
00:09.6,-0.003684998,-0.000658035,0.009178162,0,
00:09.6,-0.003684998,-0.000658035,0.009178162,0,
00:09.6,-0.003684998,-0.000658035,0.00917244,0,
00:09.7,-0.003673553,-0.000658035,0.00917244,0,
00:09.7,-0.003673553,-0.000646591,0.00917244,0,
00:09.7,-0.003679276,-0.000652313,0.009166718,0,
00:09.7,-0.003667831,-0.000663757,0.009166718,0,
00:09.7,-0.003673553,-0.000658035,0.009160995,0,
00:09.7,-0.003684998,-0.000658035,0.009155273,0,
00:09.7,-0.003696442,-0.000658035,0.009155273,0,
00:09.7,-0.00369072,-0.000658035,0.009155273,0,
00:09.7,-0.003673553,-0.000658035,0.009155273,0,
00:09.7,-0.003673553,-0.000663757,0.009149551,0,
00:09.7,-0.003667831,-0.000663757,0.009149551,0,
00:09.7,-0.003662109,-0.000663757,0.009149551,0,
00:09.7,-0.003667831,-0.000658035,0.009155273,0,
00:09.7,-0.003679276,-0.000658035,0.009149551,0,
00:09.7,-0.003684998,-0.000658035,0.009138107,0,
00:09.7,-0.00369072,-0.000658035,0.009138107,0,
00:09.7,-0.00369072,-0.000663757,0.009138107,0,
00:09.7,-0.003684998,-0.000658035,0.009138107,0,
00:09.7,-0.003673553,-0.000652313,0.009138107,0,
00:09.7,-0.003662109,-0.000658035,0.009132385,0,
00:09.7,-0.003656387,-0.000652313,0.009132385,0,
00:09.7,-0.003673553,-0.000658035,0.009132385,0,
00:09.7,-0.003696442,-0.000663757,0.009126663,0,
00:09.7,-0.003702164,-0.000669479,0.009126663,0,
00:09.7,-0.003667831,-0.000663757,0.009126663,0,
00:09.8,-0.003644943,-0.000646591,0.009120941,0,
00:09.8,-0.003656387,-0.000652313,0.009120941,0,
00:09.8,-0.003679276,-0.000652313,0.009115219,0,
00:09.8,-0.003696442,-0.000663757,0.009120941,0,
00:09.8,-0.00369072,-0.000663757,0.009120941,0,
00:09.8,-0.003667831,-0.000658035,0.009120941,0,
00:09.8,-0.003656387,-0.000652313,0.009115219,0,
00:09.8,-0.003662109,-0.000646591,0.009109497,0,
00:09.8,-0.003662109,-0.000652313,0.009109497,0,
00:09.8,-0.003656387,-0.000646591,0.009109497,0,
00:09.8,-0.003662109,-0.000658035,0.009109497,0,
00:09.8,-0.003667831,-0.000663757,0.009109497,0,
00:09.8,-0.003679276,-0.000658035,0.009103775,0,
00:09.8,-0.003679276,-0.000658035,0.009103775,0,
00:09.8,-0.003679276,-0.000658035,0.009103775,0,
00:09.8,-0.003662109,-0.000652313,0.009098053,0,
00:09.8,-0.003650665,-0.000652313,0.009098053,0,
00:09.8,-0.003656387,-0.000652313,0.009098053,0,
00:09.8,-0.003656387,-0.000652313,0.009098053,0,
00:09.8,-0.003662109,-0.000652313,0.009103775,0,
00:09.8,-0.003667831,-0.000658035,0.009103775,0,
00:09.8,-0.003679276,-0.000663757,0.009092331,0,
00:09.8,-0.003679276,-0.000663757,0.009092331,0,
00:09.8,-0.003673553,-0.000658035,0.009086609,0,
00:09.8,-0.003662109,-0.000658035,0.009086609,0,
00:09.9,-0.003656387,-0.000658035,0.009086609,0,
00:09.9,-0.003667831,-0.000658035,0.009086609,0,
00:09.9,-0.003679276,-0.000658035,0.009080887,0,
00:09.9,-0.003679276,-0.000658035,0.009080887,0,
00:09.9,-0.003662109,-0.000663757,0.009080887,0,
00:09.9,-0.003650665,-0.000658035,0.009075165,0,
00:09.9,-0.003656387,-0.000658035,0.009075165,0,
00:09.9,-0.003662109,-0.000652313,0.009075165,0,
