Elapsed_Time,EMG1,EMG2,EMG3,BioRadio Event,Unnamed: 5
00:00:00,-0.004686356,-0.000326157,0.008771896,0,
00:00.0,-0.004680634,-0.00030899,0.00878334,0,
00:00.0,-0.004646301,-0.000297546,0.008771896,0,
00:00.0,-0.004657745,-0.00030899,0.008749008,0,
00:00.0,-0.004652023,-0.000320435,0.00878334,0,
00:00.0,-0.004640579,-0.000320435,0.008777618,0,
00:00.0,-0.004669189,-0.000314713,0.00875473,0,
00:00.0,-0.004663467,-0.000320435,0.00878334,0,
00:00.0,-0.004663467,-0.000331879,0.008777618,0,
00:00.0,-0.004686356,-0.000314713,0.00878334,0,
00:00.0,-0.004692078,-0.000303268,0.00878334,0,
00:00.0,-0.004674911,-0.000303268,0.00875473,0,
00:00.0,-0.004657745,-0.00030899,0.008749008,0,
00:00.1,-0.004657745,-0.000314713,0.008766174,0,
00:00.1,-0.004674911,-0.000314713,0.008766174,0,
00:00.1,-0.004663467,-0.000320435,0.008766174,0,
00:00.1,-0.004640579,-0.000326157,0.00878334,0,
00:00.1,-0.004652023,-0.000314713,0.008771896,0,
00:00.1,-0.004674911,-0.00030899,0.008771896,0,
00:00.1,-0.004652023,-0.000320435,0.008771896,0,
00:00.1,-0.004646301,-0.000326157,0.00875473,0,
00:00.1,-0.004652023,-0.000320435,0.008760452,0,
00:00.1,-0.004686356,-0.000320435,0.00878334,0,
00:00.1,-0.004674911,-0.00030899,0.008771896,0,
00:00.1,-0.004657745,-0.000314713,0.008731842,0,
00:00.1,-0.004669189,-0.00030899,0.00875473,0,
00:00.1,-0.004680634,-0.000303268,0.00878334,0,
00:00.1,-0.004657745,-0.000320435,0.008789063,0,
00:00.1,-0.004646301,-0.000331879,0.008789063,0,
00:00.1,-0.004669189,-0.000326157,0.00875473,0,
00:00.1,-0.004674911,-0.00030899,0.008743286,0,
00:00.1,-0.004674911,-0.000320435,0.008760452,0,
00:00.1,-0.004686356,-0.000320435,0.008760452,0,
00:00.1,-0.004669189,-0.000314713,0.00875473,0,
00:00.1,-0.004646301,-0.000303268,0.008760452,0,
00:00.1,-0.004646301,-0.000303268,0.008749008,0,
00:00.1,-0.004674911,-0.00030899,0.008737564,0,
00:00.1,-0.004663467,-0.000320435,0.008743286,0,
00:00.2,-0.004646301,-0.000337601,0.008766174,0,
00:00.2,-0.004663467,-0.000314713,0.008766174,0,
00:00.2,-0.004674911,-0.000303268,0.008777618,0,
00:00.2,-0.004663467,-0.000326157,0.008771896,0,
00:00.2,-0.004646301,-0.000331879,0.008731842,0,
00:00.2,-0.004640579,-0.000326157,0.008737564,0,
00:00.2,-0.004652023,-0.000314713,0.008760452,0,
00:00.2,-0.004657745,-0.000320435,0.008760452,0,
00:00.2,-0.004663467,-0.000331879,0.008760452,0,
00:00.2,-0.004674911,-0.000337601,0.008760452,0,
00:00.2,-0.004669189,-0.000326157,0.008760452,0,
00:00.2,-0.004680634,-0.000331879,0.008771896,0,
00:00.2,-0.004657745,-0.000326157,0.008760452,0,
00:00.2,-0.004629135,-0.000303268,0.008743286,0,
00:00.2,-0.004634857,-0.000314713,0.008760452,0,
00:00.2,-0.004652023,-0.000326157,0.008766174,0,
00:00.2,-0.004669189,-0.000326157,0.00875473,0,
00:00.2,-0.004657745,-0.000320435,0.008749008,0,
00:00.2,-0.004663467,-0.000326157,0.008760452,0,
00:00.2,-0.004657745,-0.000326157,0.008749008,0,
00:00.2,-0.004657745,-0.000326157,0.00875473,0,
00:00.2,-0.004663467,-0.000331879,0.00872612,0,
00:00.2,-0.004669189,-0.000320435,0.008720398,0,
00:00.2,-0.004663467,-0.00030899,0.008731842,0,
00:00.2,-0.004680634,-0.000320435,0.008720398,0,
00:00.3,-0.004663467,-0.000331879,0.008760452,0,
00:00.3,-0.004657745,-0.000320435,0.008771896,0,
00:00.3,-0.004652023,-0.000326157,0.008743286,0,
00:00.3,-0.004663467,-0.000337601,0.00875473,0,
00:00.3,-0.004680634,-0.000303268,0.008749008,0,
00:00.3,-0.004674911,-0.000320435,0.008737564,0,
00:00.3,-0.004652023,-0.000337601,0.008749008,0,
00:00.3,-0.004646301,-0.000320435,0.008743286,0,
00:00.3,-0.004674911,-0.000326157,0.008743286,0,
00:00.3,-0.004657745,-0.000320435,0.00872612,0,
00:00.3,-0.004652023,-0.000326157,0.00875473,0,
00:00.3,-0.004640579,-0.000326157,0.008737564,0,
00:00.3,-0.004623413,-0.000337601,0.00875473,0,
00:00.3,-0.004634857,-0.000331879,0.008731842,0,
00:00.3,-0.004669189,-0.000326157,0.008720398,0,
00:00.3,-0.004663467,-0.000326157,0.00875473,0,
00:00.3,-0.004657745,-0.000326157,0.008737564,0,
00:00.3,-0.004657745,-0.000314713,0.008731842,0,
00:00.3,-0.004657745,-0.000337601,0.008737564,0,
00:00.3,-0.004640579,-0.000337601,0.008720398,0,
00:00.3,-0.004657745,-0.000320435,0.00872612,0,
00:00.3,-0.004663467,-0.000320435,0.008731842,0,
00:00.3,-0.004663467,-0.000326157,0.008749008,0,
00:00.3,-0.004652023,-0.000337601,0.008743286,0,
00:00.3,-0.004663467,-0.000326157,0.008743286,0,
00:00.4,-0.004674911,-0.000314713,0.008749008,0,
00:00.4,-0.004674911,-0.000331879,0.008731842,0,
00:00.4,-0.004657745,-0.000326157,0.008714676,0,
00:00.4,-0.004663467,-0.000337601,0.008703232,0,
00:00.4,-0.004663467,-0.000343323,0.008749008,0,
00:00.4,-0.004686356,-0.000343323,0.008749008,0,
00:00.4,-0.004674911,-0.000314713,0.008703232,0,
00:00.4,-0.004652023,-0.000314713,0.008720398,0,
00:00.4,-0.004617691,-0.000314713,0.008737564,0,
00:00.4,-0.004629135,-0.000320435,0.008737564,0,
00:00.4,-0.004646301,-0.000343323,0.008737564,0,
00:00.4,-0.004652023,-0.000343323,0.008714676,0,
00:00.4,-0.004652023,-0.000331879,0.00872612,0,
00:00.4,-0.004663467,-0.000326157,0.008720398,0,
00:00.4,-0.004640579,-0.000331879,0.008714676,0,
00:00.4,-0.004634857,-0.000331879,0.00872612,0,
00:00.4,-0.004657745,-0.000331879,0.008749008,0,
00:00.4,-0.004652023,-0.000326157,0.008743286,0,
00:00.4,-0.004657745,-0.000326157,0.008720398,0,
00:00.4,-0.004663467,-0.000331879,0.008714676,0,
00:00.4,-0.004646301,-0.000343323,0.008720398,0,
00:00.4,-0.004669189,-0.000326157,0.008720398,0,
00:00.4,-0.004669189,-0.000297546,0.008737564,0,
00:00.4,-0.004646301,-0.000314713,0.008737564,0,
00:00.4,-0.004652023,-0.000331879,0.008743286,0,
00:00.5,-0.004680634,-0.000354767,0.008714676,0,
00:00.5,-0.004686356,-0.000349045,0.008708954,0,
00:00.5,-0.004674911,-0.000331879,0.008703232,0,
00:00.5,-0.004657745,-0.000320435,0.008703232,0,
00:00.5,-0.004646301,-0.000303268,0.008714676,0,
00:00.5,-0.004640579,-0.000326157,0.008749008,0,
00:00.5,-0.004617691,-0.000337601,0.008737564,0,
00:00.5,-0.004640579,-0.000326157,0.00872612,0,
00:00.5,-0.004669189,-0.000343323,0.008737564,0,
00:00.5,-0.004652023,-0.000343323,0.008686066,0,
00:00.5,-0.004652023,-0.000326157,0.008720398,0,
00:00.5,-0.004634857,-0.000320435,0.008737564,0,
00:00.5,-0.004652023,-0.000320435,0.008714676,0,
00:00.5,-0.004634857,-0.000303268,0.008714676,0,
00:00.5,-0.004640579,-0.000314713,0.008708954,0,
00:00.5,-0.004629135,-0.000337601,0.008708954,0,
00:00.5,-0.004652023,-0.000343323,0.008714676,0,
00:00.5,-0.004669189,-0.000314713,0.008708954,0,
00:00.5,-0.004674911,-0.000303268,0.008691788,0,
00:00.5,-0.004640579,-0.000320435,0.008691788,0,
00:00.5,-0.004629135,-0.000331879,0.008714676,0,
00:00.5,-0.004640579,-0.000331879,0.008731842,0,
00:00.5,-0.004657745,-0.000326157,0.008708954,0,
00:00.5,-0.004669189,-0.000326157,0.008720398,0,
00:00.5,-0.004657745,-0.000326157,0.008720398,0,
00:00.6,-0.004657745,-0.000354767,0.00872612,0,
00:00.6,-0.004692078,-0.000331879,0.008703232,0,
00:00.6,-0.004680634,-0.000303268,0.008691788,0,
00:00.6,-0.004640579,-0.000303268,0.008686066,0,
00:00.6,-0.004600525,-0.000297546,0.008708954,0,
00:00.6,-0.004611969,-0.000320435,0.008731842,0,
00:00.6,-0.004623413,-0.000337601,0.008720398,0,
00:00.6,-0.004657745,-0.000326157,0.00869751,0,
00:00.6,-0.004680634,-0.000320435,0.008703232,0,
00:00.6,-0.004669189,-0.000314713,0.008680344,0,
00:00.6,-0.004657745,-0.000331879,0.008674622,0,
00:00.6,-0.004629135,-0.00030899,0.008708954,0,
00:00.6,-0.004611969,-0.000314713,0.008714676,0,
00:00.6,-0.004629135,-0.000326157,0.008708954,0,
00:00.6,-0.004669189,-0.000331879,0.00869751,0,
00:00.6,-0.004663467,-0.000331879,0.008714676,0,
00:00.6,-0.004646301,-0.000303268,0.008708954,0,
00:00.6,-0.004646301,-0.000314713,0.00869751,0,
00:00.6,-0.004634857,-0.000314713,0.00869751,0,
00:00.6,-0.004646301,-0.00030899,0.008686066,0,
00:00.6,-0.004657745,-0.000291824,0.008686066,0,
00:00.6,-0.004634857,-0.000286102,0.008686066,0,
00:00.6,-0.004640579,-0.000320435,0.008708954,0,
00:00.6,-0.004646301,-0.000337601,0.008714676,0,
00:00.6,-0.004657745,-0.000326157,0.008686066,0,
00:00.7,-0.004652023,-0.000320435,0.008703232,0,
00:00.7,-0.004646301,-0.000320435,0.008714676,0,
00:00.7,-0.004663467,-0.000314713,0.008680344,0,
00:00.7,-0.004640579,-0.00030899,0.008691788,0,
00:00.7,-0.004634857,-0.000303268,0.00869751,0,
00:00.7,-0.004623413,-0.000320435,0.008674622,0,
00:00.7,-0.004646301,-0.000326157,0.008686066,0,
00:00.7,-0.004663467,-0.000326157,0.00869751,0,
00:00.7,-0.004669189,-0.000314713,0.008680344,0,
00:00.7,-0.004646301,-0.00030899,0.008680344,0,
00:00.7,-0.004623413,-0.00030899,0.008686066,0,
00:00.7,-0.004634857,-0.000331879,0.00869751,0,
00:00.7,-0.004629135,-0.000320435,0.00869751,0,
00:00.7,-0.004640579,-0.000314713,0.008680344,0,
00:00.7,-0.004652023,-0.00030899,0.008663177,0,
00:00.7,-0.004640579,-0.00030899,0.008703232,0,
00:00.7,-0.004640579,-0.00030899,0.008663177,0,
00:00.7,-0.004640579,-0.000303268,0.008663177,0,
00:00.7,-0.004640579,-0.000303268,0.00869751,0,
00:00.7,-0.004629135,-0.000320435,0.008691788,0,
00:00.7,-0.004629135,-0.000320435,0.008674622,0,
00:00.7,-0.004652023,-0.000314713,0.008691788,0,
00:00.7,-0.004652023,-0.000303268,0.008714676,0,
00:00.7,-0.004663467,-0.000303268,0.008703232,0,
00:00.7,-0.004652023,-0.000314713,0.0086689,0,
00:00.8,-0.004617691,-0.000314713,0.008680344,0,
00:00.8,-0.004611969,-0.000274658,0.008674622,0,
00:00.8,-0.004629135,-0.000286102,0.008686066,0,
00:00.8,-0.004623413,-0.000331879,0.0086689,0,
00:00.8,-0.004623413,-0.000326157,0.008663177,0,
00:00.8,-0.004646301,-0.000337601,0.008651733,0,
00:00.8,-0.004646301,-0.000314713,0.0086689,0,
00:00.8,-0.004634857,-0.000297546,0.008686066,0,
00:00.8,-0.004629135,-0.00030899,0.00869751,0,
00:00.8,-0.004646301,-0.000320435,0.008686066,0,
00:00.8,-0.004657745,-0.000314713,0.008686066,0,
00:00.8,-0.004663467,-0.00030899,0.008657455,0,
00:00.8,-0.004634857,-0.000286102,0.0086689,0,
00:00.8,-0.004623413,-0.00030899,0.008646011,0,
00:00.8,-0.004623413,-0.000331879,0.008686066,0,
00:00.8,-0.004634857,-0.000331879,0.00869751,0,
00:00.8,-0.004657745,-0.000320435,0.0086689,0,
00:00.8,-0.004669189,-0.000286102,0.008680344,0,
00:00.8,-0.004634857,-0.000291824,0.008680344,0,
00:00.8,-0.004617691,-0.00030899,0.008674622,0,
00:00.8,-0.004606247,-0.000303268,0.008680344,0,
00:00.8,-0.004634857,-0.00030899,0.008657455,0,
00:00.8,-0.004657745,-0.000320435,0.008686066,0,
00:00.8,-0.004657745,-0.000297546,0.0086689,0,
00:00.8,-0.004657745,-0.000297546,0.008663177,0,
00:00.9,-0.004629135,-0.000314713,0.0086689,0,
00:00.9,-0.004594803,-0.000297546,0.0086689,0,
00:00.9,-0.004577637,-0.000303268,0.008651733,0,
00:00.9,-0.004623413,-0.000297546,0.008646011,0,
00:00.9,-0.004652023,-0.000268936,0.0086689,0,
00:00.9,-0.004646301,-0.000320435,0.008657455,0,
00:00.9,-0.004646301,-0.000326157,0.0086689,0,
00:00.9,-0.004652023,-0.000320435,0.008708954,0,
00:00.9,-0.004663467,-0.00030899,0.0086689,0,
00:00.9,-0.004663467,-0.000303268,0.008646011,0,
00:00.9,-0.004646301,-0.000303268,0.008640289,0,
00:00.9,-0.004634857,-0.000297546,0.008634567,0,
00:00.9,-0.004600525,-0.000303268,0.008646011,0,
00:00.9,-0.004589081,-0.00030899,0.008646011,0,
00:00.9,-0.004617691,-0.000314713,0.008674622,0,
00:00.9,-0.004657745,-0.000314713,0.008680344,0,
00:00.9,-0.004657745,-0.000297546,0.008657455,0,
00:00.9,-0.004611969,-0.00030899,0.008674622,0,
00:00.9,-0.004600525,-0.000314713,0.008628845,0,
00:00.9,-0.004646301,-0.000320435,0.008600235,0,
00:00.9,-0.004640579,-0.00030899,0.008646011,0,
00:00.9,-0.004623413,-0.000303268,0.008703232,0,
00:00.9,-0.004617691,-0.00030899,0.0086689,0,
00:00.9,-0.004623413,-0.000303268,0.0086689,0,
00:00.9,-0.004611969,-0.000303268,0.008663177,0,
00:01.0,-0.004623413,-0.000314713,0.008646011,0,
00:01.0,-0.004652023,-0.000326157,0.008651733,0,
00:01.0,-0.004652023,-0.00030899,0.008657455,0,
00:01.0,-0.004657745,-0.000297546,0.008640289,0,
00:01.0,-0.004640579,-0.000291824,0.008663177,0,
00:01.0,-0.004611969,-0.000286102,0.008663177,0,
00:01.0,-0.004606247,-0.000320435,0.008628845,0,
00:01.0,-0.004629135,-0.000331879,0.008628845,0,
00:01.0,-0.004634857,-0.000314713,0.008646011,0,
00:01.0,-0.004652023,-0.00030899,0.008623123,0,
00:01.0,-0.004634857,-0.00030899,0.008623123,0,
00:01.0,-0.004617691,-0.000314713,0.0086689,0,
00:00:01,-0.004606247,-0.000303268,0.008691788,0,
00:01.0,-0.004617691,-0.000303268,0.008651733,0,
00:01.0,-0.004629135,-0.000314713,0.008634567,0,
00:01.0,-0.004617691,-0.000320435,0.008646011,0,
00:01.0,-0.004623413,-0.000326157,0.008634567,0,
00:01.0,-0.004640579,-0.000297546,0.008651733,0,
00:01.0,-0.004634857,-0.000303268,0.008657455,0,
00:01.0,-0.004634857,-0.000314713,0.008657455,0,
00:01.0,-0.004640579,-0.000326157,0.008628845,0,
00:01.0,-0.004657745,-0.000320435,0.008634567,0,
00:01.0,-0.004640579,-0.000314713,0.008646011,0,
00:01.0,-0.004617691,-0.00030899,0.008634567,0,
00:01.0,-0.004623413,-0.00030899,0.008617401,0,
00:01.1,-0.004623413,-0.000314713,0.008634567,0,
00:01.1,-0.004606247,-0.000297546,0.008657455,0,
00:01.1,-0.004617691,-0.000303268,0.008628845,0,
00:01.1,-0.004611969,-0.000320435,0.008623123,0,
00:01.1,-0.004623413,-0.000331879,0.008646011,0,
00:01.1,-0.004640579,-0.000331879,0.008634567,0,
00:01.1,-0.004646301,-0.000297546,0.008628845,0,
00:01.1,-0.004629135,-0.000297546,0.008617401,0,
00:01.1,-0.004606247,-0.000303268,0.008617401,0,
00:01.1,-0.004600525,-0.00030899,0.008628845,0,
00:01.1,-0.004594803,-0.000314713,0.008634567,0,
00:01.1,-0.004623413,-0.000331879,0.008651733,0,
00:01.1,-0.004617691,-0.000314713,0.008628845,0,
00:01.1,-0.004623413,-0.000314713,0.008600235,0,
00:01.1,-0.004646301,-0.000326157,0.008634567,0,
00:01.1,-0.004652023,-0.000320435,0.008663177,0,
00:01.1,-0.004629135,-0.000303268,0.008640289,0,
00:01.1,-0.004640579,-0.000297546,0.008628845,0,
00:01.1,-0.004606247,-0.000297546,0.008611679,0,
00:01.1,-0.004600525,-0.000314713,0.008617401,0,
00:01.1,-0.004629135,-0.00030899,0.008628845,0,
00:01.1,-0.004657745,-0.000314713,0.008623123,0,
00:01.1,-0.004652023,-0.000314713,0.008611679,0,
00:01.1,-0.004606247,-0.00030899,0.008611679,0,
00:01.1,-0.004571915,-0.000326157,0.008634567,0,
00:01.2,-0.004589081,-0.000314713,0.008628845,0,
00:01.2,-0.004611969,-0.000303268,0.008628845,0,
00:01.2,-0.004623413,-0.000303268,0.008605957,0,
00:01.2,-0.004634857,-0.000314713,0.008611679,0,
00:01.2,-0.004634857,-0.000314713,0.008617401,0,
00:01.2,-0.004629135,-0.000303268,0.008628845,0,
00:01.2,-0.004611969,-0.000314713,0.008617401,0,
00:01.2,-0.004600525,-0.000326157,0.008600235,0,
00:01.2,-0.004606247,-0.000320435,0.008611679,0,
00:01.2,-0.004617691,-0.000326157,0.008640289,0,
00:01.2,-0.004617691,-0.000297546,0.008611679,0,
00:01.2,-0.004617691,-0.000297546,0.008605957,0,
00:01.2,-0.004611969,-0.000314713,0.008623123,0,
00:01.2,-0.004600525,-0.000326157,0.008628845,0,
00:01.2,-0.004600525,-0.000314713,0.008623123,0,
00:01.2,-0.004611969,-0.00030899,0.008611679,0,
00:01.2,-0.004634857,-0.000303268,0.008623123,0,
00:01.2,-0.004617691,-0.00030899,0.008628845,0,
00:01.2,-0.004611969,-0.00030899,0.008605957,0,
00:01.2,-0.004611969,-0.000303268,0.008594513,0,
00:01.2,-0.004646301,-0.00030899,0.008617401,0,
00:01.2,-0.004652023,-0.000314713,0.008623123,0,
00:01.2,-0.004617691,-0.000297546,0.008623123,0,
00:01.2,-0.004589081,-0.00030899,0.008577347,0,
00:01.2,-0.004600525,-0.000314713,0.008588791,0,
00:01.3,-0.004611969,-0.000297546,0.008611679,0,
00:01.3,-0.004606247,-0.000303268,0.008611679,0,
00:01.3,-0.004600525,-0.000326157,0.008623123,0,
00:01.3,-0.004600525,-0.000326157,0.008623123,0,
00:01.3,-0.004634857,-0.000331879,0.008600235,0,
00:01.3,-0.004634857,-0.00030899,0.008617401,0,
00:01.3,-0.004646301,-0.000303268,0.008611679,0,
00:01.3,-0.004606247,-0.00030899,0.008588791,0,
00:01.3,-0.004589081,-0.000297546,0.008583069,0,
00:01.3,-0.004583359,-0.00030899,0.008617401,0,
00:01.3,-0.004583359,-0.000331879,0.008605957,0,
00:01.3,-0.004583359,-0.00030899,0.008583069,0,
00:01.3,-0.004600525,-0.000291824,0.008571625,0,
00:01.3,-0.004629135,-0.000320435,0.008600235,0,
00:01.3,-0.004606247,-0.000314713,0.008634567,0,
00:01.3,-0.004623413,-0.000314713,0.008634567,0,
00:01.3,-0.004629135,-0.00030899,0.008623123,0,
00:01.3,-0.004623413,-0.00030899,0.008605957,0,
00:01.3,-0.004629135,-0.000297546,0.008594513,0,
00:01.3,-0.004617691,-0.000297546,0.008583069,0,
00:01.3,-0.004600525,-0.000291824,0.008605957,0,
00:01.3,-0.004583359,-0.000314713,0.008600235,0,
00:01.3,-0.004577637,-0.000297546,0.008605957,0,
00:01.3,-0.004606247,-0.000320435,0.008605957,0,
00:01.3,-0.004629135,-0.00030899,0.008583069,0,
00:01.4,-0.004617691,-0.00030899,0.008583069,0,
00:01.4,-0.004606247,-0.000314713,0.008594513,0,
00:01.4,-0.004589081,-0.000331879,0.008617401,0,
00:01.4,-0.004594803,-0.000320435,0.008600235,0,
00:01.4,-0.004623413,-0.000297546,0.008617401,0,
00:01.4,-0.004617691,-0.000320435,0.008594513,0,
00:01.4,-0.004606247,-0.000303268,0.008577347,0,
00:01.4,-0.004606247,-0.00030899,0.008577347,0,
00:01.4,-0.004611969,-0.000314713,0.008611679,0,
00:01.4,-0.004600525,-0.000320435,0.008594513,0,
00:01.4,-0.004623413,-0.00030899,0.008548737,0,
00:01.4,-0.004611969,-0.000314713,0.008577347,0,
00:01.4,-0.004583359,-0.000303268,0.008623123,0,
00:01.4,-0.004589081,-0.00030899,0.008605957,0,
00:01.4,-0.004594803,-0.00030899,0.008605957,0,
00:01.4,-0.004594803,-0.000320435,0.008588791,0,
00:01.4,-0.004611969,-0.00030899,0.008605957,0,
00:01.4,-0.004646301,-0.000326157,0.008611679,0,
00:01.4,-0.004646301,-0.000303268,0.008605957,0,
00:01.4,-0.004589081,-0.000320435,0.008594513,0,
00:01.4,-0.004560471,-0.000303268,0.008583069,0,
00:01.4,-0.004583359,-0.000291824,0.008588791,0,
00:01.4,-0.004600525,-0.000297546,0.008594513,0,
00:01.4,-0.004577637,-0.000314713,0.008600235,0,
00:01.4,-0.004606247,-0.00030899,0.008588791,0,
00:01.5,-0.004600525,-0.000297546,0.008583069,0,
00:01.5,-0.004600525,-0.000297546,0.008583069,0,
00:01.5,-0.004600525,-0.000303268,0.008605957,0,
00:01.5,-0.004583359,-0.00030899,0.008588791,0,
00:01.5,-0.004589081,-0.000314713,0.008594513,0,
00:01.5,-0.004600525,-0.000314713,0.008548737,0,
00:01.5,-0.004600525,-0.00030899,0.008571625,0,
00:01.5,-0.004594803,-0.00030899,0.008594513,0,
00:01.5,-0.004583359,-0.000291824,0.008617401,0,
00:01.5,-0.004583359,-0.000320435,0.008571625,0,
00:01.5,-0.004606247,-0.000314713,0.008560181,0,
00:01.5,-0.004611969,-0.000326157,0.008605957,0,
00:01.5,-0.004611969,-0.000314713,0.008600235,0,
00:01.5,-0.004617691,-0.000274658,0.008594513,0,
00:01.5,-0.004617691,-0.000303268,0.008588791,0,
00:01.5,-0.004589081,-0.000337601,0.008583069,0,
00:01.5,-0.004617691,-0.000314713,0.008588791,0,
00:01.5,-0.004617691,-0.000297546,0.008571625,0,
00:01.5,-0.004589081,-0.00030899,0.008560181,0,
00:01.5,-0.004571915,-0.00030899,0.008571625,0,
00:01.5,-0.004577637,-0.000303268,0.008577347,0,
00:01.5,-0.004594803,-0.000303268,0.008588791,0,
00:01.5,-0.004606247,-0.000297546,0.008594513,0,
00:01.5,-0.004611969,-0.000303268,0.008571625,0,
00:01.5,-0.004571915,-0.000291824,0.008594513,0,
00:01.6,-0.004571915,-0.00030899,0.008594513,0,
00:01.6,-0.004571915,-0.00030899,0.008583069,0,
00:01.6,-0.004589081,-0.00030899,0.008600235,0,
00:01.6,-0.004594803,-0.000303268,0.008594513,0,
00:01.6,-0.004611969,-0.00030899,0.008588791,0,
00:01.6,-0.004606247,-0.000303268,0.008548737,0,
00:01.6,-0.004600525,-0.000303268,0.008554459,0,
00:01.6,-0.004577637,-0.000303268,0.008577347,0,
00:01.6,-0.004560471,-0.000320435,0.008600235,0,
00:01.6,-0.004594803,-0.000291824,0.008571625,0,
00:01.6,-0.004606247,-0.000297546,0.008571625,0,
00:01.6,-0.004589081,-0.00030899,0.008588791,0,
00:01.6,-0.004583359,-0.000303268,0.008594513,0,
00:01.6,-0.004606247,-0.000303268,0.008583069,0,
00:01.6,-0.004629135,-0.000291824,0.008583069,0,
00:01.6,-0.004600525,-0.000297546,0.008588791,0,
00:01.6,-0.004611969,-0.000343323,0.008583069,0,
00:01.6,-0.004623413,-0.000314713,0.008571625,0,
00:01.6,-0.004611969,-0.000297546,0.008571625,0,
00:01.6,-0.004589081,-0.000291824,0.008554459,0,
00:01.6,-0.004566193,-0.00030899,0.008554459,0,
00:01.6,-0.004560471,-0.000320435,0.008577347,0,
00:01.6,-0.004549026,-0.000303268,0.008594513,0,
00:01.6,-0.004589081,-0.00030899,0.008560181,0,
00:01.6,-0.004634857,-0.000303268,0.008560181,0,
00:01.7,-0.004606247,-0.000320435,0.008565903,0,
00:01.7,-0.004583359,-0.000303268,0.008571625,0,
00:01.7,-0.004577637,-0.000297546,0.008565903,0,
00:01.7,-0.004571915,-0.000303268,0.008565903,0,
00:01.7,-0.004583359,-0.000314713,0.008571625,0,
00:01.7,-0.004577637,-0.000326157,0.008577347,0,
00:01.7,-0.004594803,-0.000314713,0.008565903,0,
00:01.7,-0.004589081,-0.000291824,0.008514404,0,
00:01.7,-0.004577637,-0.000303268,0.008548737,0,
00:01.7,-0.004606247,-0.000320435,0.008600235,0,
00:01.7,-0.004629135,-0.000326157,0.008583069,0,
00:01.7,-0.004611969,-0.000291824,0.008571625,0,
00:01.7,-0.004594803,-0.000286102,0.008565903,0,
00:01.7,-0.004589081,-0.000303268,0.008565903,0,
00:01.7,-0.004600525,-0.000320435,0.008537292,0,
00:01.7,-0.004594803,-0.000326157,0.008508682,0,
00:01.7,-0.004554749,-0.000326157,0.008600235,0,
00:01.7,-0.004560471,-0.00030899,0.008594513,0,
00:01.7,-0.004594803,-0.000291824,0.008554459,0,
00:01.7,-0.004560471,-0.000303268,0.008560181,0,
00:01.7,-0.004560471,-0.000291824,0.008548737,0,
00:01.7,-0.004594803,-0.000303268,0.008548737,0,
00:01.7,-0.004583359,-0.000314713,0.008577347,0,
00:01.7,-0.004577637,-0.000326157,0.008548737,0,
00:01.7,-0.004583359,-0.000314713,0.008537292,0,
00:01.8,-0.004583359,-0.000303268,0.008560181,0,
00:01.8,-0.004589081,-0.00030899,0.008565903,0,
00:01.8,-0.004583359,-0.000314713,0.008560181,0,
00:01.8,-0.004583359,-0.000303268,0.008548737,0,
00:01.8,-0.004589081,-0.000303268,0.008543015,0,
00:01.8,-0.004594803,-0.000297546,0.008508682,0,
00:01.8,-0.004583359,-0.000291824,0.008543015,0,
00:01.8,-0.004560471,-0.000314713,0.008565903,0,
00:01.8,-0.004583359,-0.000331879,0.008571625,0,
00:01.8,-0.004617691,-0.000314713,0.008543015,0,
00:01.8,-0.004617691,-0.000303268,0.008560181,0,
00:01.8,-0.004611969,-0.000303268,0.008571625,0,
00:01.8,-0.004611969,-0.00028038,0.008537292,0,
00:01.8,-0.004577637,-0.000291824,0.008520126,0,
00:01.8,-0.004543304,-0.000314713,0.008554459,0,
00:01.8,-0.004560471,-0.000320435,0.00853157,0,
00:01.8,-0.004606247,-0.00030899,0.008548737,0,
00:01.8,-0.004600525,-0.000286102,0.008554459,0,
00:01.8,-0.004577637,-0.000286102,0.00853157,0,
00:01.8,-0.004577637,-0.000326157,0.008497238,0,
00:01.8,-0.004571915,-0.000314713,0.008554459,0,
00:01.8,-0.004583359,-0.000297546,0.008543015,0,
00:01.8,-0.004594803,-0.000286102,0.008548737,0,
00:01.8,-0.004577637,-0.000274658,0.008548737,0,
00:01.8,-0.004594803,-0.000303268,0.008548737,0,
00:01.9,-0.004589081,-0.000303268,0.008514404,0,
00:01.9,-0.004560471,-0.000297546,0.008525848,0,
00:01.9,-0.004566193,-0.000303268,0.008554459,0,
00:01.9,-0.004577637,-0.000303268,0.00853157,0,
00:01.9,-0.004566193,-0.000297546,0.008508682,0,
00:01.9,-0.004560471,-0.000303268,0.008537292,0,
00:01.9,-0.004589081,-0.000303268,0.008554459,0,
00:01.9,-0.004600525,-0.000303268,0.008514404,0,
00:01.9,-0.004589081,-0.000291824,0.00850296,0,
00:01.9,-0.004589081,-0.000303268,0.008560181,0,
00:01.9,-0.004571915,-0.000303268,0.008560181,0,
00:01.9,-0.004583359,-0.000297546,0.008548737,0,
00:01.9,-0.004594803,-0.000303268,0.008525848,0,
00:01.9,-0.004560471,-0.000303268,0.00853157,0,
00:01.9,-0.004577637,-0.000314713,0.008520126,0,
00:01.9,-0.004583359,-0.00030899,0.008543015,0,
00:01.9,-0.004577637,-0.000297546,0.008525848,0,
00:01.9,-0.004571915,-0.000303268,0.008520126,0,
00:01.9,-0.004571915,-0.000320435,0.008537292,0,
00:01.9,-0.004571915,-0.000303268,0.008525848,0,
00:01.9,-0.004577637,-0.00030899,0.008537292,0,
00:01.9,-0.004577637,-0.00028038,0.008537292,0,
00:01.9,-0.004560471,-0.000286102,0.008491516,0,
00:01.9,-0.004549026,-0.000297546,0.00850296,0,
00:01.9,-0.004583359,-0.000286102,0.008560181,0,
00:02.0,-0.004594803,-0.000314713,0.00853157,0,
00:02.0,-0.004583359,-0.000303268,0.008520126,0,
00:02.0,-0.004571915,-0.000303268,0.008514404,0,
00:02.0,-0.004560471,-0.000320435,0.008508682,0,
00:02.0,-0.004583359,-0.000326157,0.008537292,0,
00:02.0,-0.004611969,-0.00030899,0.008525848,0,
00:02.0,-0.004611969,-0.000303268,0.008514404,0,
00:02.0,-0.004589081,-0.000303268,0.008525848,0,
00:02.0,-0.004577637,-0.00028038,0.008548737,0,
00:02.0,-0.004560471,-0.000286102,0.008508682,0,
00:02.0,-0.004571915,-0.00030899,0.008491516,0,
00:02.0,-0.004583359,-0.00030899,0.008497238,0,
00:00:02,-0.004589081,-0.000303268,0.008520126,0,
00:02.0,-0.004577637,-0.000303268,0.008537292,0,
00:02.0,-0.004583359,-0.000303268,0.008525848,0,
00:02.0,-0.004566193,-0.000314713,0.008514404,0,
00:02.0,-0.004566193,-0.000303268,0.008514404,0,
00:02.0,-0.004577637,-0.000297546,0.008508682,0,
00:02.0,-0.004589081,-0.000303268,0.008508682,0,
00:02.0,-0.004549026,-0.000291824,0.008497238,0,
00:02.0,-0.004571915,-0.000303268,0.008520126,0,
00:02.0,-0.004554749,-0.00030899,0.008508682,0,
00:02.0,-0.00453186,-0.000297546,0.008514404,0,
00:02.0,-0.004566193,-0.000297546,0.008520126,0,
00:02.0,-0.004566193,-0.000297546,0.00850296,0,
00:02.1,-0.004583359,-0.000303268,0.008485794,0,
00:02.1,-0.004571915,-0.00030899,0.008514404,0,
00:02.1,-0.004571915,-0.000303268,0.008497238,0,
00:02.1,-0.004589081,-0.000326157,0.008508682,0,
00:02.1,-0.004589081,-0.00030899,0.00850296,0,
00:02.1,-0.004589081,-0.00030899,0.008525848,0,
00:02.1,-0.004571915,-0.000286102,0.008514404,0,
00:02.1,-0.004577637,-0.000268936,0.00853157,0,
00:02.1,-0.004566193,-0.00030899,0.008514404,0,
00:02.1,-0.004537582,-0.000303268,0.008497238,0,
00:02.1,-0.004571915,-0.00030899,0.00850296,0,
00:02.1,-0.004577637,-0.000303268,0.008491516,0,
00:02.1,-0.004577637,-0.000303268,0.008514404,0,
00:02.1,-0.004566193,-0.00030899,0.008485794,0,
00:02.1,-0.004566193,-0.000303268,0.00847435,0,
00:02.1,-0.004566193,-0.000303268,0.008514404,0,
00:02.1,-0.004577637,-0.000303268,0.00853157,0,
00:02.1,-0.004589081,-0.000303268,0.00850296,0,
00:02.1,-0.004594803,-0.00030899,0.008520126,0,
00:02.1,-0.004571915,-0.000297546,0.008497238,0,
00:02.1,-0.004537582,-0.00030899,0.00850296,0,
00:02.1,-0.004537582,-0.00030899,0.008514404,0,
00:02.1,-0.004577637,-0.000320435,0.00850296,0,
00:02.1,-0.004600525,-0.000320435,0.008491516,0,
00:02.1,-0.004600525,-0.000297546,0.008485794,0,
00:02.2,-0.004583359,-0.000286102,0.008491516,0,
00:02.2,-0.004566193,-0.000297546,0.008462906,0,
00:02.2,-0.004543304,-0.00030899,0.008525848,0,
00:02.2,-0.004543304,-0.00030899,0.008520126,0,
00:02.2,-0.004571915,-0.000297546,0.008514404,0,
00:02.2,-0.004571915,-0.000297546,0.008491516,0,
00:02.2,-0.004583359,-0.000303268,0.008485794,0,
00:02.2,-0.004554749,-0.000297546,0.008491516,0,
00:02.2,-0.004560471,-0.000297546,0.008508682,0,
00:02.2,-0.004577637,-0.00030899,0.008508682,0,
00:02.2,-0.004577637,-0.000314713,0.008491516,0,
00:02.2,-0.004554749,-0.000303268,0.00847435,0,
00:02.2,-0.004554749,-0.000297546,0.008491516,0,
00:02.2,-0.004566193,-0.000291824,0.008485794,0,
00:02.2,-0.004571915,-0.000320435,0.008468628,0,
00:02.2,-0.004566193,-0.000320435,0.00847435,0,
00:02.2,-0.004583359,-0.000314713,0.008485794,0,
00:02.2,-0.004577637,-0.000303268,0.008491516,0,
00:02.2,-0.004566193,-0.00030899,0.008491516,0,
00:02.2,-0.004583359,-0.000297546,0.00847435,0,
00:02.2,-0.004577637,-0.000286102,0.008508682,0,
00:02.2,-0.004566193,-0.000291824,0.008497238,0,
00:02.2,-0.004560471,-0.00030899,0.008485794,0,
00:02.2,-0.004560471,-0.000320435,0.008480072,0,
00:02.2,-0.004571915,-0.000314713,0.00844574,0,
00:02.3,-0.004600525,-0.000297546,0.008480072,0,
00:02.3,-0.004583359,-0.000320435,0.008485794,0,
00:02.3,-0.004566193,-0.00030899,0.008497238,0,
00:02.3,-0.004560471,-0.000286102,0.008491516,0,
00:02.3,-0.004526138,-0.000291824,0.008462906,0,
00:02.3,-0.004543304,-0.000303268,0.00847435,0,
00:02.3,-0.004554749,-0.000303268,0.008485794,0,
00:02.3,-0.004549026,-0.00030899,0.008485794,0,
00:02.3,-0.004566193,-0.000297546,0.008480072,0,
00:02.3,-0.004583359,-0.00030899,0.008480072,0,
00:02.3,-0.004549026,-0.000314713,0.008457184,0,
00:02.3,-0.004560471,-0.000314713,0.008462906,0,
00:02.3,-0.004560471,-0.00030899,0.008485794,0,
00:02.3,-0.004549026,-0.000320435,0.008485794,0,
00:02.3,-0.004554749,-0.000314713,0.008480072,0,
00:02.3,-0.004560471,-0.000314713,0.008468628,0,
00:02.3,-0.004577637,-0.000314713,0.008451462,0,
00:02.3,-0.004589081,-0.000303268,0.008462906,0,
00:02.3,-0.004577637,-0.000303268,0.008497238,0,
00:02.3,-0.004549026,-0.000303268,0.008485794,0,
00:02.3,-0.004554749,-0.000320435,0.008451462,0,
00:02.3,-0.004560471,-0.000320435,0.008440018,0,
00:02.3,-0.004571915,-0.000303268,0.008462906,0,
00:02.3,-0.004577637,-0.000303268,0.00847435,0,
00:02.3,-0.004583359,-0.000314713,0.008462906,0,
00:02.4,-0.004600525,-0.000303268,0.008457184,0,
00:02.4,-0.004583359,-0.000303268,0.008468628,0,
00:02.4,-0.004526138,-0.000291824,0.008462906,0,
00:02.4,-0.004497528,-0.000297546,0.008462906,0,
00:02.4,-0.004514694,-0.00030899,0.00847435,0,
00:02.4,-0.004549026,-0.000320435,0.008485794,0,
00:02.4,-0.004560471,-0.000320435,0.008468628,0,
00:02.4,-0.004554749,-0.000303268,0.008457184,0,
00:02.4,-0.004571915,-0.00030899,0.008468628,0,
00:02.4,-0.004566193,-0.000326157,0.008491516,0,
00:02.4,-0.004537582,-0.000314713,0.008468628,0,
00:02.4,-0.004543304,-0.000303268,0.008468628,0,
00:02.4,-0.004560471,-0.000297546,0.008451462,0,
00:02.4,-0.004589081,-0.000297546,0.008462906,0,
00:02.4,-0.004583359,-0.000314713,0.00844574,0,
00:02.4,-0.004560471,-0.00030899,0.008451462,0,
00:02.4,-0.004560471,-0.000303268,0.00844574,0,
00:02.4,-0.004577637,-0.000297546,0.008468628,0,
00:02.4,-0.004554749,-0.000303268,0.00847435,0,
00:02.4,-0.004526138,-0.00030899,0.008451462,0,
00:02.4,-0.004526138,-0.000326157,0.008462906,0,
00:02.4,-0.004560471,-0.000314713,0.00847435,0,
00:02.4,-0.004594803,-0.000314713,0.00847435,0,
00:02.4,-0.004606247,-0.00030899,0.008462906,0,
00:02.4,-0.004549026,-0.000286102,0.008440018,0,
00:02.5,-0.004520416,-0.000291824,0.008451462,0,
00:02.5,-0.004520416,-0.000337601,0.008434296,0,
00:02.5,-0.004537582,-0.000303268,0.008428574,0,
00:02.5,-0.004526138,-0.000297546,0.008485794,0,
00:02.5,-0.004537582,-0.00030899,0.008480072,0,
00:02.5,-0.004560471,-0.000326157,0.008485794,0,
00:02.5,-0.004577637,-0.000320435,0.008462906,0,
00:02.5,-0.004566193,-0.000297546,0.008462906,0,
00:02.5,-0.004549026,-0.000297546,0.00847435,0,
00:02.5,-0.004537582,-0.000291824,0.008457184,0,
00:02.5,-0.004549026,-0.000297546,0.00844574,0,
00:02.5,-0.004537582,-0.000303268,0.008434296,0,
00:02.5,-0.004549026,-0.00030899,0.008468628,0,
00:02.5,-0.004554749,-0.00030899,0.00847435,0,
00:02.5,-0.004554749,-0.000314713,0.008468628,0,
00:02.5,-0.004560471,-0.00030899,0.008451462,0,
00:02.5,-0.004577637,-0.00030899,0.008468628,0,
00:02.5,-0.004560471,-0.000297546,0.008462906,0,
00:02.5,-0.004537582,-0.000303268,0.00844574,0,
00:02.5,-0.004537582,-0.000331879,0.008457184,0,
00:02.5,-0.004566193,-0.000320435,0.008440018,0,
00:02.5,-0.004589081,-0.000320435,0.008422852,0,
00:02.5,-0.004560471,-0.00030899,0.008468628,0,
00:02.5,-0.004526138,-0.000297546,0.008451462,0,
00:02.5,-0.004543304,-0.000291824,0.00841713,0,
00:02.6,-0.004526138,-0.000303268,0.008457184,0,
00:02.6,-0.004508972,-0.000314713,0.008462906,0,
00:02.6,-0.004537582,-0.000303268,0.008468628,0,
00:02.6,-0.004554749,-0.000320435,0.008468628,0,
00:02.6,-0.004537582,-0.000291824,0.008451462,0,
00:02.6,-0.004549026,-0.000291824,0.008462906,0,
00:02.6,-0.004543304,-0.00030899,0.008462906,0,
00:02.6,-0.004560471,-0.00030899,0.008462906,0,
00:02.6,-0.004566193,-0.000303268,0.008462906,0,
00:02.6,-0.004554749,-0.00030899,0.008451462,0,
00:02.6,-0.004554749,-0.000303268,0.008440018,0,
00:02.6,-0.004560471,-0.00030899,0.008440018,0,
00:02.6,-0.004549026,-0.000291824,0.008434296,0,
00:02.6,-0.004537582,-0.00030899,0.00841713,0,
00:02.6,-0.00453186,-0.000337601,0.008434296,0,
00:02.6,-0.00453186,-0.000314713,0.008451462,0,
00:02.6,-0.004560471,-0.000314713,0.008468628,0,
00:02.6,-0.004571915,-0.00030899,0.008468628,0,
00:02.6,-0.004566193,-0.000297546,0.008428574,0,
00:02.6,-0.004526138,-0.000291824,0.008440018,0,
00:02.6,-0.004514694,-0.000297546,0.008434296,0,
00:02.6,-0.00450325,-0.000331879,0.008422852,0,
00:02.6,-0.00450325,-0.000314713,0.008440018,0,
00:02.6,-0.004537582,-0.000297546,0.008462906,0,
00:02.6,-0.004560471,-0.000314713,0.008440018,0,
00:02.7,-0.004549026,-0.00030899,0.00844574,0,
00:02.7,-0.004543304,-0.000303268,0.008405685,0,
00:02.7,-0.004554749,-0.000297546,0.008422852,0,
00:02.7,-0.004549026,-0.000314713,0.008457184,0,
00:02.7,-0.004560471,-0.000326157,0.008457184,0,
00:02.7,-0.004537582,-0.00030899,0.008462906,0,
00:02.7,-0.004520416,-0.000286102,0.008457184,0,
00:02.7,-0.004549026,-0.000297546,0.008434296,0,
00:02.7,-0.004554749,-0.000303268,0.008434296,0,
00:02.7,-0.004571915,-0.000331879,0.008422852,0,
00:02.7,-0.004543304,-0.000320435,0.008440018,0,
00:02.7,-0.004554749,-0.00030899,0.008434296,0,
00:02.7,-0.004577637,-0.000303268,0.008440018,0,
00:02.7,-0.004577637,-0.00030899,0.00844574,0,
00:02.7,-0.00453186,-0.000303268,0.008434296,0,
00:02.7,-0.004526138,-0.000297546,0.00841713,0,
00:02.7,-0.00450325,-0.000291824,0.008434296,0,
00:02.7,-0.004508972,-0.000303268,0.008434296,0,
00:02.7,-0.004520416,-0.000314713,0.008428574,0,
00:02.7,-0.004526138,-0.000303268,0.008462906,0,
00:02.7,-0.004543304,-0.000331879,0.00844574,0,
00:02.7,-0.004526138,-0.000354767,0.008440018,0,
00:02.7,-0.004537582,-0.000286102,0.00844574,0,
00:02.7,-0.004549026,-0.00028038,0.008451462,0,
00:02.7,-0.004543304,-0.000274658,0.008422852,0,
00:02.8,-0.004537582,-0.000291824,0.008440018,0,
00:02.8,-0.00453186,-0.000286102,0.008440018,0,
00:02.8,-0.004537582,-0.000303268,0.008457184,0,
00:02.8,-0.004543304,-0.000314713,0.008428574,0,
00:02.8,-0.004543304,-0.000303268,0.008405685,0,
00:02.8,-0.004543304,-0.000303268,0.008411407,0,
00:02.8,-0.004543304,-0.000286102,0.008440018,0,
00:02.8,-0.004554749,-0.00030899,0.008422852,0,
00:02.8,-0.00453186,-0.000314713,0.008422852,0,
00:02.8,-0.004543304,-0.000303268,0.008434296,0,
00:02.8,-0.004571915,-0.00030899,0.008428574,0,
00:02.8,-0.004549026,-0.000303268,0.008440018,0,
00:02.8,-0.004526138,-0.00030899,0.00844574,0,
00:02.8,-0.004520416,-0.000314713,0.008405685,0,
00:02.8,-0.004526138,-0.00028038,0.008399963,0,
00:02.8,-0.004508972,-0.000291824,0.00844574,0,
00:02.8,-0.004520416,-0.000303268,0.008457184,0,
00:02.8,-0.004537582,-0.00030899,0.008440018,0,
00:02.8,-0.004554749,-0.00030899,0.008422852,0,
00:02.8,-0.004543304,-0.000297546,0.008405685,0,
00:02.8,-0.004514694,-0.000291824,0.008434296,0,
00:02.8,-0.004520416,-0.000297546,0.008428574,0,
00:02.8,-0.004526138,-0.000297546,0.008428574,0,
00:02.8,-0.00453186,-0.000291824,0.008405685,0,
00:02.8,-0.00450325,-0.000291824,0.008422852,0,
00:02.9,-0.004520416,-0.000297546,0.008428574,0,
00:02.9,-0.004554749,-0.000291824,0.008428574,0,
00:02.9,-0.004537582,-0.000314713,0.008422852,0,
00:02.9,-0.004543304,-0.00030899,0.00841713,0,
00:02.9,-0.004554749,-0.000303268,0.008434296,0,
00:02.9,-0.004549026,-0.000314713,0.008405685,0,
00:02.9,-0.004543304,-0.000286102,0.008405685,0,
00:02.9,-0.004520416,-0.000326157,0.008405685,0,
00:02.9,-0.004526138,-0.00030899,0.008394241,0,
00:02.9,-0.004554749,-0.000291824,0.008388519,0,
00:02.9,-0.004537582,-0.000297546,0.008422852,0,
00:02.9,-0.004497528,-0.00030899,0.008428574,0,
00:02.9,-0.004497528,-0.00030899,0.008434296,0,
00:02.9,-0.004526138,-0.00030899,0.00841713,0,
00:02.9,-0.004549026,-0.00030899,0.008394241,0,
00:02.9,-0.004537582,-0.000303268,0.008411407,0,
00:02.9,-0.004508972,-0.000303268,0.008434296,0,
00:02.9,-0.004520416,-0.000303268,0.008428574,0,
00:02.9,-0.004554749,-0.000286102,0.008399963,0,
00:02.9,-0.004554749,-0.000291824,0.00841713,0,
00:02.9,-0.004520416,-0.000314713,0.008422852,0,
00:02.9,-0.004486084,-0.00030899,0.008405685,0,
00:02.9,-0.004497528,-0.000297546,0.008399963,0,
00:02.9,-0.00453186,-0.000303268,0.008399963,0,
00:02.9,-0.004549026,-0.000314713,0.008388519,0,
00:03.0,-0.004537582,-0.000303268,0.008411407,0,
00:03.0,-0.00453186,-0.000286102,0.008422852,0,
00:03.0,-0.004520416,-0.000291824,0.008405685,0,
00:03.0,-0.004514694,-0.000320435,0.008388519,0,
00:03.0,-0.004508972,-0.000314713,0.008394241,0,
00:03.0,-0.004526138,-0.000303268,0.008388519,0,
00:03.0,-0.004526138,-0.000320435,0.008405685,0,
00:03.0,-0.004537582,-0.00028038,0.008411407,0,
00:03.0,-0.004543304,-0.00030899,0.008411407,0,
00:03.0,-0.00450325,-0.000314713,0.008428574,0,
00:03.0,-0.004508972,-0.000286102,0.00841713,0,
00:03.0,-0.004526138,-0.000297546,0.008394241,0,
00:00:03,-0.00453186,-0.000291824,0.008354187,0,
00:03.0,-0.004537582,-0.000286102,0.008405685,0,
00:03.0,-0.00453186,-0.000297546,0.00841713,0,
00:03.0,-0.004526138,-0.000303268,0.00841713,0,
00:03.0,-0.004514694,-0.000297546,0.00841713,0,
00:03.0,-0.004497528,-0.00030899,0.008394241,0,
00:03.0,-0.004486084,-0.000314713,0.008394241,0,
00:03.0,-0.004526138,-0.000314713,0.008388519,0,
00:03.0,-0.004537582,-0.000314713,0.008399963,0,
00:03.0,-0.004520416,-0.000291824,0.008411407,0,
00:03.0,-0.004508972,-0.000286102,0.008399963,0,
00:03.0,-0.004514694,-0.000286102,0.008382797,0,
00:03.0,-0.004508972,-0.000297546,0.008371353,0,
00:03.1,-0.00450325,-0.000314713,0.008365631,0,
00:03.1,-0.004520416,-0.000286102,0.008399963,0,
00:03.1,-0.004520416,-0.000291824,0.008428574,0,
00:03.1,-0.004520416,-0.000314713,0.00841713,0,
00:03.1,-0.004508972,-0.000314713,0.008399963,0,
00:03.1,-0.00453186,-0.000297546,0.008388519,0,
00:03.1,-0.00453186,-0.000314713,0.008411407,0,
00:03.1,-0.004526138,-0.000297546,0.008399963,0,
00:03.1,-0.004543304,-0.000297546,0.008365631,0,
00:03.1,-0.004537582,-0.000314713,0.008388519,0,
00:03.1,-0.004497528,-0.000297546,0.008388519,0,
00:03.1,-0.004486084,-0.000286102,0.008399963,0,
00:03.1,-0.004497528,-0.000291824,0.008377075,0,
00:03.1,-0.004508972,-0.000286102,0.008394241,0,
00:03.1,-0.004497528,-0.000291824,0.008377075,0,
00:03.1,-0.004508972,-0.000291824,0.008382797,0,
00:03.1,-0.004537582,-0.00030899,0.008371353,0,
00:03.1,-0.004543304,-0.000297546,0.008399963,0,
00:03.1,-0.004508972,-0.000303268,0.008382797,0,
00:03.1,-0.004520416,-0.000314713,0.008359909,0,
00:03.1,-0.00450325,-0.000297546,0.008405685,0,
00:03.1,-0.004520416,-0.000303268,0.008405685,0,
00:03.1,-0.004520416,-0.000297546,0.008377075,0,
00:03.1,-0.00453186,-0.000286102,0.008359909,0,
00:03.1,-0.004520416,-0.000286102,0.008399963,0,
00:03.2,-0.004491806,-0.000303268,0.008405685,0,
00:03.2,-0.004480362,-0.000291824,0.008405685,0,
00:03.2,-0.004497528,-0.000303268,0.008377075,0,
00:03.2,-0.004508972,-0.000314713,0.008348465,0,
00:03.2,-0.00453186,-0.00030899,0.008388519,0,
00:03.2,-0.004537582,-0.000314713,0.008422852,0,
00:03.2,-0.004543304,-0.000303268,0.008394241,0,
00:03.2,-0.004549026,-0.000297546,0.008371353,0,
00:03.2,-0.004514694,-0.000303268,0.008365631,0,
00:03.2,-0.00450325,-0.000303268,0.008371353,0,
00:03.2,-0.004491806,-0.000297546,0.008388519,0,
00:03.2,-0.004491806,-0.000291824,0.008394241,0,
00:03.2,-0.004514694,-0.000303268,0.008377075,0,
00:03.2,-0.00450325,-0.000303268,0.008365631,0,
00:03.2,-0.004508972,-0.000314713,0.008388519,0,
00:03.2,-0.00450325,-0.000303268,0.008377075,0,
00:03.2,-0.004497528,-0.000303268,0.008348465,0,
00:03.2,-0.004508972,-0.000320435,0.008325577,0,
00:03.2,-0.00453186,-0.00030899,0.008422852,0,
00:03.2,-0.004537582,-0.000297546,0.008405685,0,
00:03.2,-0.004520416,-0.000286102,0.008394241,0,
00:03.2,-0.004491806,-0.000303268,0.008371353,0,
00:03.2,-0.004486084,-0.00030899,0.008365631,0,
00:03.2,-0.004491806,-0.000286102,0.008377075,0,
00:03.2,-0.00450325,-0.000291824,0.008388519,0,
00:03.3,-0.004508972,-0.000303268,0.008382797,0,
00:03.3,-0.004508972,-0.000314713,0.008371353,0,
00:03.3,-0.004508972,-0.000297546,0.008354187,0,
00:03.3,-0.004537582,-0.000303268,0.008382797,0,
00:03.3,-0.00453186,-0.00030899,0.008365631,0,
00:03.3,-0.004520416,-0.000297546,0.008371353,0,
00:03.3,-0.00453186,-0.00028038,0.008359909,0,
00:03.3,-0.004526138,-0.000314713,0.008388519,0,
00:03.3,-0.004514694,-0.000303268,0.008388519,0,
00:03.3,-0.004491806,-0.00030899,0.008382797,0,
00:03.3,-0.004463196,-0.00030899,0.008354187,0,
00:03.3,-0.004480362,-0.00030899,0.008348465,0,
00:03.3,-0.004514694,-0.00030899,0.008365631,0,
00:03.3,-0.004514694,-0.000320435,0.008382797,0,
00:03.3,-0.004514694,-0.000291824,0.008377075,0,
00:03.3,-0.004526138,-0.000291824,0.008371353,0,
00:03.3,-0.004508972,-0.00030899,0.008382797,0,
00:03.3,-0.004514694,-0.000297546,0.008377075,0,
00:03.3,-0.004520416,-0.00030899,0.008348465,0,
00:03.3,-0.00450325,-0.000320435,0.008359909,0,
00:03.3,-0.00450325,-0.00030899,0.008371353,0,
00:03.3,-0.004497528,-0.000286102,0.008382797,0,
00:03.3,-0.004486084,-0.000297546,0.008354187,0,
00:03.3,-0.004486084,-0.00030899,0.008371353,0,
00:03.3,-0.004520416,-0.000297546,0.008365631,0,
00:03.4,-0.004520416,-0.000297546,0.008348465,0,
00:03.4,-0.00447464,-0.000291824,0.008359909,0,
00:03.4,-0.00447464,-0.000314713,0.008354187,0,
00:03.4,-0.00453186,-0.000320435,0.008354187,0,
00:03.4,-0.004549026,-0.00030899,0.008377075,0,
00:03.4,-0.004526138,-0.000297546,0.008377075,0,
00:03.4,-0.004526138,-0.000303268,0.008331299,0,
00:03.4,-0.004520416,-0.000303268,0.008365631,0,
00:03.4,-0.004491806,-0.000286102,0.008399963,0,
00:03.4,-0.004491806,-0.000286102,0.008365631,0,
00:03.4,-0.004497528,-0.000297546,0.008359909,0,
00:03.4,-0.004497528,-0.000297546,0.008342743,0,
00:03.4,-0.004508972,-0.000274658,0.008371353,0,
00:03.4,-0.004508972,-0.000314713,0.008394241,0,
00:03.4,-0.004497528,-0.000303268,0.008365631,0,
00:03.4,-0.004508972,-0.000303268,0.008342743,0,
00:03.4,-0.004497528,-0.000303268,0.008325577,0,
00:03.4,-0.004497528,-0.000274658,0.008342743,0,
00:03.4,-0.004508972,-0.000314713,0.008371353,0,
00:03.4,-0.004486084,-0.000326157,0.008371353,0,
00:03.4,-0.004508972,-0.00030899,0.008337021,0,
00:03.4,-0.004508972,-0.000314713,0.008365631,0,
00:03.4,-0.004508972,-0.000297546,0.008354187,0,
00:03.4,-0.00453186,-0.000303268,0.008342743,0,
00:03.4,-0.004526138,-0.000291824,0.008354187,0,
00:03.5,-0.004520416,-0.000297546,0.008382797,0,
00:03.5,-0.004497528,-0.000320435,0.008365631,0,
00:03.5,-0.004520416,-0.000303268,0.008325577,0,
00:03.5,-0.004508972,-0.000297546,0.008354187,0,
00:03.5,-0.004480362,-0.000286102,0.008354187,0,
00:03.5,-0.004463196,-0.000297546,0.008371353,0,
00:03.5,-0.004497528,-0.00030899,0.008371353,0,
00:03.5,-0.004520416,-0.000303268,0.008331299,0,
00:03.5,-0.00450325,-0.000297546,0.008331299,0,
00:03.5,-0.004508972,-0.000297546,0.008337021,0,
00:03.5,-0.004526138,-0.000297546,0.008377075,0,
00:03.5,-0.004497528,-0.000286102,0.008365631,0,
00:03.5,-0.004491806,-0.000291824,0.008354187,0,
00:03.5,-0.00450325,-0.000314713,0.008348465,0,
00:03.5,-0.00450325,-0.00030899,0.008354187,0,
00:03.5,-0.004497528,-0.000297546,0.008365631,0,
00:03.5,-0.004491806,-0.000303268,0.008342743,0,
00:03.5,-0.004486084,-0.000303268,0.008342743,0,
00:03.5,-0.004480362,-0.000303268,0.008354187,0,
00:03.5,-0.004508972,-0.000291824,0.008348465,0,
00:03.5,-0.004486084,-0.00028038,0.008337021,0,
00:03.5,-0.004491806,-0.000303268,0.008337021,0,
00:03.5,-0.004520416,-0.000314713,0.008342743,0,
00:03.5,-0.004526138,-0.000331879,0.008337021,0,
00:03.5,-0.004526138,-0.000320435,0.008342743,0,
00:03.6,-0.00450325,-0.000291824,0.008365631,0,
00:03.6,-0.00450325,-0.000291824,0.008371353,0,
00:03.6,-0.004491806,-0.00030899,0.008354187,0,
00:03.6,-0.004508972,-0.000291824,0.008325577,0,
00:03.6,-0.004508972,-0.000297546,0.008342743,0,
00:03.6,-0.004508972,-0.000303268,0.008348465,0,
00:03.6,-0.004526138,-0.000297546,0.008354187,0,
00:03.6,-0.00453186,-0.000303268,0.008354187,0,
00:03.6,-0.004486084,-0.000297546,0.008348465,0,
00:03.6,-0.004457474,-0.000291824,0.008359909,0,
00:03.6,-0.004468918,-0.000303268,0.008348465,0,
00:03.6,-0.004486084,-0.000303268,0.008342743,0,
00:03.6,-0.00450325,-0.000303268,0.008337021,0,
00:03.6,-0.004508972,-0.000314713,0.008319855,0,
00:03.6,-0.004514694,-0.00030899,0.008354187,0,
00:03.6,-0.004491806,-0.000286102,0.008394241,0,
00:03.6,-0.004497528,-0.000297546,0.008359909,0,
00:03.6,-0.004486084,-0.000303268,0.008302689,0,
00:03.6,-0.004508972,-0.000286102,0.008319855,0,
00:03.6,-0.00450325,-0.000297546,0.008337021,0,
00:03.6,-0.00447464,-0.00030899,0.008348465,0,
00:03.6,-0.004491806,-0.000303268,0.008365631,0,
00:03.6,-0.004520416,-0.000303268,0.008348465,0,
00:03.6,-0.004537582,-0.000291824,0.008319855,0,
00:03.6,-0.004514694,-0.000291824,0.008348465,0,
00:03.7,-0.004463196,-0.00030899,0.008342743,0,
00:03.7,-0.004480362,-0.000303268,0.008371353,0,
00:03.7,-0.004491806,-0.000297546,0.008359909,0,
00:03.7,-0.004520416,-0.000297546,0.008325577,0,
00:03.7,-0.004514694,-0.000291824,0.008331299,0,
00:03.7,-0.004486084,-0.000286102,0.008359909,0,
00:03.7,-0.00447464,-0.000286102,0.008354187,0,
00:03.7,-0.004491806,-0.00030899,0.008331299,0,
00:03.7,-0.00450325,-0.00030899,0.008314133,0,
00:03.7,-0.004497528,-0.000303268,0.008308411,0,
00:03.7,-0.004463196,-0.000303268,0.008325577,0,
00:03.7,-0.004497528,-0.00028038,0.008342743,0,
00:03.7,-0.004508972,-0.00030899,0.008359909,0,
00:03.7,-0.004491806,-0.00030899,0.008342743,0,
00:03.7,-0.004491806,-0.000303268,0.008325577,0,
00:03.7,-0.00450325,-0.00030899,0.008337021,0,
00:03.7,-0.00450325,-0.000303268,0.008348465,0,
00:03.7,-0.004508972,-0.000286102,0.008342743,0,
00:03.7,-0.004497528,-0.000297546,0.008348465,0,
00:03.7,-0.004486084,-0.00030899,0.008325577,0,
00:03.7,-0.004491806,-0.00030899,0.008319855,0,
00:03.7,-0.004514694,-0.000291824,0.008337021,0,
00:03.7,-0.004497528,-0.000297546,0.008331299,0,
00:03.7,-0.00447464,-0.000297546,0.008314133,0,
00:03.7,-0.004491806,-0.00030899,0.008342743,0,
00:03.8,-0.004520416,-0.000297546,0.008331299,0,
00:03.8,-0.004520416,-0.000291824,0.008325577,0,
00:03.8,-0.004497528,-0.000286102,0.008314133,0,
00:03.8,-0.004480362,-0.000286102,0.008348465,0,
00:03.8,-0.004468918,-0.00030899,0.008348465,0,
00:03.8,-0.00447464,-0.000303268,0.008325577,0,
00:03.8,-0.00447464,-0.000286102,0.008308411,0,
00:03.8,-0.004486084,-0.000274658,0.008314133,0,
00:03.8,-0.004491806,-0.000303268,0.008325577,0,
00:03.8,-0.004480362,-0.000297546,0.008319855,0,
00:03.8,-0.00447464,-0.000291824,0.008296967,0,
00:03.8,-0.004491806,-0.000297546,0.008285522,0,
00:03.8,-0.004508972,-0.00030899,0.008342743,0,
00:03.8,-0.004497528,-0.000314713,0.008331299,0,
00:03.8,-0.004491806,-0.000314713,0.008337021,0,
00:03.8,-0.004486084,-0.000303268,0.008342743,0,
00:03.8,-0.004508972,-0.000291824,0.008331299,0,
00:03.8,-0.00450325,-0.000297546,0.008319855,0,
00:03.8,-0.004508972,-0.000320435,0.008331299,0,
00:03.8,-0.004491806,-0.00030899,0.008325577,0,
00:03.8,-0.004486084,-0.000291824,0.008296967,0,
00:03.8,-0.004497528,-0.000291824,0.008302689,0,
00:03.8,-0.004508972,-0.00030899,0.008337021,0,
00:03.8,-0.00450325,-0.00030899,0.008325577,0,
00:03.8,-0.00450325,-0.00028038,0.008314133,0,
00:03.9,-0.004468918,-0.00028038,0.008302689,0,
00:03.9,-0.00444603,-0.000291824,0.008296967,0,
00:03.9,-0.004480362,-0.00030899,0.008319855,0,
00:03.9,-0.004486084,-0.000286102,0.008325577,0,
00:03.9,-0.004491806,-0.000297546,0.008325577,0,
00:03.9,-0.004463196,-0.000291824,0.008291245,0,
00:03.9,-0.004468918,-0.000286102,0.008314133,0,
00:03.9,-0.00450325,-0.00028038,0.008354187,0,
00:03.9,-0.004497528,-0.000297546,0.008325577,0,
00:03.9,-0.004486084,-0.000326157,0.008319855,0,
00:03.9,-0.004486084,-0.000303268,0.008314133,0,
00:03.9,-0.004497528,-0.000297546,0.008308411,0,
00:03.9,-0.004486084,-0.000291824,0.008291245,0,
00:03.9,-0.004480362,-0.000291824,0.008319855,0,
00:03.9,-0.00447464,-0.000303268,0.008325577,0,
00:03.9,-0.004486084,-0.000291824,0.008314133,0,
00:03.9,-0.004497528,-0.00028038,0.008325577,0,
00:03.9,-0.004491806,-0.000286102,0.008302689,0,
00:03.9,-0.00447464,-0.000314713,0.0082798,0,
00:03.9,-0.004463196,-0.000291824,0.008302689,0,
00:03.9,-0.004486084,-0.000291824,0.008325577,0,
00:03.9,-0.004514694,-0.000286102,0.008319855,0,
00:03.9,-0.004526138,-0.000286102,0.008342743,0,
00:03.9,-0.004491806,-0.000303268,0.008302689,0,
00:03.9,-0.00447464,-0.000291824,0.008296967,0,
00:04.0,-0.004486084,-0.000291824,0.008325577,0,
00:04.0,-0.004468918,-0.000286102,0.008314133,0,
00:04.0,-0.004468918,-0.000303268,0.008302689,0,
00:04.0,-0.004468918,-0.000314713,0.008314133,0,
00:04.0,-0.004480362,-0.000286102,0.008296967,0,
00:04.0,-0.004497528,-0.000297546,0.008302689,0,
00:04.0,-0.004491806,-0.000286102,0.008314133,0,
00:04.0,-0.004491806,-0.000274658,0.008308411,0,
00:04.0,-0.004491806,-0.00028038,0.008308411,0,
00:04.0,-0.004468918,-0.000320435,0.008302689,0,
00:04.0,-0.004486084,-0.000297546,0.008319855,0,
00:04.0,-0.004491806,-0.000291824,0.008331299,0,
00:00:04,-0.004486084,-0.000303268,0.008296967,0,
00:04.0,-0.00447464,-0.000286102,0.008291245,0,
00:04.0,-0.004468918,-0.000291824,0.008314133,0,
00:04.0,-0.004457474,-0.000274658,0.008302689,0,
00:04.0,-0.004468918,-0.000268936,0.0082798,0,
00:04.0,-0.004480362,-0.000291824,0.0082798,0,
00:04.0,-0.00450325,-0.000297546,0.008319855,0,
00:04.0,-0.004486084,-0.000286102,0.008302689,0,
00:04.0,-0.004468918,-0.000303268,0.008319855,0,
00:04.0,-0.004468918,-0.000303268,0.008302689,0,
00:04.0,-0.004497528,-0.000274658,0.008314133,0,
00:04.0,-0.004497528,-0.000291824,0.008302689,0,
00:04.0,-0.004463196,-0.000303268,0.008308411,0,
00:04.1,-0.004468918,-0.00030899,0.008319855,0,
00:04.1,-0.004486084,-0.000268936,0.008319855,0,
00:04.1,-0.004520416,-0.00028038,0.008291245,0,
00:04.1,-0.004486084,-0.000297546,0.008285522,0,
00:04.1,-0.00447464,-0.000286102,0.008296967,0,
00:04.1,-0.004491806,-0.000291824,0.008285522,0,
00:04.1,-0.004480362,-0.000291824,0.008314133,0,
00:04.1,-0.004491806,-0.000297546,0.008319855,0,
00:04.1,-0.004468918,-0.000297546,0.008319855,0,
00:04.1,-0.00447464,-0.000303268,0.008302689,0,
00:04.1,-0.004491806,-0.000291824,0.008302689,0,
00:04.1,-0.00447464,-0.000286102,0.008308411,0,
00:04.1,-0.004463196,-0.000291824,0.008291245,0,
00:04.1,-0.00447464,-0.000291824,0.008291245,0,
00:04.1,-0.004486084,-0.000286102,0.008314133,0,
00:04.1,-0.004486084,-0.000291824,0.008342743,0,
00:04.1,-0.004491806,-0.000291824,0.008319855,0,
00:04.1,-0.004486084,-0.000291824,0.008291245,0,
00:04.1,-0.004486084,-0.000286102,0.008274078,0,
00:04.1,-0.004463196,-0.000297546,0.008302689,0,
00:04.1,-0.004463196,-0.000268936,0.008308411,0,
00:04.1,-0.004468918,-0.000268936,0.008308411,0,
00:04.1,-0.004457474,-0.000286102,0.008308411,0,
00:04.1,-0.004468918,-0.00030899,0.008302689,0,
00:04.1,-0.004457474,-0.000314713,0.008285522,0,
00:04.2,-0.004486084,-0.00028038,0.008337021,0,
00:04.2,-0.004508972,-0.000263214,0.008319855,0,
00:04.2,-0.00450325,-0.00030899,0.008274078,0,
00:04.2,-0.004486084,-0.00030899,0.008291245,0,
00:04.2,-0.004468918,-0.000291824,0.008325577,0,
00:04.2,-0.00447464,-0.000286102,0.008314133,0,
00:04.2,-0.004480362,-0.000268936,0.008302689,0,
00:04.2,-0.004480362,-0.00028038,0.0082798,0,
00:04.2,-0.004463196,-0.000297546,0.008268356,0,
00:04.2,-0.004457474,-0.000303268,0.008319855,0,
00:04.2,-0.004468918,-0.00030899,0.008302689,0,
00:04.2,-0.004480362,-0.000286102,0.008308411,0,
00:04.2,-0.00450325,-0.00028038,0.008314133,0,
00:04.2,-0.004508972,-0.000286102,0.008302689,0,
00:04.2,-0.00447464,-0.00028038,0.008296967,0,
00:04.2,-0.00444603,-0.000286102,0.008314133,0,
00:04.2,-0.00444603,-0.000286102,0.008285522,0,
00:04.2,-0.004491806,-0.000297546,0.0082798,0,
00:04.2,-0.004497528,-0.000297546,0.008325577,0,
00:04.2,-0.00450325,-0.000274658,0.008302689,0,
00:04.2,-0.004457474,-0.000286102,0.008302689,0,
00:04.2,-0.00444603,-0.000303268,0.008319855,0,
00:04.2,-0.004468918,-0.000303268,0.008314133,0,
00:04.2,-0.004486084,-0.00028038,0.008319855,0,
00:04.2,-0.004480362,-0.000268936,0.008308411,0,
00:04.3,-0.004491806,-0.000268936,0.008302689,0,
00:04.3,-0.004468918,-0.000291824,0.008308411,0,
00:04.3,-0.004468918,-0.000303268,0.008302689,0,
00:04.3,-0.004480362,-0.000286102,0.008308411,0,
00:04.3,-0.00447464,-0.00028038,0.008319855,0,
00:04.3,-0.004434586,-0.000268936,0.008296967,0,
00:04.3,-0.00444603,-0.00028038,0.008291245,0,
00:04.3,-0.004486084,-0.000297546,0.008274078,0,
00:04.3,-0.004497528,-0.000291824,0.008262634,0,
00:04.3,-0.004508972,-0.000291824,0.008314133,0,
00:04.3,-0.004480362,-0.000274658,0.008325577,0,
00:04.3,-0.004457474,-0.000286102,0.008291245,0,
00:04.3,-0.004451752,-0.000297546,0.008337021,0,
00:04.3,-0.004457474,-0.000291824,0.008314133,0,
00:04.3,-0.004480362,-0.000286102,0.0082798,0,
00:04.3,-0.004486084,-0.000286102,0.008308411,0,
00:04.3,-0.00447464,-0.000286102,0.008319855,0,
00:04.3,-0.004463196,-0.000291824,0.008296967,0,
00:04.3,-0.004440308,-0.00028038,0.008314133,0,
00:04.3,-0.004463196,-0.000297546,0.008296967,0,
00:04.3,-0.00447464,-0.000291824,0.008302689,0,
00:04.3,-0.004457474,-0.000291824,0.008296967,0,
00:04.3,-0.004480362,-0.000297546,0.008285522,0,
00:04.3,-0.004514694,-0.000291824,0.008274078,0,
00:04.3,-0.004508972,-0.00028038,0.008302689,0,
00:04.4,-0.004468918,-0.000268936,0.008319855,0,
00:04.4,-0.00444603,-0.000257492,0.008296967,0,
00:04.4,-0.004463196,-0.000274658,0.008256912,0,
00:04.4,-0.004457474,-0.00028038,0.0082798,0,
00:04.4,-0.004451752,-0.000286102,0.008319855,0,
00:04.4,-0.00444603,-0.000286102,0.008274078,0,
00:04.4,-0.004480362,-0.000297546,0.008331299,0,
00:04.4,-0.004508972,-0.000303268,0.008308411,0,
00:04.4,-0.004491806,-0.000297546,0.008314133,0,
00:04.4,-0.004463196,-0.000291824,0.008296967,0,
00:04.4,-0.004463196,-0.000274658,0.008268356,0,
00:04.4,-0.004457474,-0.000263214,0.008302689,0,
00:04.4,-0.004440308,-0.00028038,0.008308411,0,
00:04.4,-0.004457474,-0.000303268,0.0082798,0,
00:04.4,-0.004457474,-0.00030899,0.008302689,0,
00:04.4,-0.004491806,-0.000297546,0.008285522,0,
00:04.4,-0.004514694,-0.000268936,0.0082798,0,
00:04.4,-0.004480362,-0.000274658,0.008285522,0,
00:04.4,-0.004434586,-0.00028038,0.008291245,0,
00:04.4,-0.00444603,-0.000268936,0.008274078,0,
00:04.4,-0.004463196,-0.00028038,0.0082798,0,
00:04.4,-0.004457474,-0.000291824,0.008285522,0,
00:04.4,-0.00447464,-0.000314713,0.008285522,0,
00:04.4,-0.004463196,-0.000286102,0.008285522,0,
00:04.4,-0.004463196,-0.000263214,0.008291245,0,
00:04.5,-0.004463196,-0.000274658,0.008274078,0,
00:04.5,-0.004463196,-0.000291824,0.008256912,0,
00:04.5,-0.004468918,-0.000297546,0.008296967,0,
00:04.5,-0.00444603,-0.000291824,0.008308411,0,
00:04.5,-0.004451752,-0.00028038,0.008302689,0,
00:04.5,-0.004491806,-0.00028038,0.008268356,0,
00:04.5,-0.004463196,-0.000274658,0.008262634,0,
00:04.5,-0.00444603,-0.000291824,0.008291245,0,
00:04.5,-0.004440308,-0.000314713,0.008302689,0,
00:04.5,-0.00444603,-0.000274658,0.008302689,0,
00:04.5,-0.004463196,-0.000257492,0.008308411,0,
00:04.5,-0.00447464,-0.000257492,0.008291245,0,
00:04.5,-0.004491806,-0.000303268,0.0082798,0,
00:04.5,-0.004457474,-0.00028038,0.008274078,0,
00:04.5,-0.004451752,-0.000268936,0.0082798,0,
00:04.5,-0.00444603,-0.000274658,0.008274078,0,
00:04.5,-0.004451752,-0.00028038,0.0082798,0,
00:04.5,-0.004451752,-0.000291824,0.008274078,0,
00:04.5,-0.004440308,-0.00028038,0.0082798,0,
00:04.5,-0.00444603,-0.000274658,0.008291245,0,
00:04.5,-0.004457474,-0.000303268,0.0082798,0,
00:04.5,-0.004463196,-0.000274658,0.008256912,0,
00:04.5,-0.004468918,-0.00028038,0.00825119,0,
00:04.5,-0.00444603,-0.000297546,0.008285522,0,
00:04.5,-0.004457474,-0.000291824,0.008285522,0,
00:04.6,-0.004463196,-0.000268936,0.0082798,0,
00:04.6,-0.004440308,-0.000274658,0.008285522,0,
00:04.6,-0.004468918,-0.000297546,0.008291245,0,
00:04.6,-0.00447464,-0.000274658,0.008268356,0,
00:04.6,-0.004457474,-0.000274658,0.008274078,0,
00:04.6,-0.004434586,-0.00028038,0.008262634,0,
00:04.6,-0.00444603,-0.00028038,0.008291245,0,
00:04.6,-0.00447464,-0.00028038,0.008296967,0,
00:04.6,-0.004457474,-0.000291824,0.008285522,0,
00:04.6,-0.004428864,-0.000297546,0.008285522,0,
00:04.6,-0.00447464,-0.00028038,0.0082798,0,
00:04.6,-0.004508972,-0.000268936,0.0082798,0,
00:04.6,-0.004463196,-0.000263214,0.008268356,0,
00:04.6,-0.004434586,-0.00028038,0.008262634,0,
00:04.6,-0.004428864,-0.000286102,0.008302689,0,
00:04.6,-0.004440308,-0.000274658,0.008285522,0,
00:04.6,-0.004451752,-0.000263214,0.008262634,0,
00:04.6,-0.004468918,-0.000263214,0.008268356,0,
00:04.6,-0.004440308,-0.000303268,0.008285522,0,
00:04.6,-0.004423141,-0.000297546,0.008239746,0,
00:04.6,-0.004428864,-0.00028038,0.008274078,0,
00:04.6,-0.00444603,-0.000286102,0.008274078,0,
00:04.6,-0.00444603,-0.000297546,0.008245468,0,
00:04.6,-0.004468918,-0.000291824,0.008274078,0,
00:04.6,-0.004468918,-0.000303268,0.008296967,0,
00:04.7,-0.00444603,-0.00028038,0.008274078,0,
00:04.7,-0.004423141,-0.000268936,0.0082798,0,
00:04.7,-0.004434586,-0.000274658,0.008274078,0,
00:04.7,-0.00444603,-0.00028038,0.008268356,0,
00:04.7,-0.00444603,-0.00028038,0.008262634,0,
00:04.7,-0.004463196,-0.000286102,0.008274078,0,
00:04.7,-0.004451752,-0.000291824,0.008268356,0,
00:04.7,-0.004463196,-0.00028038,0.0082798,0,
00:04.7,-0.004486084,-0.000286102,0.008262634,0,
00:04.7,-0.004463196,-0.000286102,0.008268356,0,
00:04.7,-0.004423141,-0.00028038,0.008274078,0,
00:04.7,-0.004428864,-0.000286102,0.008285522,0,
00:04.7,-0.004468918,-0.000286102,0.008268356,0,
00:04.7,-0.004457474,-0.000297546,0.008256912,0,
00:04.7,-0.004428864,-0.00028038,0.008274078,0,
00:04.7,-0.004451752,-0.000286102,0.008228302,0,
00:04.7,-0.00444603,-0.00028038,0.00825119,0,
00:04.7,-0.004434586,-0.000286102,0.008285522,0,
00:04.7,-0.004434586,-0.000286102,0.0082798,0,
00:04.7,-0.004434586,-0.000274658,0.008268356,0,
00:04.7,-0.004440308,-0.000274658,0.00825119,0,
00:04.7,-0.00444603,-0.00028038,0.00825119,0,
00:04.7,-0.00444603,-0.000291824,0.008268356,0,
00:04.7,-0.00444603,-0.00028038,0.008256912,0,
00:04.7,-0.004434586,-0.000286102,0.008274078,0,
00:04.8,-0.004428864,-0.000286102,0.008256912,0,
00:04.8,-0.00444603,-0.000246048,0.00825119,0,
00:04.8,-0.004434586,-0.000274658,0.00825119,0,
00:04.8,-0.004428864,-0.000303268,0.008256912,0,
00:04.8,-0.00444603,-0.000297546,0.008291245,0,
00:04.8,-0.004468918,-0.000286102,0.00825119,0,
00:04.8,-0.00444603,-0.000286102,0.008245468,0,
00:04.8,-0.004440308,-0.000291824,0.0082798,0,
00:04.8,-0.004434586,-0.00028038,0.008245468,0,
00:04.8,-0.00447464,-0.000291824,0.008234024,0,
00:04.8,-0.00444603,-0.000291824,0.008245468,0,
00:04.8,-0.004463196,-0.000274658,0.008262634,0,
00:04.8,-0.004440308,-0.000286102,0.008268356,0,
00:04.8,-0.004434586,-0.000268936,0.008262634,0,
00:04.8,-0.00444603,-0.000274658,0.008216858,0,
00:04.8,-0.004440308,-0.000268936,0.008274078,0,
00:04.8,-0.004411697,-0.00028038,0.008262634,0,
00:04.8,-0.004417419,-0.00028038,0.008262634,0,
00:04.8,-0.004423141,-0.000274658,0.008274078,0,
00:04.8,-0.004434586,-0.000303268,0.008256912,0,
00:04.8,-0.004457474,-0.000291824,0.008274078,0,
00:04.8,-0.004486084,-0.000268936,0.00825119,0,
00:04.8,-0.004463196,-0.000268936,0.008239746,0,
00:04.8,-0.004405975,-0.000263214,0.008256912,0,
00:04.8,-0.004428864,-0.000291824,0.008256912,0,
00:04.9,-0.00444603,-0.000286102,0.008256912,0,
00:04.9,-0.004451752,-0.000274658,0.008256912,0,
00:04.9,-0.004457474,-0.000286102,0.008256912,0,
00:04.9,-0.004423141,-0.00028038,0.008268356,0,
00:04.9,-0.004417419,-0.000291824,0.008256912,0,
00:04.9,-0.004417419,-0.00030899,0.008239746,0,
00:04.9,-0.004434586,-0.000274658,0.008245468,0,
00:04.9,-0.004440308,-0.000274658,0.008245468,0,
00:04.9,-0.00444603,-0.00028038,0.008256912,0,
00:04.9,-0.00444603,-0.00028038,0.00822258,0,
00:04.9,-0.004457474,-0.00028038,0.008262634,0,
00:04.9,-0.00444603,-0.000274658,0.0082798,0,
00:04.9,-0.004417419,-0.000274658,0.00825119,0,
00:04.9,-0.004405975,-0.00028038,0.008228302,0,
00:04.9,-0.004388809,-0.000274658,0.008228302,0,
00:04.9,-0.004411697,-0.000291824,0.008256912,0,
00:04.9,-0.004434586,-0.000286102,0.008274078,0,
00:04.9,-0.004457474,-0.00028038,0.008262634,0,
00:04.9,-0.004451752,-0.00028038,0.00822258,0,
00:04.9,-0.004440308,-0.000263214,0.008256912,0,
00:04.9,-0.004434586,-0.000274658,0.008268356,0,
00:04.9,-0.004434586,-0.00028038,0.00825119,0,
00:04.9,-0.004423141,-0.00028038,0.008245468,0,
00:04.9,-0.004423141,-0.000286102,0.008228302,0,
00:04.9,-0.004411697,-0.000286102,0.008234024,0,
00:05.0,-0.004423141,-0.00028038,0.008268356,0,
00:05.0,-0.004434586,-0.000274658,0.008262634,0,
00:05.0,-0.00444603,-0.000274658,0.008239746,0,
00:05.0,-0.004434586,-0.000291824,0.008262634,0,
00:05.0,-0.004400253,-0.000291824,0.008239746,0,
00:05.0,-0.004434586,-0.000286102,0.008239746,0,
00:05.0,-0.004463196,-0.000286102,0.008245468,0,
00:05.0,-0.004463196,-0.000274658,0.008216858,0,
00:05.0,-0.004417419,-0.000274658,0.008256912,0,
00:05.0,-0.004405975,-0.000274658,0.008245468,0,
00:05.0,-0.004423141,-0.000297546,0.008234024,0,
00:05.0,-0.004411697,-0.000286102,0.008228302,0,
00:00:05,-0.004428864,-0.00028038,0.008228302,0,
00:05.0,-0.004434586,-0.000274658,0.008234024,0,
00:05.0,-0.004434586,-0.000274658,0.008234024,0,
00:05.0,-0.004428864,-0.000263214,0.008256912,0,
00:05.0,-0.004394531,-0.000274658,0.00825119,0,
00:05.0,-0.004400253,-0.000274658,0.008228302,0,
00:05.0,-0.00444603,-0.000303268,0.00822258,0,
00:05.0,-0.004428864,-0.000286102,0.008245468,0,
00:05.0,-0.004423141,-0.000291824,0.008245468,0,
00:05.0,-0.004417419,-0.000286102,0.008234024,0,
00:05.0,-0.004457474,-0.000263214,0.008239746,0,
00:05.0,-0.004440308,-0.000286102,0.008245468,0,
00:05.0,-0.004423141,-0.00028038,0.008239746,0,
00:05.1,-0.004394531,-0.000286102,0.00822258,0,
00:05.1,-0.004400253,-0.00028038,0.008245468,0,
00:05.1,-0.004400253,-0.00028038,0.00822258,0,
00:05.1,-0.004417419,-0.000286102,0.008205414,0,
00:05.1,-0.004423141,-0.000291824,0.008228302,0,
00:05.1,-0.004417419,-0.000291824,0.008205414,0,
00:05.1,-0.00444603,-0.00028038,0.00822258,0,
00:05.1,-0.00444603,-0.00028038,0.008245468,0,
00:05.1,-0.004434586,-0.000274658,0.008234024,0,
00:05.1,-0.004405975,-0.000268936,0.008205414,0,
00:05.1,-0.004394531,-0.000274658,0.008216858,0,
00:05.1,-0.004400253,-0.000286102,0.008216858,0,
00:05.1,-0.004405975,-0.000274658,0.008234024,0,
00:05.1,-0.004411697,-0.000268936,0.008211136,0,
00:05.1,-0.004394531,-0.00028038,0.008228302,0,
00:05.1,-0.004411697,-0.000286102,0.008234024,0,
00:05.1,-0.004434586,-0.000286102,0.008228302,0,
00:05.1,-0.004451752,-0.000263214,0.008216858,0,
00:05.1,-0.004440308,-0.000263214,0.00822258,0,
00:05.1,-0.004417419,-0.000274658,0.008216858,0,
00:05.1,-0.004405975,-0.000274658,0.008211136,0,
00:05.1,-0.004400253,-0.000274658,0.008228302,0,
00:05.1,-0.004417419,-0.00028038,0.008216858,0,
00:05.1,-0.004405975,-0.000286102,0.00822258,0,
00:05.1,-0.004428864,-0.000297546,0.00819397,0,
00:05.2,-0.004428864,-0.000274658,0.008188248,0,
00:05.2,-0.004411697,-0.00025177,0.008234024,0,
00:05.2,-0.004377365,-0.000286102,0.008239746,0,
00:05.2,-0.004400253,-0.000274658,0.008216858,0,
00:05.2,-0.004417419,-0.000257492,0.008211136,0,
00:05.2,-0.004405975,-0.000274658,0.008228302,0,
00:05.2,-0.004417419,-0.000274658,0.008216858,0,
00:05.2,-0.004434586,-0.000274658,0.008216858,0,
00:05.2,-0.004434586,-0.000268936,0.008199692,0,
00:05.2,-0.004440308,-0.000286102,0.008188248,0,
00:05.2,-0.004417419,-0.000286102,0.008199692,0,
00:05.2,-0.004394531,-0.000303268,0.008205414,0,
00:05.2,-0.004388809,-0.000268936,0.00819397,0,
00:05.2,-0.004400253,-0.000263214,0.008199692,0,
00:05.2,-0.004388809,-0.000274658,0.008239746,0,
00:05.2,-0.004400253,-0.000274658,0.008228302,0,
00:05.2,-0.00444603,-0.000274658,0.00819397,0,
00:05.2,-0.004463196,-0.000263214,0.008216858,0,
00:05.2,-0.004423141,-0.000257492,0.008211136,0,
00:05.2,-0.004388809,-0.000274658,0.008216858,0,
00:05.2,-0.004383087,-0.00028038,0.008188248,0,
00:05.2,-0.004417419,-0.00028038,0.008176804,0,
00:05.2,-0.004428864,-0.000268936,0.008211136,0,
00:05.2,-0.004405975,-0.000257492,0.008205414,0,
00:05.2,-0.004365921,-0.000268936,0.008216858,0,
00:05.3,-0.004377365,-0.000303268,0.008211136,0,
00:05.3,-0.004417419,-0.000286102,0.008182526,0,
00:05.3,-0.004411697,-0.000291824,0.008199692,0,
00:05.3,-0.004400253,-0.000274658,0.008205414,0,
00:05.3,-0.004405975,-0.000268936,0.008205414,0,
00:05.3,-0.004405975,-0.000263214,0.008199692,0,
00:05.3,-0.004417419,-0.00028038,0.008199692,0,
00:05.3,-0.004411697,-0.000291824,0.008199692,0,
00:05.3,-0.004417419,-0.000286102,0.008188248,0,
00:05.3,-0.004400253,-0.000286102,0.008199692,0,
00:05.3,-0.004411697,-0.000268936,0.00819397,0,
00:05.3,-0.004411697,-0.000274658,0.008188248,0,
00:05.3,-0.004400253,-0.000291824,0.008182526,0,
00:05.3,-0.004423141,-0.000291824,0.008188248,0,
00:05.3,-0.004440308,-0.000263214,0.008199692,0,
00:05.3,-0.004417419,-0.000268936,0.008176804,0,
00:05.3,-0.004377365,-0.000274658,0.008188248,0,
00:05.3,-0.004383087,-0.000268936,0.008188248,0,
00:05.3,-0.004400253,-0.00028038,0.00819397,0,
00:05.3,-0.004388809,-0.00025177,0.008182526,0,
00:05.3,-0.004377365,-0.000274658,0.008182526,0,
00:05.3,-0.004388809,-0.00030899,0.008176804,0,
00:05.3,-0.004405975,-0.000274658,0.00819397,0,
00:05.3,-0.004411697,-0.000286102,0.008205414,0,
00:05.3,-0.004377365,-0.000286102,0.008199692,0,
00:05.4,-0.004365921,-0.000257492,0.008205414,0,
00:05.4,-0.004388809,-0.000257492,0.008176804,0,
00:05.4,-0.004400253,-0.00028038,0.008171082,0,
00:05.4,-0.004377365,-0.000274658,0.008182526,0,
00:05.4,-0.004400253,-0.000268936,0.008182526,0,
00:05.4,-0.004405975,-0.000274658,0.008159637,0,
00:05.4,-0.004417419,-0.00028038,0.008159637,0,
00:05.4,-0.004417419,-0.00028038,0.008176804,0,
00:05.4,-0.004411697,-0.00028038,0.008176804,0,
00:05.4,-0.004388809,-0.000263214,0.008176804,0,
00:05.4,-0.004371643,-0.000263214,0.008165359,0,
00:05.4,-0.004405975,-0.00028038,0.00819397,0,
00:05.4,-0.004417419,-0.000291824,0.00819397,0,
00:05.4,-0.004417419,-0.00028038,0.008165359,0,
00:05.4,-0.004440308,-0.00028038,0.008188248,0,
00:05.4,-0.004417419,-0.000286102,0.008165359,0,
00:05.4,-0.004394531,-0.000268936,0.008159637,0,
00:05.4,-0.004371643,-0.000257492,0.008171082,0,
00:05.4,-0.004371643,-0.00028038,0.008176804,0,
00:05.4,-0.004383087,-0.000286102,0.008165359,0,
00:05.4,-0.004388809,-0.000263214,0.008182526,0,
00:05.4,-0.004383087,-0.000268936,0.008165359,0,
00:05.4,-0.004377365,-0.000246048,0.008165359,0,
00:05.4,-0.004383087,-0.000274658,0.008165359,0,
00:05.4,-0.004365921,-0.000303268,0.008148193,0,
00:05.5,-0.004400253,-0.000274658,0.008165359,0,
00:05.5,-0.004405975,-0.000268936,0.008171082,0,
00:05.5,-0.004388809,-0.000286102,0.008182526,0,
00:05.5,-0.004377365,-0.000257492,0.008165359,0,
00:05.5,-0.004383087,-0.000257492,0.008153915,0,
00:05.5,-0.004400253,-0.00028038,0.008159637,0,
00:05.5,-0.004394531,-0.000286102,0.008165359,0,
00:05.5,-0.004394531,-0.000297546,0.008165359,0,
00:05.5,-0.004400253,-0.00028038,0.008148193,0,
00:05.5,-0.004400253,-0.000257492,0.008125305,0,
00:05.5,-0.004400253,-0.00028038,0.008159637,0,
00:05.5,-0.004405975,-0.00028038,0.008165359,0,
00:05.5,-0.004417419,-0.000274658,0.008165359,0,
00:05.5,-0.004400253,-0.000274658,0.008165359,0,
00:05.5,-0.004383087,-0.000263214,0.008159637,0,
00:05.5,-0.004383087,-0.000257492,0.008153915,0,
00:05.5,-0.004388809,-0.000268936,0.008176804,0,
00:05.5,-0.004377365,-0.000291824,0.008148193,0,
00:05.5,-0.004377365,-0.000297546,0.008131027,0,
00:05.5,-0.004377365,-0.000274658,0.008142471,0,
00:05.5,-0.004394531,-0.000257492,0.008153915,0,
00:05.5,-0.004371643,-0.000274658,0.008159637,0,
00:05.5,-0.004388809,-0.000268936,0.008153915,0,
00:05.5,-0.004411697,-0.000263214,0.008153915,0,
00:05.5,-0.004405975,-0.00025177,0.008113861,0,
00:05.6,-0.004388809,-0.000274658,0.008153915,0,
00:05.6,-0.004371643,-0.00028038,0.008159637,0,
00:05.6,-0.004383087,-0.000268936,0.008142471,0,
00:05.6,-0.004383087,-0.000263214,0.008142471,0,
00:05.6,-0.004365921,-0.00025177,0.008148193,0,
00:05.6,-0.004365921,-0.000268936,0.008165359,0,
00:05.6,-0.004383087,-0.000291824,0.008165359,0,
00:05.6,-0.004377365,-0.000291824,0.008125305,0,
00:05.6,-0.004394531,-0.000263214,0.008136749,0,
00:05.6,-0.004400253,-0.000257492,0.008153915,0,
00:05.6,-0.004405975,-0.000263214,0.008142471,0,
00:05.6,-0.004400253,-0.000274658,0.008131027,0,
00:05.6,-0.004383087,-0.000291824,0.008136749,0,
00:05.6,-0.004383087,-0.000297546,0.008153915,0,
00:05.6,-0.004405975,-0.000268936,0.008182526,0,
00:05.6,-0.004417419,-0.00025177,0.008165359,0,
00:05.6,-0.004400253,-0.000257492,0.008136749,0,
00:05.6,-0.004377365,-0.000274658,0.008125305,0,
00:05.6,-0.004365921,-0.000274658,0.008119583,0,
00:05.6,-0.004343033,-0.00028038,0.008119583,0,
00:05.6,-0.004383087,-0.000286102,0.008125305,0,
00:05.6,-0.004411697,-0.00028038,0.008142471,0,
00:05.6,-0.004411697,-0.000286102,0.008153915,0,
00:05.6,-0.004388809,-0.000268936,0.008131027,0,
00:05.6,-0.004383087,-0.000257492,0.008108139,0,
00:05.7,-0.004388809,-0.000268936,0.008119583,0,
00:05.7,-0.004383087,-0.000268936,0.008119583,0,
00:05.7,-0.004394531,-0.000286102,0.008148193,0,
00:05.7,-0.004377365,-0.000274658,0.008119583,0,
00:05.7,-0.004377365,-0.000263214,0.008136749,0,
00:05.7,-0.004360199,-0.000268936,0.008153915,0,
00:05.7,-0.004365921,-0.000263214,0.008136749,0,
00:05.7,-0.004383087,-0.000263214,0.008125305,0,
00:05.7,-0.004388809,-0.00028038,0.008119583,0,
00:05.7,-0.004400253,-0.000297546,0.008125305,0,
00:05.7,-0.004383087,-0.000274658,0.008131027,0,
00:05.7,-0.004371643,-0.000268936,0.008131027,0,
00:05.7,-0.004371643,-0.00028038,0.008119583,0,
00:05.7,-0.004377365,-0.000268936,0.008136749,0,
00:05.7,-0.004360199,-0.000274658,0.008125305,0,
00:05.7,-0.004388809,-0.000268936,0.008108139,0,
00:05.7,-0.004411697,-0.000246048,0.008113861,0,
00:05.7,-0.004411697,-0.000268936,0.008096695,0,
00:05.7,-0.004394531,-0.00028038,0.008125305,0,
00:05.7,-0.004388809,-0.000268936,0.008125305,0,
00:05.7,-0.004365921,-0.00028038,0.008131027,0,
00:05.7,-0.004348755,-0.000274658,0.008131027,0,
00:05.7,-0.004377365,-0.000274658,0.008125305,0,
00:05.7,-0.004377365,-0.000268936,0.008125305,0,
00:05.7,-0.004383087,-0.000268936,0.008102417,0,
00:05.8,-0.004388809,-0.000291824,0.008119583,0,
00:05.8,-0.004383087,-0.000274658,0.008125305,0,
00:05.8,-0.004377365,-0.000268936,0.008102417,0,
00:05.8,-0.004337311,-0.000274658,0.008108139,0,
00:05.8,-0.004348755,-0.000263214,0.008136749,0,
00:05.8,-0.004377365,-0.000257492,0.008113861,0,
00:05.8,-0.004394531,-0.000268936,0.008108139,0,
00:05.8,-0.004394531,-0.000268936,0.008085251,0,
00:05.8,-0.004371643,-0.000268936,0.008113861,0,
00:05.8,-0.004348755,-0.000297546,0.008119583,0,
00:05.8,-0.004377365,-0.000303268,0.008096695,0,
00:05.8,-0.004377365,-0.000274658,0.008113861,0,
00:05.8,-0.004377365,-0.000268936,0.008131027,0,
00:05.8,-0.004388809,-0.000274658,0.008096695,0,
00:05.8,-0.004383087,-0.000268936,0.008079529,0,
00:05.8,-0.004371643,-0.000268936,0.008102417,0,
00:05.8,-0.004348755,-0.000263214,0.008102417,0,
00:05.8,-0.004360199,-0.000263214,0.008108139,0,
00:05.8,-0.004371643,-0.000268936,0.008096695,0,
00:05.8,-0.004360199,-0.000268936,0.008096695,0,
00:05.8,-0.004383087,-0.00025177,0.008125305,0,
00:05.8,-0.004371643,-0.000263214,0.008119583,0,
00:05.8,-0.004348755,-0.000274658,0.008108139,0,
00:05.8,-0.004343033,-0.000274658,0.008073807,0,
00:05.8,-0.004360199,-0.000274658,0.008090973,0,
00:05.9,-0.004377365,-0.000274658,0.008079529,0,
00:05.9,-0.004394531,-0.000274658,0.008131027,0,
00:05.9,-0.004388809,-0.000274658,0.008119583,0,
00:05.9,-0.004371643,-0.000268936,0.008090973,0,
00:05.9,-0.004354477,-0.000274658,0.008079529,0,
00:05.9,-0.004371643,-0.00025177,0.008113861,0,
00:05.9,-0.004388809,-0.000274658,0.008108139,0,
00:05.9,-0.004348755,-0.000286102,0.008096695,0,
00:05.9,-0.004337311,-0.000291824,0.008073807,0,
00:05.9,-0.004343033,-0.00028038,0.008073807,0,
00:05.9,-0.004371643,-0.000268936,0.008062363,0,
00:05.9,-0.004405975,-0.000286102,0.008119583,0,
00:05.9,-0.004394531,-0.000268936,0.008108139,0,
00:05.9,-0.004371643,-0.000263214,0.008085251,0,
00:05.9,-0.004360199,-0.000257492,0.008108139,0,
00:05.9,-0.004354477,-0.000268936,0.008102417,0,
00:05.9,-0.004343033,-0.000268936,0.008068085,0,
00:05.9,-0.004365921,-0.000274658,0.008073807,0,
00:05.9,-0.004348755,-0.000268936,0.008090973,0,
00:05.9,-0.004343033,-0.000286102,0.008125305,0,
00:05.9,-0.004365921,-0.000268936,0.008125305,0,
00:05.9,-0.004377365,-0.000274658,0.008102417,0,
00:05.9,-0.004365921,-0.00028038,0.008079529,0,
00:05.9,-0.004348755,-0.000263214,0.008062363,0,
00:05.9,-0.004348755,-0.000268936,0.008113861,0,
00:06.0,-0.004337311,-0.000274658,0.008090973,0,
00:06.0,-0.004377365,-0.00028038,0.008090973,0,
00:06.0,-0.004377365,-0.000303268,0.008090973,0,
00:06.0,-0.004371643,-0.000286102,0.008056641,0,
00:06.0,-0.004360199,-0.000263214,0.008079529,0,
00:06.0,-0.004331589,-0.000274658,0.008085251,0,
00:06.0,-0.004343033,-0.000291824,0.008102417,0,
00:06.0,-0.004365921,-0.000286102,0.008096695,0,
00:06.0,-0.004371643,-0.000268936,0.008085251,0,
00:06.0,-0.004365921,-0.000274658,0.008079529,0,
00:06.0,-0.004360199,-0.000268936,0.008090973,0,
00:06.0,-0.004354477,-0.000263214,0.008068085,0,
00:00:06,-0.004348755,-0.000274658,0.008079529,0,
00:06.0,-0.004360199,-0.000286102,0.008113861,0,
00:06.0,-0.004377365,-0.00028038,0.008096695,0,
00:06.0,-0.004354477,-0.000263214,0.008108139,0,
00:06.0,-0.004348755,-0.000274658,0.008079529,0,
00:06.0,-0.004365921,-0.000274658,0.008045197,0,
00:06.0,-0.004360199,-0.000274658,0.008068085,0,
00:06.0,-0.004343033,-0.000274658,0.008085251,0,
00:06.0,-0.004348755,-0.000274658,0.008090973,0,
00:06.0,-0.004365921,-0.000274658,0.008068085,0,
00:06.0,-0.004360199,-0.000263214,0.008068085,0,
00:06.0,-0.004348755,-0.000257492,0.008079529,0,
00:06.0,-0.004343033,-0.00028038,0.008119583,0,
00:06.1,-0.004325867,-0.000286102,0.008079529,0,
00:06.1,-0.004343033,-0.000286102,0.008062363,0,
00:06.1,-0.004360199,-0.000291824,0.008079529,0,
00:06.1,-0.004394531,-0.000286102,0.008096695,0,
00:06.1,-0.004394531,-0.000268936,0.008085251,0,
00:06.1,-0.004343033,-0.000268936,0.008085251,0,
00:06.1,-0.004331589,-0.000257492,0.008079529,0,
00:06.1,-0.004343033,-0.000263214,0.008056641,0,
00:06.1,-0.004337311,-0.000286102,0.008073807,0,
00:06.1,-0.004331589,-0.000268936,0.008096695,0,
00:06.1,-0.004354477,-0.000263214,0.008079529,0,
00:06.1,-0.004365921,-0.000274658,0.008062363,0,
00:06.1,-0.004383087,-0.000263214,0.008033752,0,
00:06.1,-0.004354477,-0.000263214,0.008039474,0,
00:06.1,-0.004325867,-0.000274658,0.008068085,0,
00:06.1,-0.004331589,-0.000274658,0.008085251,0,
00:06.1,-0.004325867,-0.00028038,0.008079529,0,
00:06.1,-0.004331589,-0.000286102,0.008090973,0,
00:06.1,-0.004377365,-0.000268936,0.008062363,0,
00:06.1,-0.004400253,-0.000257492,0.008050919,0,
00:06.1,-0.004377365,-0.000240326,0.008085251,0,
00:06.1,-0.004331589,-0.00028038,0.008045197,0,
00:06.1,-0.004308701,-0.000274658,0.008085251,0,
00:06.1,-0.004331589,-0.000274658,0.008079529,0,
00:06.1,-0.004360199,-0.00028038,0.008073807,0,
00:06.2,-0.004354477,-0.000268936,0.008073807,0,
00:06.2,-0.004320145,-0.000274658,0.008073807,0,
00:06.2,-0.004331589,-0.000274658,0.008039474,0,
00:06.2,-0.004365921,-0.000274658,0.008033752,0,
00:06.2,-0.004377365,-0.000274658,0.008050919,0,
00:06.2,-0.004371643,-0.000263214,0.008050919,0,
00:06.2,-0.004348755,-0.000263214,0.008050919,0,
00:06.2,-0.004308701,-0.000274658,0.008068085,0,
00:06.2,-0.004331589,-0.000257492,0.008090973,0,
00:06.2,-0.004354477,-0.000263214,0.008045197,0,
00:06.2,-0.004354477,-0.000257492,0.008050919,0,
00:06.2,-0.004354477,-0.000274658,0.008062363,0,
00:06.2,-0.004325867,-0.000286102,0.008056641,0,
00:06.2,-0.004302979,-0.000274658,0.008050919,0,
00:06.2,-0.004320145,-0.00028038,0.008056641,0,
00:06.2,-0.004371643,-0.00028038,0.00802803,0,
00:06.2,-0.004377365,-0.000274658,0.008050919,0,
00:06.2,-0.004348755,-0.000268936,0.008050919,0,
00:06.2,-0.004337311,-0.000268936,0.008045197,0,
00:06.2,-0.004343033,-0.000268936,0.008079529,0,
00:06.2,-0.004371643,-0.000263214,0.008056641,0,
00:06.2,-0.004371643,-0.000263214,0.008050919,0,
00:06.2,-0.004331589,-0.000263214,0.008079529,0,
00:06.2,-0.004308701,-0.00025177,0.008068085,0,
00:06.2,-0.004331589,-0.000263214,0.008056641,0,
00:06.3,-0.004348755,-0.000268936,0.008033752,0,
00:06.3,-0.004337311,-0.000268936,0.008033752,0,
00:06.3,-0.004337311,-0.00028038,0.008068085,0,
00:06.3,-0.004348755,-0.000268936,0.008056641,0,
00:06.3,-0.004354477,-0.000257492,0.008050919,0,
00:06.3,-0.004337311,-0.000263214,0.008056641,0,
00:06.3,-0.004325867,-0.000257492,0.008045197,0,
00:06.3,-0.004337311,-0.000263214,0.008056641,0,
00:06.3,-0.004348755,-0.000274658,0.008045197,0,
00:06.3,-0.004354477,-0.00025177,0.008010864,0,
00:06.3,-0.004337311,-0.00025177,0.008045197,0,
00:06.3,-0.004314423,-0.000263214,0.008068085,0,
00:06.3,-0.004325867,-0.000274658,0.008039474,0,
00:06.3,-0.004343033,-0.000263214,0.008056641,0,
00:06.3,-0.004343033,-0.000257492,0.008056641,0,
00:06.3,-0.004354477,-0.000257492,0.008056641,0,
00:06.3,-0.004360199,-0.000268936,0.008050919,0,
00:06.3,-0.004348755,-0.000274658,0.008039474,0,
00:06.3,-0.004320145,-0.000268936,0.00802803,0,
00:06.3,-0.004308701,-0.000268936,0.008045197,0,
00:06.3,-0.004325867,-0.00025177,0.008022308,0,
00:06.3,-0.004331589,-0.000257492,0.008016586,0,
00:06.3,-0.004325867,-0.000257492,0.008050919,0,
00:06.3,-0.004314423,-0.000257492,0.008073807,0,
00:06.3,-0.004320145,-0.000274658,0.008045197,0,
00:06.4,-0.004343033,-0.000257492,0.00802803,0,
00:06.4,-0.004343033,-0.000257492,0.008016586,0,
00:06.4,-0.004348755,-0.000263214,0.008033752,0,
00:06.4,-0.004331589,-0.000286102,0.008033752,0,
00:06.4,-0.004320145,-0.000274658,0.008056641,0,
00:06.4,-0.004291534,-0.00022316,0.008062363,0,
00:06.4,-0.004314423,-0.000268936,0.00799942,0,
00:06.4,-0.004348755,-0.000263214,0.008022308,0,
00:06.4,-0.004354477,-0.00025177,0.008045197,0,
00:06.4,-0.004343033,-0.000257492,0.008039474,0,
00:06.4,-0.004331589,-0.000257492,0.008033752,0,
00:06.4,-0.004314423,-0.000274658,0.008010864,0,
00:06.4,-0.004331589,-0.000263214,0.00799942,0,
00:06.4,-0.004354477,-0.000263214,0.00799942,0,
00:06.4,-0.004314423,-0.00028038,0.008045197,0,
00:06.4,-0.004331589,-0.000257492,0.008033752,0,
00:06.4,-0.004348755,-0.00025177,0.008045197,0,
00:06.4,-0.004325867,-0.000257492,0.008050919,0,
00:06.4,-0.004302979,-0.000257492,0.008056641,0,
00:06.4,-0.004302979,-0.000257492,0.008039474,0,
00:06.4,-0.004314423,-0.000268936,0.008022308,0,
00:06.4,-0.004331589,-0.000268936,0.008016586,0,
00:06.4,-0.004337311,-0.000268936,0.008016586,0,
00:06.4,-0.004331589,-0.000263214,0.008022308,0,
00:06.4,-0.004348755,-0.000263214,0.008022308,0,
00:06.5,-0.004343033,-0.00025177,0.00802803,0,
00:06.5,-0.004325867,-0.00025177,0.00799942,0,
00:06.5,-0.004314423,-0.000246048,0.008005142,0,
00:06.5,-0.004297256,-0.00025177,0.008033752,0,
00:06.5,-0.004302979,-0.000257492,0.008016586,0,
00:06.5,-0.004314423,-0.00028038,0.00799942,0,
00:06.5,-0.004314423,-0.00028038,0.008033752,0,
00:06.5,-0.004325867,-0.00028038,0.008005142,0,
00:06.5,-0.004337311,-0.00025177,0.008033752,0,
00:06.5,-0.004354477,-0.000234604,0.008033752,0,
00:06.5,-0.004337311,-0.000274658,0.007993698,0,
00:06.5,-0.004314423,-0.000263214,0.008010864,0,
00:06.5,-0.004365921,-0.000217438,0.008033752,0,
00:06.5,-0.004348755,-0.000246048,0.008022308,0,
00:06.5,-0.004285812,-0.000263214,0.00802803,0,
00:06.5,-0.00428009,-0.000268936,0.00802803,0,
00:06.5,-0.004297256,-0.000286102,0.008005142,0,
00:06.5,-0.004320145,-0.000263214,0.007993698,0,
00:06.5,-0.004297256,-0.000234604,0.007987976,0,
00:06.5,-0.004302979,-0.00025177,0.007987976,0,
00:06.5,-0.004314423,-0.000263214,0.008033752,0,
00:06.5,-0.004337311,-0.000263214,0.008039474,0,
00:06.5,-0.004331589,-0.000263214,0.00799942,0,
00:06.5,-0.004302979,-0.000274658,0.008010864,0,
00:06.5,-0.004297256,-0.000268936,0.008010864,0,
00:06.6,-0.004314423,-0.000234604,0.00799942,0,
00:06.6,-0.004291534,-0.00025177,0.008010864,0,
00:06.6,-0.004325867,-0.000240326,0.008016586,0,
00:06.6,-0.004337311,-0.000257492,0.008022308,0,
00:06.6,-0.004331589,-0.00025177,0.008022308,0,
00:06.6,-0.004314423,-0.000257492,0.008010864,0,
00:06.6,-0.004308701,-0.000274658,0.00799942,0,
00:06.6,-0.004291534,-0.000234604,0.00799942,0,
00:06.6,-0.004291534,-0.000257492,0.007987976,0,
00:06.6,-0.004308701,-0.00025177,0.008010864,0,
00:06.6,-0.004320145,-0.000286102,0.008010864,0,
00:06.6,-0.004325867,-0.000274658,0.008005142,0,
00:06.6,-0.004325867,-0.000263214,0.008022308,0,
00:06.6,-0.004314423,-0.000263214,0.008016586,0,
00:06.6,-0.004308701,-0.000246048,0.00799942,0,
00:06.6,-0.004320145,-0.00025177,0.008010864,0,
00:06.6,-0.004314423,-0.00025177,0.007993698,0,
00:06.6,-0.004314423,-0.000257492,0.00799942,0,
00:06.6,-0.004308701,-0.000263214,0.008005142,0,
00:06.6,-0.004320145,-0.000257492,0.008016586,0,
00:06.6,-0.004325867,-0.000246048,0.007982254,0,
00:06.6,-0.004291534,-0.000240326,0.0079422,0,
00:06.6,-0.004274368,-0.00025177,0.007965088,0,
00:06.6,-0.004285812,-0.00025177,0.008016586,0,
00:06.6,-0.004291534,-0.00025177,0.00802803,0,
00:06.7,-0.004337311,-0.000246048,0.007987976,0,
00:06.7,-0.004325867,-0.000268936,0.00797081,0,
00:06.7,-0.004308701,-0.000268936,0.00799942,0,
00:06.7,-0.004320145,-0.000274658,0.008005142,0,
00:06.7,-0.004325867,-0.000234604,0.008022308,0,
00:06.7,-0.004320145,-0.000240326,0.008005142,0,
00:06.7,-0.004274368,-0.00025177,0.00797081,0,
00:06.7,-0.004268646,-0.000263214,0.007982254,0,
00:06.7,-0.00428009,-0.000246048,0.007976532,0,
00:06.7,-0.004325867,-0.000263214,0.008005142,0,
00:06.7,-0.004314423,-0.000246048,0.008016586,0,
00:06.7,-0.004302979,-0.000268936,0.00797081,0,
00:06.7,-0.004285812,-0.000268936,0.00797081,0,
00:06.7,-0.004308701,-0.000234604,0.007987976,0,
00:06.7,-0.004302979,-0.000246048,0.007959366,0,
00:06.7,-0.004320145,-0.000246048,0.007959366,0,
00:06.7,-0.004308701,-0.000240326,0.00799942,0,
00:06.7,-0.004268646,-0.000246048,0.007993698,0,
00:06.7,-0.004274368,-0.000234604,0.007982254,0,
00:06.7,-0.004302979,-0.000234604,0.00799942,0,
00:06.7,-0.004308701,-0.00025177,0.007993698,0,
00:06.7,-0.004314423,-0.000263214,0.007982254,0,
00:06.7,-0.004331589,-0.000268936,0.007965088,0,
00:06.7,-0.004320145,-0.000263214,0.00797081,0,
00:06.7,-0.004302979,-0.000257492,0.008010864,0,
00:06.8,-0.004285812,-0.000240326,0.00799942,0,
00:06.8,-0.00428009,-0.000246048,0.00797081,0,
00:06.8,-0.004302979,-0.000246048,0.007936478,0,
00:06.8,-0.004285812,-0.000240326,0.007976532,0,
00:06.8,-0.004285812,-0.00025177,0.007987976,0,
00:06.8,-0.004291534,-0.00025177,0.007976532,0,
00:06.8,-0.004274368,-0.00025177,0.007976532,0,
00:06.8,-0.004285812,-0.000246048,0.007959366,0,
00:06.8,-0.004285812,-0.00025177,0.007982254,0,
00:06.8,-0.004297256,-0.00025177,0.007987976,0,
00:06.8,-0.004308701,-0.00025177,0.00797081,0,
00:06.8,-0.004302979,-0.000263214,0.007959366,0,
00:06.8,-0.004262924,-0.000257492,0.007959366,0,
00:06.8,-0.004285812,-0.00025177,0.00797081,0,
00:06.8,-0.004308701,-0.000240326,0.007982254,0,
00:06.8,-0.004297256,-0.000240326,0.007976532,0,
00:06.8,-0.004297256,-0.000257492,0.00797081,0,
00:06.8,-0.004291534,-0.00025177,0.007965088,0,
00:06.8,-0.004297256,-0.000240326,0.007953644,0,
00:06.8,-0.004297256,-0.000240326,0.007976532,0,
00:06.8,-0.004268646,-0.000240326,0.007965088,0,
00:06.8,-0.004262924,-0.000257492,0.0079422,0,
00:06.8,-0.004262924,-0.000263214,0.007959366,0,
00:06.8,-0.004268646,-0.000274658,0.007982254,0,
00:06.8,-0.00428009,-0.000268936,0.00797081,0,
00:06.9,-0.004302979,-0.000240326,0.00797081,0,
00:06.9,-0.004302979,-0.000240326,0.007976532,0,
00:06.9,-0.004291534,-0.000246048,0.007959366,0,
00:06.9,-0.004302979,-0.00025177,0.007947922,0,
00:06.9,-0.004314423,-0.000263214,0.007965088,0,
00:06.9,-0.004308701,-0.00025177,0.007959366,0,
00:06.9,-0.004274368,-0.000240326,0.007965088,0,
00:06.9,-0.004257202,-0.000240326,0.007953644,0,
00:06.9,-0.004274368,-0.000240326,0.007965088,0,
00:06.9,-0.004274368,-0.000257492,0.007965088,0,
00:06.9,-0.00428009,-0.000263214,0.007953644,0,
00:06.9,-0.004274368,-0.000240326,0.007947922,0,
00:06.9,-0.004268646,-0.000246048,0.00797081,0,
00:06.9,-0.004285812,-0.000257492,0.00797081,0,
00:06.9,-0.004297256,-0.000257492,0.007959366,0,
00:06.9,-0.004297256,-0.000257492,0.0079422,0,
00:06.9,-0.00428009,-0.000263214,0.007953644,0,
00:06.9,-0.004257202,-0.000240326,0.00797081,0,
00:06.9,-0.004268646,-0.000228882,0.007959366,0,
00:06.9,-0.004291534,-0.000240326,0.007965088,0,
00:06.9,-0.004285812,-0.000246048,0.007959366,0,
00:06.9,-0.004291534,-0.000268936,0.007982254,0,
00:06.9,-0.004268646,-0.000268936,0.007965088,0,
00:06.9,-0.00428009,-0.000240326,0.007965088,0,
00:06.9,-0.004268646,-0.000234604,0.007953644,0,
00:07.0,-0.004297256,-0.000246048,0.007959366,0,
00:07.0,-0.00428009,-0.000257492,0.007953644,0,
00:07.0,-0.004274368,-0.000257492,0.007953644,0,
00:07.0,-0.004302979,-0.000246048,0.007936478,0,
00:07.0,-0.004325867,-0.000240326,0.007947922,0,
00:07.0,-0.004291534,-0.000246048,0.007947922,0,
00:07.0,-0.004268646,-0.00025177,0.007947922,0,
00:07.0,-0.004274368,-0.000246048,0.0079422,0,
00:07.0,-0.004285812,-0.000246048,0.007896423,0,
00:07.0,-0.004274368,-0.00025177,0.007919312,0,
00:07.0,-0.004262924,-0.00025177,0.007947922,0,
00:07.0,-0.004262924,-0.000246048,0.007982254,0,
00:00:07,-0.004257202,-0.000211716,0.00797081,0,
00:07.0,-0.004245758,-0.000234604,0.007953644,0,
00:07.0,-0.004257202,-0.000263214,0.007965088,0,
00:07.0,-0.00428009,-0.000263214,0.007953644,0,
00:07.0,-0.004302979,-0.000263214,0.007947922,0,
00:07.0,-0.004285812,-0.000234604,0.007953644,0,
00:07.0,-0.004262924,-0.000246048,0.00797081,0,
00:07.0,-0.004268646,-0.000246048,0.0079422,0,
00:07.0,-0.004262924,-0.00022316,0.007930756,0,
00:07.0,-0.004245758,-0.000257492,0.007930756,0,
00:07.0,-0.004257202,-0.000263214,0.0079422,0,
00:07.0,-0.00428009,-0.000234604,0.007947922,0,
00:07.0,-0.004262924,-0.000228882,0.007976532,0,
00:07.1,-0.004268646,-0.00025177,0.007987976,0,
00:07.1,-0.004302979,-0.000257492,0.007953644,0,
00:07.1,-0.004297256,-0.000263214,0.0079422,0,
00:07.1,-0.004268646,-0.000240326,0.0079422,0,
00:07.1,-0.004257202,-0.000228882,0.007925034,0,
00:07.1,-0.004274368,-0.000246048,0.007936478,0,
00:07.1,-0.004291534,-0.000257492,0.007947922,0,
00:07.1,-0.004285812,-0.00025177,0.007936478,0,
00:07.1,-0.004302979,-0.000257492,0.007930756,0,
00:07.1,-0.004302979,-0.000240326,0.007953644,0,
00:07.1,-0.004285812,-0.000234604,0.007965088,0,
00:07.1,-0.004257202,-0.000246048,0.007953644,0,
00:07.1,-0.004240036,-0.000240326,0.007953644,0,
00:07.1,-0.004228592,-0.000240326,0.007936478,0,
00:07.1,-0.004257202,-0.000234604,0.0079422,0,
00:07.1,-0.004262924,-0.00025177,0.0079422,0,
00:07.1,-0.004245758,-0.000263214,0.0079422,0,
00:07.1,-0.004262924,-0.00025177,0.0079422,0,
00:07.1,-0.00428009,-0.000240326,0.007947922,0,
00:07.1,-0.00428009,-0.00025177,0.007930756,0,
00:07.1,-0.00428009,-0.00025177,0.007919312,0,
00:07.1,-0.004274368,-0.000240326,0.007965088,0,
00:07.1,-0.004245758,-0.000240326,0.007965088,0,
00:07.1,-0.004228592,-0.00025177,0.007930756,0,
00:07.1,-0.004262924,-0.000234604,0.007930756,0,
00:07.2,-0.004268646,-0.000228882,0.007930756,0,
00:07.2,-0.00428009,-0.000234604,0.007925034,0,
00:07.2,-0.004297256,-0.000246048,0.007947922,0,
00:07.2,-0.004285812,-0.000234604,0.0079422,0,
00:07.2,-0.004285812,-0.00025177,0.007930756,0,
00:07.2,-0.004268646,-0.00025177,0.007907867,0,
00:07.2,-0.004257202,-0.000240326,0.007919312,0,
00:07.2,-0.00425148,-0.000240326,0.007925034,0,
00:07.2,-0.00425148,-0.000217438,0.007919312,0,
00:07.2,-0.004268646,-0.000240326,0.007925034,0,
00:07.2,-0.004274368,-0.000257492,0.007936478,0,
00:07.2,-0.004262924,-0.000246048,0.0079422,0,
00:07.2,-0.00425148,-0.000240326,0.0079422,0,
00:07.2,-0.004257202,-0.000257492,0.007919312,0,
00:07.2,-0.004245758,-0.00025177,0.007930756,0,
00:07.2,-0.00422287,-0.000228882,0.007936478,0,
00:07.2,-0.004234314,-0.000228882,0.007925034,0,
00:07.2,-0.004274368,-0.000234604,0.007919312,0,
00:07.2,-0.004245758,-0.000246048,0.007913589,0,
00:07.2,-0.004234314,-0.000257492,0.007913589,0,
00:07.2,-0.00428009,-0.000246048,0.007913589,0,
00:07.2,-0.004308701,-0.000234604,0.007919312,0,
00:07.2,-0.004274368,-0.00025177,0.007925034,0,
00:07.2,-0.004257202,-0.000240326,0.0079422,0,
00:07.2,-0.004274368,-0.000234604,0.007930756,0,
00:07.3,-0.004268646,-0.000246048,0.007919312,0,
00:07.3,-0.004257202,-0.000234604,0.007919312,0,
00:07.3,-0.004240036,-0.000228882,0.007907867,0,
00:07.3,-0.004234314,-0.000234604,0.007907867,0,
00:07.3,-0.004245758,-0.000246048,0.007919312,0,
00:07.3,-0.004274368,-0.000240326,0.007890701,0,
00:07.3,-0.004268646,-0.000234604,0.007930756,0,
00:07.3,-0.004262924,-0.000246048,0.007930756,0,
00:07.3,-0.004274368,-0.000246048,0.007913589,0,
00:07.3,-0.00428009,-0.000228882,0.007925034,0,
00:07.3,-0.004262924,-0.000234604,0.007919312,0,
00:07.3,-0.004240036,-0.000240326,0.007879257,0,
00:07.3,-0.004234314,-0.000228882,0.007902145,0,
00:07.3,-0.004228592,-0.000228882,0.007925034,0,
00:07.3,-0.004245758,-0.000228882,0.007907867,0,
00:07.3,-0.004245758,-0.000257492,0.007913589,0,
00:07.3,-0.00425148,-0.00025177,0.007930756,0,
00:07.3,-0.004268646,-0.00025177,0.007919312,0,
00:07.3,-0.004257202,-0.000246048,0.007925034,0,
00:07.3,-0.004262924,-0.00022316,0.007925034,0,
00:07.3,-0.004274368,-0.00022316,0.007919312,0,
00:07.3,-0.004245758,-0.000228882,0.007913589,0,
00:07.3,-0.004234314,-0.000240326,0.007907867,0,
00:07.3,-0.004245758,-0.000234604,0.007902145,0,
00:07.3,-0.004257202,-0.000234604,0.007925034,0,
00:07.4,-0.004240036,-0.000234604,0.007925034,0,
00:07.4,-0.004228592,-0.000246048,0.007925034,0,
00:07.4,-0.004234314,-0.000240326,0.007907867,0,
00:07.4,-0.004245758,-0.000234604,0.007913589,0,
00:07.4,-0.004245758,-0.000240326,0.007930756,0,
00:07.4,-0.00425148,-0.000246048,0.007925034,0,
00:07.4,-0.004268646,-0.000240326,0.007902145,0,
00:07.4,-0.004257202,-0.000217438,0.007879257,0,
00:07.4,-0.004240036,-0.000234604,0.007907867,0,
00:07.4,-0.004234314,-0.000240326,0.007919312,0,
00:07.4,-0.004240036,-0.000217438,0.007919312,0,
00:07.4,-0.00425148,-0.000228882,0.007925034,0,
00:07.4,-0.004240036,-0.000234604,0.007907867,0,
00:07.4,-0.004234314,-0.000246048,0.007907867,0,
00:07.4,-0.004245758,-0.000257492,0.007936478,0,
00:07.4,-0.00425148,-0.000240326,0.007930756,0,
00:07.4,-0.004240036,-0.000234604,0.007936478,0,
00:07.4,-0.004240036,-0.000240326,0.007913589,0,
00:07.4,-0.004217148,-0.000234604,0.007930756,0,
00:07.4,-0.004228592,-0.000228882,0.007925034,0,
00:07.4,-0.004240036,-0.000246048,0.007913589,0,
00:07.4,-0.004240036,-0.00022316,0.007907867,0,
00:07.4,-0.004240036,-0.000228882,0.007907867,0,
00:07.4,-0.004217148,-0.000263214,0.007896423,0,
00:07.4,-0.004245758,-0.00025177,0.007930756,0,
00:07.5,-0.00428009,-0.000234604,0.0079422,0,
00:07.5,-0.004274368,-0.00022316,0.007913589,0,
00:07.5,-0.004240036,-0.00022316,0.007919312,0,
00:07.5,-0.004205704,-0.00022316,0.007925034,0,
00:07.5,-0.004217148,-0.000228882,0.007902145,0,
00:07.5,-0.004234314,-0.000246048,0.007902145,0,
00:07.5,-0.004199982,-0.000234604,0.007936478,0,
00:07.5,-0.004234314,-0.000228882,0.007925034,0,
00:07.5,-0.004262924,-0.000211716,0.007925034,0,
00:07.5,-0.004228592,-0.00022316,0.007907867,0,
00:07.5,-0.004199982,-0.00025177,0.007896423,0,
00:07.5,-0.004217148,-0.000240326,0.0079422,0,
00:07.5,-0.00425148,-0.000240326,0.007936478,0,
00:07.5,-0.004245758,-0.000228882,0.007925034,0,
00:07.5,-0.004257202,-0.00022316,0.007919312,0,
00:07.5,-0.00425148,-0.000228882,0.007902145,0,
00:07.5,-0.004234314,-0.000228882,0.007919312,0,
00:07.5,-0.004211426,-0.00022316,0.007902145,0,
00:07.5,-0.004217148,-0.000228882,0.007896423,0,
00:07.5,-0.004217148,-0.000246048,0.007913589,0,
00:07.5,-0.004217148,-0.000240326,0.0079422,0,
00:07.5,-0.00425148,-0.000246048,0.007925034,0,
00:07.5,-0.004228592,-0.000246048,0.007936478,0,
00:07.5,-0.004205704,-0.00022316,0.007936478,0,
00:07.5,-0.00422287,-0.000217438,0.007913589,0,
00:07.6,-0.004228592,-0.000228882,0.007890701,0,
00:07.6,-0.004228592,-0.000228882,0.007896423,0,
00:07.6,-0.004240036,-0.000234604,0.007936478,0,
00:07.6,-0.004234314,-0.000234604,0.007896423,0,
00:07.6,-0.00422287,-0.000240326,0.007925034,0,
00:07.6,-0.00422287,-0.000217438,0.007930756,0,
00:07.6,-0.004205704,-0.000228882,0.007902145,0,
00:07.6,-0.004205704,-0.000234604,0.007913589,0,
00:07.6,-0.004240036,-0.000234604,0.007930756,0,
00:07.6,-0.004240036,-0.000234604,0.007919312,0,
00:07.6,-0.00422287,-0.000240326,0.007930756,0,
00:07.6,-0.004234314,-0.000246048,0.007930756,0,
00:07.6,-0.00425148,-0.000240326,0.007907867,0,
00:07.6,-0.004228592,-0.000211716,0.007907867,0,
00:07.6,-0.004211426,-0.000217438,0.007896423,0,
00:07.6,-0.004217148,-0.00022316,0.007919312,0,
00:07.6,-0.004205704,-0.000234604,0.007930756,0,
00:07.6,-0.00422287,-0.000228882,0.007919312,0,
00:07.6,-0.004217148,-0.00022316,0.007930756,0,
00:07.6,-0.004217148,-0.000228882,0.007913589,0,
00:07.6,-0.004217148,-0.00025177,0.007907867,0,
00:07.6,-0.004205704,-0.00025177,0.007947922,0,
00:07.6,-0.004217148,-0.000211716,0.007925034,0,
00:07.6,-0.004228592,-0.000217438,0.007907867,0,
00:07.6,-0.004205704,-0.000228882,0.007884979,0,
00:07.7,-0.004199982,-0.000240326,0.007930756,0,
00:07.7,-0.004217148,-0.00022316,0.0079422,0,
00:07.7,-0.00422287,-0.000240326,0.007925034,0,
00:07.7,-0.004217148,-0.000205994,0.007890701,0,
00:07.7,-0.00422287,-0.000234604,0.007902145,0,
00:07.7,-0.00419426,-0.000228882,0.007919312,0,
00:07.7,-0.004199982,-0.000228882,0.007902145,0,
00:07.7,-0.004199982,-0.00025177,0.007896423,0,
00:07.7,-0.00422287,-0.00022316,0.007896423,0,
00:07.7,-0.004240036,-0.000211716,0.007919312,0,
00:07.7,-0.004205704,-0.000234604,0.007936478,0,
00:07.7,-0.00419426,-0.000234604,0.007919312,0,
00:07.7,-0.00422287,-0.00022316,0.007873535,0,
00:07.7,-0.00422287,-0.000246048,0.007925034,0,
00:07.7,-0.00419426,-0.000246048,0.007919312,0,
00:07.7,-0.004234314,-0.00022316,0.007919312,0,
00:07.7,-0.004257202,-0.000228882,0.007919312,0,
00:07.7,-0.004217148,-0.00022316,0.007913589,0,
00:07.7,-0.004211426,-0.000217438,0.007890701,0,
00:07.7,-0.004205704,-0.000234604,0.007879257,0,
00:07.7,-0.00419426,-0.000228882,0.007925034,0,
00:07.7,-0.004205704,-0.00022316,0.007936478,0,
00:07.7,-0.004199982,-0.000217438,0.007896423,0,
00:07.7,-0.004188538,-0.000205994,0.007919312,0,
00:07.7,-0.004199982,-0.000217438,0.007925034,0,
00:07.8,-0.00419426,-0.000234604,0.007867813,0,
00:07.8,-0.00419426,-0.000240326,0.007884979,0,
00:07.8,-0.004217148,-0.000211716,0.007925034,0,
00:07.8,-0.004234314,-0.000234604,0.007884979,0,
00:07.8,-0.004211426,-0.000234604,0.007902145,0,
00:07.8,-0.004205704,-0.000217438,0.007902145,0,
00:07.8,-0.004188538,-0.000205994,0.007919312,0,
00:07.8,-0.004171371,-0.000246048,0.007902145,0,
00:07.8,-0.004217148,-0.000246048,0.007867813,0,
00:07.8,-0.004205704,-0.000234604,0.007925034,0,
00:07.8,-0.004205704,-0.00022316,0.007873535,0,
00:07.8,-0.004228592,-0.000217438,0.007884979,0,
00:07.8,-0.004188538,-0.000217438,0.007936478,0,
00:07.8,-0.004171371,-0.00022316,0.007953644,0,
00:07.8,-0.004205704,-0.00025177,0.007936478,0,
00:07.8,-0.004228592,-0.000211716,0.007896423,0,
00:07.8,-0.004240036,-0.00022316,0.007902145,0,
00:07.8,-0.004217148,-0.000228882,0.007896423,0,
00:07.8,-0.00419426,-0.000228882,0.007907867,0,
00:07.8,-0.004171371,-0.00022316,0.007896423,0,
00:07.8,-0.004205704,-0.000228882,0.007902145,0,
00:07.8,-0.004205704,-0.000234604,0.007902145,0,
00:07.8,-0.004205704,-0.000211716,0.007867813,0,
00:07.8,-0.004217148,-0.000211716,0.007896423,0,
00:07.8,-0.004165649,-0.000246048,0.007919312,0,
00:07.9,-0.004199982,-0.000246048,0.007902145,0,
00:07.9,-0.004228592,-0.00022316,0.007913589,0,
00:07.9,-0.004205704,-0.000200272,0.007902145,0,
00:07.9,-0.004159927,-0.000200272,0.007896423,0,
00:07.9,-0.004159927,-0.000211716,0.007879257,0,
00:07.9,-0.004199982,-0.000246048,0.007919312,0,
00:07.9,-0.004199982,-0.000246048,0.007919312,0,
00:07.9,-0.004228592,-0.00022316,0.007884979,0,
00:07.9,-0.004205704,-0.000205994,0.007856369,0,
00:07.9,-0.004171371,-0.000240326,0.0079422,0,
00:07.9,-0.004182816,-0.000246048,0.007919312,0,
00:07.9,-0.004228592,-0.000240326,0.007890701,0,
00:07.9,-0.004240036,-0.00022316,0.007913589,0,
00:07.9,-0.004217148,-0.00022316,0.007902145,0,
00:07.9,-0.004211426,-0.000217438,0.007907867,0,
00:07.9,-0.004211426,-0.000228882,0.007913589,0,
00:07.9,-0.004199982,-0.000211716,0.007902145,0,
00:07.9,-0.004182816,-0.000211716,0.007879257,0,
00:07.9,-0.004182816,-0.000188828,0.007896423,0,
00:07.9,-0.004148483,-0.000200272,0.007913589,0,
00:07.9,-0.004159927,-0.00022316,0.007890701,0,
00:07.9,-0.004188538,-0.000228882,0.007890701,0,
00:07.9,-0.004177094,-0.000246048,0.007890701,0,
00:07.9,-0.004188538,-0.000240326,0.007913589,0,
00:07.9,-0.004234314,-0.000234604,0.007890701,0,
00:08.0,-0.00422287,-0.000217438,0.007884979,0,
00:08.0,-0.004188538,-0.000211716,0.007896423,0,
00:08.0,-0.004154205,-0.000200272,0.007862091,0,
00:08.0,-0.004154205,-0.000200272,0.007879257,0,
00:08.0,-0.004177094,-0.00025177,0.007913589,0,
00:08.0,-0.004205704,-0.00025177,0.007902145,0,
00:08.0,-0.004205704,-0.000228882,0.007884979,0,
00:08.0,-0.004205704,-0.000234604,0.007873535,0,
00:08.0,-0.004199982,-0.000211716,0.007902145,0,
00:08.0,-0.004211426,-0.000217438,0.007919312,0,
00:08.0,-0.004188538,-0.00022316,0.007919312,0,
00:08.0,-0.004182816,-0.000228882,0.007896423,0,
00:00:08,-0.004177094,-0.00022316,0.007873535,0,
00:08.0,-0.004199982,-0.000228882,0.007896423,0,
00:08.0,-0.004217148,-0.000217438,0.007902145,0,
00:08.0,-0.00422287,-0.00022316,0.007907867,0,
00:08.0,-0.004199982,-0.000217438,0.007896423,0,
00:08.0,-0.00419426,-0.000234604,0.007873535,0,
00:08.0,-0.004177094,-0.000240326,0.007907867,0,
00:08.0,-0.004182816,-0.000200272,0.007902145,0,
00:08.0,-0.004165649,-0.000205994,0.007890701,0,
00:08.0,-0.004177094,-0.000205994,0.007902145,0,
00:08.0,-0.00419426,-0.000211716,0.007879257,0,
00:08.0,-0.004188538,-0.000217438,0.007850647,0,
00:08.0,-0.004199982,-0.000234604,0.007902145,0,
00:08.1,-0.004205704,-0.000217438,0.007913589,0,
00:08.1,-0.004188538,-0.00022316,0.007867813,0,
00:08.1,-0.004182816,-0.000217438,0.007879257,0,
00:08.1,-0.004165649,-0.000205994,0.007925034,0,
00:08.1,-0.004165649,-0.000228882,0.007913589,0,
00:08.1,-0.004165649,-0.000263214,0.007884979,0,
00:08.1,-0.004154205,-0.00022316,0.007890701,0,
00:08.1,-0.00419426,-0.000234604,0.007907867,0,
00:08.1,-0.00419426,-0.00022316,0.007879257,0,
00:08.1,-0.00422287,-0.000211716,0.007890701,0,
00:08.1,-0.004199982,-0.000217438,0.007902145,0,
00:08.1,-0.004182816,-0.00022316,0.007896423,0,
00:08.1,-0.004171371,-0.000228882,0.007856369,0,
00:08.1,-0.004177094,-0.00022316,0.007896423,0,
00:08.1,-0.00419426,-0.000211716,0.007919312,0,
00:08.1,-0.004188538,-0.00022316,0.007884979,0,
00:08.1,-0.004188538,-0.000234604,0.007896423,0,
00:08.1,-0.004159927,-0.000211716,0.007884979,0,
00:08.1,-0.004165649,-0.000205994,0.007867813,0,
00:08.1,-0.004171371,-0.000217438,0.007890701,0,
00:08.1,-0.004159927,-0.000234604,0.007856369,0,
00:08.1,-0.004188538,-0.000217438,0.007879257,0,
00:08.1,-0.004165649,-0.000177383,0.007902145,0,
00:08.1,-0.004154205,-0.00022316,0.007907867,0,
00:08.1,-0.00419426,-0.000240326,0.007907867,0,
00:08.2,-0.004205704,-0.000211716,0.007873535,0,
00:08.2,-0.00419426,-0.000211716,0.007896423,0,
00:08.2,-0.004171371,-0.000211716,0.007879257,0,
00:08.2,-0.004142761,-0.00022316,0.007879257,0,
00:08.2,-0.004119873,-0.000228882,0.007884979,0,
00:08.2,-0.004188538,-0.000240326,0.007890701,0,
00:08.2,-0.004188538,-0.000211716,0.007896423,0,
00:08.2,-0.00419426,-0.00019455,0.007890701,0,
00:08.2,-0.004171371,-0.00019455,0.007873535,0,
00:08.2,-0.004154205,-0.000211716,0.007867813,0,
00:08.2,-0.004159927,-0.000200272,0.007884979,0,
00:08.2,-0.004154205,-0.000205994,0.007919312,0,
00:08.2,-0.004159927,-0.000228882,0.007896423,0,
00:08.2,-0.004165649,-0.00025177,0.007884979,0,
00:08.2,-0.004159927,-0.000240326,0.007879257,0,
00:08.2,-0.00419426,-0.000240326,0.007873535,0,
00:08.2,-0.004205704,-0.000228882,0.007867813,0,
00:08.2,-0.004182816,-0.000217438,0.007884979,0,
00:08.2,-0.004171371,-0.000217438,0.007896423,0,
00:08.2,-0.004154205,-0.000205994,0.007884979,0,
00:08.2,-0.004148483,-0.000211716,0.007873535,0,
00:08.2,-0.004159927,-0.000200272,0.007867813,0,
00:08.2,-0.004188538,-0.000211716,0.007873535,0,
00:08.2,-0.004177094,-0.000200272,0.007930756,0,
00:08.2,-0.004182816,-0.00022316,0.007879257,0,
00:08.3,-0.004154205,-0.00025177,0.007862091,0,
00:08.3,-0.004165649,-0.000217438,0.007856369,0,
00:08.3,-0.004188538,-0.000188828,0.007884979,0,
00:08.3,-0.004171371,-0.000217438,0.007907867,0,
00:08.3,-0.004142761,-0.000228882,0.007879257,0,
00:08.3,-0.004148483,-0.00022316,0.007879257,0,
00:08.3,-0.004182816,-0.000211716,0.007862091,0,
00:08.3,-0.004171371,-0.000217438,0.007884979,0,
00:08.3,-0.004159927,-0.000211716,0.007884979,0,
00:08.3,-0.004182816,-0.000200272,0.007884979,0,
00:08.3,-0.004165649,-0.00022316,0.007884979,0,
00:08.3,-0.004148483,-0.000211716,0.007873535,0,
00:08.3,-0.004165649,-0.000217438,0.007873535,0,
00:08.3,-0.004177094,-0.000205994,0.007884979,0,
00:08.3,-0.004165649,-0.000228882,0.007856369,0,
00:08.3,-0.004154205,-0.000211716,0.007862091,0,
00:08.3,-0.004165649,-0.000205994,0.007862091,0,
00:08.3,-0.004154205,-0.000228882,0.007867813,0,
00:08.3,-0.004119873,-0.000228882,0.007867813,0,
00:08.3,-0.004171371,-0.000211716,0.007896423,0,
00:08.3,-0.00419426,-0.000200272,0.007890701,0,
00:08.3,-0.004188538,-0.000188828,0.007816315,0,
00:08.3,-0.004154205,-0.000205994,0.007827759,0,
00:08.3,-0.004125595,-0.00022316,0.007884979,0,
00:08.3,-0.004148483,-0.000205994,0.007902145,0,
00:08.4,-0.004177094,-0.000205994,0.007890701,0,
00:08.4,-0.004182816,-0.000240326,0.007867813,0,
00:08.4,-0.004154205,-0.000217438,0.007884979,0,
00:08.4,-0.004159927,-0.00019455,0.007873535,0,
00:08.4,-0.004154205,-0.00022316,0.007856369,0,
00:08.4,-0.004148483,-0.000217438,0.007839203,0,
00:08.4,-0.004177094,-0.00022316,0.007839203,0,
00:08.4,-0.004148483,-0.000228882,0.007862091,0,
00:08.4,-0.004165649,-0.000188828,0.007867813,0,
00:08.4,-0.004182816,-0.000211716,0.007850647,0,
00:08.4,-0.004177094,-0.000217438,0.007862091,0,
00:08.4,-0.004154205,-0.000217438,0.007873535,0,
00:08.4,-0.004125595,-0.000211716,0.007850647,0,
00:08.4,-0.004131317,-0.000211716,0.007850647,0,
00:08.4,-0.004165649,-0.000211716,0.007884979,0,
00:08.4,-0.004182816,-0.000211716,0.007850647,0,
00:08.4,-0.004165649,-0.000211716,0.007856369,0,
00:08.4,-0.004154205,-0.000205994,0.007856369,0,
00:08.4,-0.004154205,-0.000205994,0.007867813,0,
00:08.4,-0.004159927,-0.000200272,0.007844925,0,
00:08.4,-0.004131317,-0.000217438,0.007827759,0,
00:08.4,-0.004137039,-0.000211716,0.007867813,0,
00:08.4,-0.004131317,-0.000177383,0.007867813,0,
00:08.4,-0.004148483,-0.000205994,0.007867813,0,
00:08.4,-0.004165649,-0.00022316,0.007850647,0,
00:08.5,-0.004165649,-0.000234604,0.007833481,0,
00:08.5,-0.004165649,-0.000240326,0.007867813,0,
00:08.5,-0.004165649,-0.000200272,0.007884979,0,
00:08.5,-0.004154205,-0.000188828,0.007856369,0,
00:08.5,-0.004165649,-0.000217438,0.007850647,0,
00:08.5,-0.004159927,-0.000205994,0.007862091,0,
00:08.5,-0.004148483,-0.000200272,0.007850647,0,
00:08.5,-0.004119873,-0.000217438,0.007822037,0,
00:08.5,-0.004142761,-0.000217438,0.007822037,0,
00:08.5,-0.004154205,-0.000205994,0.007879257,0,
00:08.5,-0.004154205,-0.000217438,0.007862091,0,
00:08.5,-0.004154205,-0.000217438,0.007839203,0,
00:08.5,-0.004165649,-0.000217438,0.007850647,0,
00:08.5,-0.004148483,-0.000217438,0.007844925,0,
00:08.5,-0.004148483,-0.000240326,0.007850647,0,
00:08.5,-0.004165649,-0.000211716,0.007827759,0,
00:08.5,-0.004182816,-0.000188828,0.007839203,0,
00:08.5,-0.004142761,-0.000211716,0.007850647,0,
00:08.5,-0.004114151,-0.000228882,0.007844925,0,
00:08.5,-0.004125595,-0.000211716,0.007873535,0,
00:08.5,-0.004154205,-0.000217438,0.007850647,0,
00:08.5,-0.004148483,-0.000200272,0.007833481,0,
00:08.5,-0.004142761,-0.000200272,0.007833481,0,
00:08.5,-0.004142761,-0.000211716,0.007833481,0,
00:08.5,-0.004119873,-0.000211716,0.007810593,0,
00:08.6,-0.004131317,-0.000217438,0.007867813,0,
00:08.6,-0.004165649,-0.00022316,0.007856369,0,
00:08.6,-0.004171371,-0.000217438,0.007890701,0,
00:08.6,-0.004171371,-0.000240326,0.007856369,0,
00:08.6,-0.004165649,-0.00022316,0.007827759,0,
00:08.6,-0.004171371,-0.000205994,0.007833481,0,
00:08.6,-0.004159927,-0.000217438,0.007867813,0,
00:08.6,-0.004148483,-0.000205994,0.007850647,0,
00:08.6,-0.004125595,-0.000205994,0.007844925,0,
00:08.6,-0.004137039,-0.000205994,0.007850647,0,
00:08.6,-0.004159927,-0.000217438,0.007839203,0,
00:08.6,-0.004131317,-0.000228882,0.007839203,0,
00:08.6,-0.004125595,-0.00022316,0.007856369,0,
00:08.6,-0.004154205,-0.000211716,0.007799149,0,
00:08.6,-0.004171371,-0.000217438,0.007810593,0,
00:08.6,-0.004159927,-0.000211716,0.007862091,0,
00:08.6,-0.004119873,-0.000211716,0.007856369,0,
00:08.6,-0.004119873,-0.000200272,0.007833481,0,
00:08.6,-0.004154205,-0.000200272,0.007793427,0,
00:08.6,-0.004137039,-0.000234604,0.007862091,0,
00:08.6,-0.004125595,-0.000234604,0.007879257,0,
00:08.6,-0.004137039,-0.000217438,0.007867813,0,
00:08.6,-0.004154205,-0.000211716,0.007839203,0,
00:08.6,-0.004148483,-0.000200272,0.007856369,0,
00:08.6,-0.004159927,-0.000200272,0.007862091,0,
00:08.7,-0.004148483,-0.000217438,0.007839203,0,
00:08.7,-0.004125595,-0.00022316,0.007850647,0,
00:08.7,-0.004125595,-0.000211716,0.007867813,0,
00:08.7,-0.004148483,-0.00019455,0.007839203,0,
00:08.7,-0.004182816,-0.000205994,0.007810593,0,
00:08.7,-0.004159927,-0.000234604,0.007844925,0,
00:08.7,-0.004096985,-0.000200272,0.007822037,0,
00:08.7,-0.004125595,-0.000211716,0.007804871,0,
00:08.7,-0.004154205,-0.000200272,0.007816315,0,
00:08.7,-0.004159927,-0.000200272,0.007867813,0,
00:08.7,-0.004137039,-0.000211716,0.007856369,0,
00:08.7,-0.004119873,-0.000211716,0.007839203,0,
00:08.7,-0.004131317,-0.00019455,0.007844925,0,
00:08.7,-0.004142761,-0.000211716,0.007839203,0,
00:08.7,-0.004137039,-0.000228882,0.007822037,0,
00:08.7,-0.004148483,-0.000217438,0.007844925,0,
00:08.7,-0.004142761,-0.000205994,0.007850647,0,
00:08.7,-0.004131317,-0.000217438,0.007850647,0,
00:08.7,-0.004108429,-0.00019455,0.007827759,0,
00:08.7,-0.004131317,-0.00019455,0.007839203,0,
00:08.7,-0.004119873,-0.000211716,0.007844925,0,
00:08.7,-0.004108429,-0.00022316,0.007856369,0,
00:08.7,-0.004148483,-0.000205994,0.007862091,0,
00:08.7,-0.004154205,-0.000217438,0.007822037,0,
00:08.7,-0.004131317,-0.000228882,0.007822037,0,
00:08.8,-0.004148483,-0.000211716,0.007822037,0,
00:08.8,-0.004159927,-0.00019455,0.007856369,0,
00:08.8,-0.004125595,-0.000205994,0.007850647,0,
00:08.8,-0.004125595,-0.000211716,0.007827759,0,
00:08.8,-0.004131317,-0.00019455,0.007844925,0,
00:08.8,-0.004131317,-0.000211716,0.007844925,0,
00:08.8,-0.004142761,-0.000200272,0.007822037,0,
00:08.8,-0.004125595,-0.00022316,0.007804871,0,
00:08.8,-0.004137039,-0.000211716,0.007816315,0,
00:08.8,-0.004142761,-0.000200272,0.007827759,0,
00:08.8,-0.004125595,-0.00022316,0.007844925,0,
00:08.8,-0.004148483,-0.000228882,0.007827759,0,
00:08.8,-0.004165649,-0.00019455,0.007799149,0,
00:08.8,-0.004142761,-0.000200272,0.007850647,0,
00:08.8,-0.004114151,-0.000217438,0.007850647,0,
00:08.8,-0.004119873,-0.000211716,0.007822037,0,
00:08.8,-0.004137039,-0.000205994,0.007810593,0,
00:08.8,-0.004114151,-0.000205994,0.007862091,0,
00:08.8,-0.004108429,-0.000205994,0.007873535,0,
00:08.8,-0.004119873,-0.000217438,0.007827759,0,
00:08.8,-0.004125595,-0.00019455,0.007822037,0,
00:08.8,-0.004125595,-0.000200272,0.007822037,0,
00:08.8,-0.004137039,-0.000205994,0.007781982,0,
00:08.8,-0.004137039,-0.000217438,0.007793427,0,
00:08.8,-0.004119873,-0.000211716,0.007856369,0,
00:08.9,-0.004114151,-0.00019455,0.007879257,0,
00:08.9,-0.004125595,-0.000200272,0.007850647,0,
00:08.9,-0.004137039,-0.000217438,0.007810593,0,
00:08.9,-0.004137039,-0.000200272,0.007816315,0,
00:08.9,-0.004125595,-0.000205994,0.007839203,0,
00:08.9,-0.004119873,-0.00022316,0.007839203,0,
00:08.9,-0.004114151,-0.000205994,0.007816315,0,
00:08.9,-0.004119873,-0.000200272,0.007816315,0,
00:08.9,-0.004119873,-0.000200272,0.007827759,0,
00:08.9,-0.004125595,-0.000228882,0.007810593,0,
00:08.9,-0.004137039,-0.000234604,0.007816315,0,
00:08.9,-0.004125595,-0.00022316,0.007822037,0,
00:08.9,-0.004131317,-0.000217438,0.007816315,0,
00:08.9,-0.004137039,-0.000228882,0.007862091,0,
00:08.9,-0.004131317,-0.00019455,0.007827759,0,
00:08.9,-0.004114151,-0.00019455,0.007804871,0,
00:08.9,-0.004125595,-0.000200272,0.007810593,0,
00:08.9,-0.004137039,-0.00019455,0.007839203,0,
00:08.9,-0.004125595,-0.00019455,0.007833481,0,
00:08.9,-0.004114151,-0.00019455,0.007816315,0,
00:08.9,-0.004119873,-0.000211716,0.007793427,0,
00:08.9,-0.004114151,-0.000200272,0.007764816,0,
00:08.9,-0.004131317,-0.00019455,0.007753372,0,
00:08.9,-0.004125595,-0.000183105,0.007753372,0,
00:08.9,-0.004091263,-0.000217438,0.007799149,0,
00:09.0,-0.004091263,-0.000217438,0.007844925,0,
00:09.0,-0.004102707,-0.000211716,0.007850647,0,
00:09.0,-0.004131317,-0.000217438,0.007844925,0,
00:09.0,-0.004142761,-0.000211716,0.007816315,0,
00:09.0,-0.004131317,-0.000205994,0.007839203,0,
00:09.0,-0.004114151,-0.000211716,0.007816315,0,
00:09.0,-0.004102707,-0.000211716,0.007810593,0,
00:09.0,-0.004102707,-0.000217438,0.007827759,0,
00:09.0,-0.004102707,-0.000217438,0.007833481,0,
00:09.0,-0.004137039,-0.000217438,0.007827759,0,
00:09.0,-0.004131317,-0.000234604,0.007822037,0,
00:09.0,-0.004142761,-0.000234604,0.007810593,0,
00:00:09,-0.004131317,-0.00019455,0.007804871,0,
00:09.0,-0.004096985,-0.000171661,0.007804871,0,
00:09.0,-0.004096985,-0.000205994,0.007822037,0,
00:09.0,-0.004085541,-0.00022316,0.007822037,0,
00:09.0,-0.004102707,-0.00019455,0.007816315,0,
00:09.0,-0.004137039,-0.000217438,0.007816315,0,
00:09.0,-0.004142761,-0.00022316,0.007781982,0,
00:09.0,-0.004148483,-0.000217438,0.007781982,0,
00:09.0,-0.004131317,-0.000211716,0.007822037,0,
00:09.0,-0.004125595,-0.000211716,0.007844925,0,
00:09.0,-0.004108429,-0.000200272,0.007827759,0,
00:09.0,-0.004114151,-0.00019455,0.007799149,0,
00:09.0,-0.004108429,-0.000211716,0.007787704,0,
00:09.1,-0.004096985,-0.00022316,0.007810593,0,
00:09.1,-0.004096985,-0.000228882,0.007810593,0,
00:09.1,-0.004148483,-0.000200272,0.007787704,0,
00:09.1,-0.004171371,-0.000188828,0.007793427,0,
00:09.1,-0.004142761,-0.000171661,0.007799149,0,
00:09.1,-0.004079819,-0.00019455,0.007770538,0,
00:09.1,-0.004068375,-0.000211716,0.007804871,0,
00:09.1,-0.004085541,-0.00022316,0.007839203,0,
00:09.1,-0.004096985,-0.000217438,0.007822037,0,
00:09.1,-0.004108429,-0.000205994,0.007816315,0,
00:09.1,-0.004119873,-0.000217438,0.007799149,0,
00:09.1,-0.004137039,-0.000205994,0.007804871,0,
00:09.1,-0.004125595,-0.000188828,0.007804871,0,
00:09.1,-0.004131317,-0.000205994,0.007787704,0,
00:09.1,-0.004114151,-0.00022316,0.007770538,0,
00:09.1,-0.004125595,-0.000211716,0.007822037,0,
00:09.1,-0.004108429,-0.000200272,0.007822037,0,
00:09.1,-0.004091263,-0.000200272,0.007804871,0,
00:09.1,-0.004102707,-0.000217438,0.00777626,0,
00:09.1,-0.004102707,-0.000217438,0.007799149,0,
00:09.1,-0.004114151,-0.000200272,0.007787704,0,
00:09.1,-0.004131317,-0.000217438,0.007810593,0,
00:09.1,-0.004131317,-0.000211716,0.007804871,0,
00:09.1,-0.004142761,-0.000211716,0.007793427,0,
00:09.1,-0.004102707,-0.000228882,0.007827759,0,
00:09.2,-0.004108429,-0.00019455,0.007810593,0,
00:09.2,-0.004131317,-0.00019455,0.007799149,0,
00:09.2,-0.004102707,-0.00019455,0.007793427,0,
00:09.2,-0.004114151,-0.000211716,0.007822037,0,
00:09.2,-0.004091263,-0.00019455,0.007827759,0,
00:09.2,-0.004102707,-0.000205994,0.007816315,0,
00:09.2,-0.004102707,-0.000205994,0.007804871,0,
00:09.2,-0.004102707,-0.00022316,0.007793427,0,
00:09.2,-0.004119873,-0.000211716,0.007781982,0,
00:09.2,-0.004131317,-0.000183105,0.007787704,0,
00:09.2,-0.004125595,-0.000188828,0.007787704,0,
00:09.2,-0.004102707,-0.000217438,0.007793427,0,
00:09.2,-0.004085541,-0.000211716,0.007810593,0,
00:09.2,-0.004091263,-0.000211716,0.007822037,0,
00:09.2,-0.004114151,-0.000211716,0.007822037,0,
00:09.2,-0.004114151,-0.000211716,0.007793427,0,
00:09.2,-0.004091263,-0.000211716,0.007793427,0,
00:09.2,-0.004108429,-0.000211716,0.007804871,0,
00:09.2,-0.004119873,-0.000205994,0.007822037,0,
00:09.2,-0.004108429,-0.00022316,0.007799149,0,
00:09.2,-0.004079819,-0.000217438,0.007787704,0,
00:09.2,-0.004091263,-0.00019455,0.007787704,0,
00:09.2,-0.004102707,-0.00019455,0.007781982,0,
00:09.2,-0.004091263,-0.000217438,0.007804871,0,
00:09.2,-0.004102707,-0.000217438,0.007827759,0,
00:09.3,-0.004142761,-0.000205994,0.007810593,0,
00:09.3,-0.004154205,-0.000205994,0.007822037,0,
00:09.3,-0.004108429,-0.000205994,0.007816315,0,
00:09.3,-0.004119873,-0.000205994,0.007764816,0,
00:09.3,-0.004102707,-0.000211716,0.007804871,0,
00:09.3,-0.004085541,-0.000234604,0.007833481,0,
00:09.3,-0.004091263,-0.000211716,0.007810593,0,
00:09.3,-0.004114151,-0.000188828,0.007810593,0,
00:09.3,-0.004125595,-0.000200272,0.007816315,0,
00:09.3,-0.004108429,-0.000211716,0.007804871,0,
00:09.3,-0.004102707,-0.000217438,0.007804871,0,
00:09.3,-0.004091263,-0.000205994,0.007804871,0,
00:09.3,-0.004079819,-0.000211716,0.007816315,0,
00:09.3,-0.004096985,-0.000200272,0.007816315,0,
00:09.3,-0.004114151,-0.000200272,0.007827759,0,
00:09.3,-0.004102707,-0.00022316,0.007816315,0,
00:09.3,-0.004085541,-0.000240326,0.007804871,0,
00:09.3,-0.004096985,-0.00019455,0.007793427,0,
00:09.3,-0.004096985,-0.00019455,0.007856369,0,
00:09.3,-0.004114151,-0.000211716,0.007850647,0,
00:09.3,-0.004114151,-0.00022316,0.007827759,0,
00:09.3,-0.004096985,-0.000205994,0.007822037,0,
00:09.3,-0.004079819,-0.00019455,0.007822037,0,
00:09.3,-0.004091263,-0.000217438,0.007822037,0,
00:09.3,-0.004096985,-0.00022316,0.007793427,0,
00:09.4,-0.004108429,-0.000217438,0.007822037,0,
00:09.4,-0.004085541,-0.000217438,0.007850647,0,
00:09.4,-0.004085541,-0.000205994,0.007833481,0,
00:09.4,-0.004102707,-0.000200272,0.007799149,0,
00:09.4,-0.004102707,-0.000211716,0.007770538,0,
00:09.4,-0.004096985,-0.000211716,0.007867813,0,
00:09.4,-0.004091263,-0.000211716,0.007862091,0,
00:09.4,-0.004119873,-0.000217438,0.007844925,0,
00:09.4,-0.004125595,-0.00022316,0.007839203,0,
00:09.4,-0.004119873,-0.000228882,0.007839203,0,
00:09.4,-0.004114151,-0.00022316,0.007839203,0,
00:09.4,-0.004108429,-0.000217438,0.007839203,0,
00:09.4,-0.004108429,-0.000205994,0.007827759,0,
00:09.4,-0.004102707,-0.000205994,0.007839203,0,
00:09.4,-0.004074097,-0.000234604,0.007833481,0,
00:09.4,-0.004085541,-0.00022316,0.007827759,0,
00:09.4,-0.004102707,-0.000205994,0.007862091,0,
00:09.4,-0.004091263,-0.000211716,0.007822037,0,
00:09.4,-0.004079819,-0.000211716,0.007833481,0,
00:09.4,-0.004085541,-0.000228882,0.007856369,0,
00:09.4,-0.004108429,-0.000200272,0.007867813,0,
00:09.4,-0.004091263,-0.000200272,0.007856369,0,
00:09.4,-0.004062653,-0.000234604,0.007867813,0,
00:09.4,-0.004062653,-0.000211716,0.007850647,0,
00:09.4,-0.004114151,-0.00019455,0.007827759,0,
00:09.5,-0.004091263,-0.00022316,0.007856369,0,
00:09.5,-0.004096985,-0.00022316,0.007862091,0,
00:09.5,-0.004102707,-0.000200272,0.007867813,0,
00:09.5,-0.004085541,-0.000228882,0.007867813,0,
00:09.5,-0.004079819,-0.000228882,0.007856369,0,
00:09.5,-0.004114151,-0.000217438,0.007856369,0,
00:09.5,-0.004114151,-0.00022316,0.007867813,0,
00:09.5,-0.004096985,-0.000200272,0.007879257,0,
00:09.5,-0.004096985,-0.00022316,0.007867813,0,
00:09.5,-0.004102707,-0.000211716,0.007844925,0,
00:09.5,-0.004102707,-0.000228882,0.007833481,0,
00:09.5,-0.004091263,-0.000217438,0.007839203,0,
00:09.5,-0.004079819,-0.000240326,0.007879257,0,
00:09.5,-0.004102707,-0.000228882,0.007913589,0,
00:09.5,-0.004148483,-0.000211716,0.007896423,0,
00:09.5,-0.004125595,-0.000205994,0.007873535,0,
00:09.5,-0.004056931,-0.000217438,0.007873535,0,
00:09.5,-0.004062653,-0.000205994,0.007873535,0,
00:09.5,-0.004079819,-0.000211716,0.007879257,0,
00:09.5,-0.004079819,-0.000211716,0.007879257,0,
00:09.5,-0.004096985,-0.000211716,0.007850647,0,
00:09.5,-0.004079819,-0.000217438,0.007890701,0,
00:09.5,-0.004079819,-0.000211716,0.007884979,0,
00:09.5,-0.004114151,-0.000217438,0.007873535,0,
00:09.5,-0.004096985,-0.00022316,0.007879257,0,
00:09.6,-0.004079819,-0.000217438,0.007907867,0,
00:09.6,-0.004079819,-0.000205994,0.007896423,0,
00:09.6,-0.004114151,-0.000211716,0.007873535,0,
00:09.6,-0.004102707,-0.000217438,0.007890701,0,
00:09.6,-0.004079819,-0.00019455,0.007902145,0,
00:09.6,-0.004079819,-0.000217438,0.007907867,0,
00:09.6,-0.004091263,-0.00022316,0.007896423,0,
00:09.6,-0.004102707,-0.000205994,0.007867813,0,
00:09.6,-0.004085541,-0.000228882,0.007890701,0,
00:09.6,-0.004091263,-0.00022316,0.007930756,0,
00:09.6,-0.004108429,-0.000211716,0.007919312,0,
00:09.6,-0.004091263,-0.00022316,0.007907867,0,
00:09.6,-0.004085541,-0.000228882,0.007913589,0,
00:09.6,-0.004091263,-0.000228882,0.007919312,0,
00:09.6,-0.004102707,-0.000217438,0.007919312,0,
00:09.6,-0.004091263,-0.000205994,0.0079422,0,
00:09.6,-0.004119873,-0.000217438,0.007925034,0,
00:09.6,-0.004102707,-0.000217438,0.007919312,0,
00:09.6,-0.004091263,-0.000205994,0.007925034,0,
00:09.6,-0.004096985,-0.000205994,0.0079422,0,
00:09.6,-0.004079819,-0.000234604,0.007907867,0,
00:09.6,-0.004079819,-0.00022316,0.007890701,0,
00:09.6,-0.004085541,-0.000234604,0.007936478,0,
00:09.6,-0.004079819,-0.000246048,0.007947922,0,
00:09.6,-0.004108429,-0.000217438,0.007907867,0,
00:09.7,-0.004096985,-0.000188828,0.007930756,0,
00:09.7,-0.004056931,-0.00019455,0.007953644,0,
00:09.7,-0.004062653,-0.00022316,0.007930756,0,
00:09.7,-0.004056931,-0.000234604,0.0079422,0,
00:09.7,-0.004079819,-0.000240326,0.00797081,0,
00:09.7,-0.004096985,-0.000211716,0.00797081,0,
00:09.7,-0.004114151,-0.000183105,0.007947922,0,
00:09.7,-0.004114151,-0.000211716,0.00797081,0,
00:09.7,-0.004085541,-0.000217438,0.007965088,0,
00:09.7,-0.004068375,-0.000217438,0.007959366,0,
00:09.7,-0.004079819,-0.000217438,0.007965088,0,
00:09.7,-0.004074097,-0.00022316,0.0079422,0,
00:09.7,-0.004096985,-0.00022316,0.007959366,0,
00:09.7,-0.004114151,-0.000228882,0.00797081,0,
00:09.7,-0.004108429,-0.000228882,0.007953644,0,
00:09.7,-0.004102707,-0.000217438,0.00797081,0,
00:09.7,-0.004079819,-0.000217438,0.007953644,0,
00:09.7,-0.004074097,-0.000234604,0.007987976,0,
00:09.7,-0.004074097,-0.000205994,0.008022308,0,
00:09.7,-0.004091263,-0.000217438,0.007982254,0,
00:09.7,-0.004119873,-0.000217438,0.00797081,0,
00:09.7,-0.004102707,-0.00022316,0.007987976,0,
00:09.7,-0.004068375,-0.00022316,0.008005142,0,
00:09.7,-0.004079819,-0.000211716,0.008010864,0,
00:09.7,-0.004091263,-0.000228882,0.007982254,0,
00:09.8,-0.004068375,-0.000228882,0.008005142,0,
00:09.8,-0.004068375,-0.000217438,0.008016586,0,
00:09.8,-0.004079819,-0.000211716,0.008005142,0,
00:09.8,-0.004068375,-0.00022316,0.007987976,0,
00:09.8,-0.004068375,-0.000228882,0.008005142,0,
00:09.8,-0.004102707,-0.000234604,0.007987976,0,
00:09.8,-0.004114151,-0.000217438,0.007982254,0,
00:09.8,-0.004096985,-0.000217438,0.008005142,0,
00:09.8,-0.004102707,-0.000211716,0.008033752,0,
00:09.8,-0.004102707,-0.000217438,0.008016586,0,
00:09.8,-0.004074097,-0.000217438,0.007993698,0,
00:09.8,-0.004068375,-0.000217438,0.00799942,0,
00:09.8,-0.004056931,-0.000217438,0.007987976,0,
00:09.8,-0.004074097,-0.000234604,0.008005142,0,
00:09.8,-0.004091263,-0.000246048,0.008045197,0,
00:09.8,-0.004102707,-0.000228882,0.008039474,0,
00:09.8,-0.004125595,-0.00019455,0.008045197,0,
00:09.8,-0.004085541,-0.000228882,0.008010864,0,
00:09.8,-0.004045486,-0.000228882,0.00802803,0,
00:09.8,-0.004079819,-0.000234604,0.008050919,0,
00:09.8,-0.004102707,-0.000228882,0.00802803,0,
00:09.8,-0.004096985,-0.00022316,0.008045197,0,
00:09.8,-0.004079819,-0.000228882,0.008033752,0,
00:09.8,-0.004102707,-0.000240326,0.008033752,0,
00:09.8,-0.004079819,-0.000217438,0.008056641,0,
00:09.9,-0.004062653,-0.000217438,0.008056641,0,
00:09.9,-0.004062653,-0.000211716,0.00802803,0,
00:09.9,-0.004079819,-0.000217438,0.008016586,0,
