Elapsed_Time,EMG1,EMG2,EMG3,BioRadio Event,Unnamed: 5
00:00:00,-0.000240326,-0.003015518,0.005567551,0,
00:00.0,-0.00022316,-0.00296402,0.005550385,0,
00:00.0,-0.000274658,-0.002969742,0.005544662,0,
00:00.0,-0.00028038,-0.003004074,0.005544662,0,
00:00.0,-0.000211716,-0.002986908,0.005533218,0,
00:00.0,-0.000228882,-0.003004074,0.00551033,0,
00:00.0,-0.00025177,-0.002998352,0.005578995,0,
00:00.0,-0.000286102,-0.003055573,0.005584717,0,
00:00.0,-0.00025177,-0.00304985,0.005567551,0,
00:00.0,-0.000234604,-0.00302124,0.005567551,0,
00:00.0,-0.00022316,-0.003015518,0.005561829,0,
00:00.0,-0.000211716,-0.002958298,0.005544662,0,
00:00.0,-0.00022316,-0.003009796,0.005533218,0,
00:00.1,-0.000274658,-0.003095627,0.005550385,0,
00:00.1,-0.000274658,-0.003038406,0.005567551,0,
00:00.1,-0.000234604,-0.003032684,0.005573273,0,
00:00.1,-0.000246048,-0.00302124,0.005561829,0,
00:00.1,-0.000246048,-0.003004074,0.005567551,0,
00:00.1,-0.000228882,-0.00302124,0.005550385,0,
00:00.1,-0.000211716,-0.00299263,0.005550385,0,
00:00.1,-0.000263214,-0.003026962,0.005578995,0,
00:00.1,-0.000303268,-0.003078461,0.005578995,0,
00:00.1,-0.000263214,-0.00304985,0.005578995,0,
00:00.1,-0.000234604,-0.003004074,0.005561829,0,
00:00.1,-0.000257492,-0.00302124,0.005556107,0,
00:00.1,-0.000246048,-0.003032684,0.005561829,0,
00:00.1,-0.000257492,-0.00302124,0.005561829,0,
00:00.1,-0.000268936,-0.003044128,0.005550385,0,
00:00.1,-0.00028038,-0.003038406,0.005544662,0,
00:00.1,-0.000246048,-0.003004074,0.005578995,0,
00:00.1,-0.000234604,-0.002998352,0.005561829,0,
00:00.1,-0.000257492,-0.003026962,0.005556107,0,
00:00.1,-0.000263214,-0.003061295,0.005567551,0,
00:00.1,-0.000257492,-0.003084183,0.005561829,0,
00:00.1,-0.000263214,-0.00304985,0.005561829,0,
00:00.1,-0.000274658,-0.00302124,0.005573273,0,
00:00.1,-0.000257492,-0.003004074,0.005561829,0,
00:00.1,-0.000234604,-0.003004074,0.005550385,0,
00:00.2,-0.000268936,-0.003038406,0.005550385,0,
00:00.2,-0.000291824,-0.003015518,0.005550385,0,
00:00.2,-0.000257492,-0.00302124,0.005556107,0,
00:00.2,-0.000240326,-0.003055573,0.005567551,0,
00:00.2,-0.000263214,-0.003078461,0.005584717,0,
00:00.2,-0.000268936,-0.003095627,0.005584717,0,
00:00.2,-0.000263214,-0.003055573,0.005573273,0,
00:00.2,-0.000263214,-0.003038406,0.005567551,0,
00:00.2,-0.000263214,-0.003044128,0.005550385,0,
00:00.2,-0.000257492,-0.002998352,0.005550385,0,
00:00.2,-0.00025177,-0.002986908,0.005556107,0,
00:00.2,-0.000263214,-0.003078461,0.005561829,0,
00:00.2,-0.000291824,-0.003101349,0.005556107,0,
00:00.2,-0.000286102,-0.00304985,0.005561829,0,
00:00.2,-0.00028038,-0.003044128,0.005550385,0,
00:00.2,-0.00028038,-0.003038406,0.005567551,0,
00:00.2,-0.000274658,-0.003055573,0.005578995,0,
00:00.2,-0.000274658,-0.003055573,0.005578995,0,
00:00.2,-0.00028038,-0.00304985,0.005573273,0,
00:00.2,-0.000274658,-0.00302124,0.005567551,0,
00:00.2,-0.000268936,-0.003032684,0.005556107,0,
00:00.2,-0.00030899,-0.003078461,0.005561829,0,
00:00.2,-0.000314713,-0.003061295,0.005607605,0,
00:00.2,-0.000286102,-0.003055573,0.005590439,0,
00:00.2,-0.000303268,-0.003078461,0.005544662,0,
00:00.3,-0.000291824,-0.003078461,0.005550385,0,
00:00.3,-0.000286102,-0.003067017,0.005567551,0,
00:00.3,-0.000286102,-0.00302124,0.005573273,0,
00:00.3,-0.000303268,-0.003038406,0.005573273,0,
00:00.3,-0.00028038,-0.003044128,0.005573273,0,
00:00.3,-0.00028038,-0.003038406,0.005573273,0,
00:00.3,-0.00028038,-0.00302124,0.005573273,0,
00:00.3,-0.000303268,-0.003107071,0.005561829,0,
00:00.3,-0.000303268,-0.003067017,0.005550385,0,
00:00.3,-0.000303268,-0.003055573,0.005561829,0,
00:00.3,-0.000303268,-0.003044128,0.005561829,0,
00:00.3,-0.000291824,-0.00304985,0.005550385,0,
00:00.3,-0.000297546,-0.003067017,0.005556107,0,
00:00.3,-0.00030899,-0.003095627,0.005578995,0,
00:00.3,-0.000314713,-0.003072739,0.005590439,0,
00:00.3,-0.000314713,-0.003044128,0.005567551,0,
00:00.3,-0.00030899,-0.003061295,0.005573273,0,
00:00.3,-0.000303268,-0.003044128,0.005567551,0,
00:00.3,-0.00030899,-0.003032684,0.005561829,0,
00:00.3,-0.00030899,-0.003072739,0.005573273,0,
00:00.3,-0.000303268,-0.003061295,0.005578995,0,
00:00.3,-0.000320435,-0.003089905,0.005578995,0,
00:00.3,-0.000331879,-0.003089905,0.005567551,0,
00:00.3,-0.000320435,-0.003078461,0.005578995,0,
00:00.3,-0.000331879,-0.003067017,0.005567551,0,
00:00.4,-0.000320435,-0.003061295,0.005567551,0,
00:00.4,-0.000291824,-0.003015518,0.005556107,0,
00:00.4,-0.000314713,-0.003044128,0.005567551,0,
00:00.4,-0.000320435,-0.003101349,0.005578995,0,
00:00.4,-0.000320435,-0.003061295,0.005556107,0,
00:00.4,-0.000349045,-0.003061295,0.005573273,0,
00:00.4,-0.000326157,-0.003061295,0.005573273,0,
00:00.4,-0.000331879,-0.003061295,0.005573273,0,
00:00.4,-0.000320435,-0.003101349,0.005567551,0,
00:00.4,-0.00030899,-0.003078461,0.005567551,0,
00:00.4,-0.000303268,-0.003044128,0.005561829,0,
00:00.4,-0.000303268,-0.003061295,0.005561829,0,
00:00.4,-0.000303268,-0.00304985,0.005578995,0,
00:00.4,-0.000303268,-0.003078461,0.005561829,0,
00:00.4,-0.000337601,-0.003089905,0.005578995,0,
00:00.4,-0.000337601,-0.003089905,0.005601883,0,
00:00.4,-0.000331879,-0.003072739,0.005601883,0,
00:00.4,-0.000343323,-0.003101349,0.005584717,0,
00:00.4,-0.000326157,-0.003089905,0.005584717,0,
00:00.4,-0.000314713,-0.003055573,0.005578995,0,
00:00.4,-0.000331879,-0.003044128,0.005578995,0,
00:00.4,-0.000331879,-0.00304985,0.005584717,0,
00:00.4,-0.000303268,-0.003055573,0.005578995,0,
00:00.4,-0.000320435,-0.003084183,0.005573273,0,
00:00.4,-0.000331879,-0.003095627,0.005590439,0,
00:00.5,-0.000343323,-0.003084183,0.005584717,0,
00:00.5,-0.000326157,-0.00304985,0.005584717,0,
00:00.5,-0.000297546,-0.003038406,0.005596161,0,
00:00.5,-0.000320435,-0.003061295,0.005573273,0,
00:00.5,-0.000343323,-0.003089905,0.005584717,0,
00:00.5,-0.000349045,-0.003084183,0.005596161,0,
00:00.5,-0.000286102,-0.003084183,0.005561829,0,
00:00.5,-0.00030899,-0.003101349,0.005556107,0,
00:00.5,-0.000349045,-0.003072739,0.005601883,0,
00:00.5,-0.000337601,-0.003072739,0.005601883,0,
00:00.5,-0.00030899,-0.003084183,0.005584717,0,
00:00.5,-0.000326157,-0.003095627,0.005578995,0,
00:00.5,-0.000349045,-0.003089905,0.005578995,0,
00:00.5,-0.000314713,-0.003067017,0.005584717,0,
00:00.5,-0.000297546,-0.003055573,0.005578995,0,
00:00.5,-0.000297546,-0.003067017,0.005573273,0,
00:00.5,-0.00030899,-0.003084183,0.005550385,0,
00:00.5,-0.00030899,-0.003101349,0.005567551,0,
00:00.5,-0.00030899,-0.003061295,0.005573273,0,
00:00.5,-0.000326157,-0.003044128,0.005584717,0,
00:00.5,-0.000314713,-0.003089905,0.005573273,0,
00:00.5,-0.000354767,-0.003118515,0.005567551,0,
00:00.5,-0.000349045,-0.003061295,0.005573273,0,
00:00.5,-0.000303268,-0.00304985,0.005573273,0,
00:00.5,-0.00030899,-0.003067017,0.005573273,0,
00:00.6,-0.00030899,-0.003072739,0.005567551,0,
00:00.6,-0.000326157,-0.003078461,0.005561829,0,
00:00.6,-0.000331879,-0.003112793,0.005573273,0,
00:00.6,-0.000326157,-0.003089905,0.005567551,0,
00:00.6,-0.00030899,-0.00304985,0.005556107,0,
00:00.6,-0.000331879,-0.003089905,0.00553894,0,
00:00.6,-0.000337601,-0.003101349,0.005567551,0,
00:00.6,-0.000349045,-0.003078461,0.005584717,0,
00:00.6,-0.000331879,-0.003089905,0.005573273,0,
00:00.6,-0.000331879,-0.003124237,0.005556107,0,
00:00.6,-0.000343323,-0.003107071,0.00553894,0,
00:00.6,-0.00030899,-0.003072739,0.005584717,0,
00:00.6,-0.000303268,-0.003055573,0.005584717,0,
00:00.6,-0.000297546,-0.00304985,0.005573273,0,
00:00.6,-0.00030899,-0.003089905,0.005561829,0,
00:00.6,-0.000314713,-0.003078461,0.005561829,0,
00:00.6,-0.000320435,-0.003095627,0.005550385,0,
00:00.6,-0.000314713,-0.003084183,0.005584717,0,
00:00.6,-0.000326157,-0.003095627,0.005556107,0,
00:00.6,-0.000331879,-0.003107071,0.00553894,0,
00:00.6,-0.000326157,-0.003118515,0.005556107,0,
00:00.6,-0.000320435,-0.003101349,0.005556107,0,
00:00.6,-0.000326157,-0.003101349,0.005561829,0,
00:00.6,-0.000326157,-0.003078461,0.005561829,0,
00:00.6,-0.000320435,-0.003078461,0.005567551,0,
00:00.7,-0.000314713,-0.003061295,0.005567551,0,
00:00.7,-0.000320435,-0.003095627,0.005561829,0,
00:00.7,-0.000343323,-0.003107071,0.005561829,0,
00:00.7,-0.000349045,-0.003118515,0.005561829,0,
00:00.7,-0.000326157,-0.003067017,0.005578995,0,
00:00.7,-0.000320435,-0.003044128,0.005550385,0,
00:00.7,-0.000320435,-0.003089905,0.005561829,0,
00:00.7,-0.000320435,-0.003101349,0.005561829,0,
00:00.7,-0.000343323,-0.003118515,0.005556107,0,
00:00.7,-0.000343323,-0.003107071,0.005573273,0,
00:00.7,-0.000343323,-0.003084183,0.005567551,0,
00:00.7,-0.000349045,-0.003067017,0.005544662,0,
00:00.7,-0.000337601,-0.003055573,0.005533218,0,
00:00.7,-0.000331879,-0.003101349,0.005556107,0,
00:00.7,-0.000320435,-0.003112793,0.005544662,0,
00:00.7,-0.000303268,-0.003072739,0.005533218,0,
00:00.7,-0.000314713,-0.003084183,0.005544662,0,
00:00.7,-0.000331879,-0.003084183,0.005550385,0,
00:00.7,-0.000331879,-0.003084183,0.005561829,0,
00:00.7,-0.000331879,-0.003101349,0.005550385,0,
00:00.7,-0.000320435,-0.003095627,0.005550385,0,
00:00.7,-0.000326157,-0.003072739,0.005544662,0,
00:00.7,-0.000320435,-0.003072739,0.00553894,0,
00:00.7,-0.000354767,-0.003095627,0.005533218,0,
00:00.7,-0.000343323,-0.003112793,0.005573273,0,
00:00.8,-0.000349045,-0.003141403,0.005550385,0,
00:00.8,-0.000354767,-0.003141403,0.005578995,0,
00:00.8,-0.000343323,-0.003112793,0.005573273,0,
00:00.8,-0.000337601,-0.003078461,0.005550385,0,
00:00.8,-0.000343323,-0.003095627,0.005533218,0,
00:00.8,-0.000349045,-0.003061295,0.005521774,0,
00:00.8,-0.000343323,-0.00304985,0.005544662,0,
00:00.8,-0.000331879,-0.003078461,0.005544662,0,
00:00.8,-0.000326157,-0.003072739,0.005527496,0,
00:00.8,-0.000343323,-0.003061295,0.005533218,0,
00:00.8,-0.000343323,-0.003095627,0.005556107,0,
00:00.8,-0.000337601,-0.003101349,0.005544662,0,
00:00.8,-0.000337601,-0.003078461,0.005561829,0,
00:00.8,-0.000331879,-0.003055573,0.005556107,0,
00:00.8,-0.000331879,-0.003067017,0.005544662,0,
00:00.8,-0.000343323,-0.003084183,0.005533218,0,
00:00.8,-0.000343323,-0.003112793,0.005550385,0,
00:00.8,-0.000354767,-0.003118515,0.005550385,0,
00:00.8,-0.000343323,-0.003084183,0.005556107,0,
00:00.8,-0.000343323,-0.003095627,0.005561829,0,
00:00.8,-0.000343323,-0.003084183,0.005533218,0,
00:00.8,-0.000337601,-0.003067017,0.005527496,0,
00:00.8,-0.000343323,-0.003107071,0.00553894,0,
00:00.8,-0.000354767,-0.003089905,0.005550385,0,
00:00.8,-0.000354767,-0.003089905,0.00553894,0,
00:00.9,-0.000320435,-0.003067017,0.005550385,0,
00:00.9,-0.000326157,-0.003078461,0.005544662,0,
00:00.9,-0.000331879,-0.003124237,0.005544662,0,
00:00.9,-0.000343323,-0.003112793,0.005544662,0,
00:00.9,-0.000343323,-0.003112793,0.00553894,0,
00:00.9,-0.000337601,-0.003067017,0.00553894,0,
00:00.9,-0.000343323,-0.003084183,0.005550385,0,
00:00.9,-0.000349045,-0.003118515,0.00553894,0,
00:00.9,-0.000343323,-0.003095627,0.005556107,0,
00:00.9,-0.000343323,-0.003078461,0.005544662,0,
00:00.9,-0.000337601,-0.00304985,0.005556107,0,
00:00.9,-0.000343323,-0.003078461,0.005544662,0,
00:00.9,-0.000354767,-0.003129959,0.005527496,0,
00:00.9,-0.000354767,-0.003101349,0.005578995,0,
00:00.9,-0.000343323,-0.003084183,0.005550385,0,
00:00.9,-0.000343323,-0.003089905,0.005533218,0,
00:00.9,-0.000343323,-0.003089905,0.00553894,0,
00:00.9,-0.000337601,-0.003084183,0.00553894,0,
00:00.9,-0.000331879,-0.003067017,0.005550385,0,
00:00.9,-0.000343323,-0.003084183,0.005544662,0,
00:00.9,-0.000343323,-0.003095627,0.005544662,0,
00:00.9,-0.000337601,-0.003095627,0.005550385,0,
00:00.9,-0.000343323,-0.003078461,0.005556107,0,
00:00.9,-0.000320435,-0.003089905,0.005527496,0,
00:00.9,-0.000320435,-0.003061295,0.005516052,0,
00:01.0,-0.000349045,-0.003101349,0.005516052,0,
00:01.0,-0.000377655,-0.003124237,0.005544662,0,
00:01.0,-0.000354767,-0.003072739,0.005544662,0,
00:01.0,-0.000331879,-0.003067017,0.005527496,0,
00:01.0,-0.000326157,-0.003067017,0.005533218,0,
00:01.0,-0.000366211,-0.003101349,0.00553894,0,
00:01.0,-0.000360489,-0.003089905,0.005556107,0,
00:01.0,-0.000354767,-0.003089905,0.005561829,0,
00:01.0,-0.000360489,-0.003101349,0.005544662,0,
00:01.0,-0.000354767,-0.003095627,0.005527496,0,
00:01.0,-0.000337601,-0.003067017,0.005527496,0,
00:01.0,-0.000349045,-0.003072739,0.005521774,0,
00:00:01,-0.000354767,-0.003112793,0.005527496,0,
00:01.0,-0.000337601,-0.003095627,0.005544662,0,
00:01.0,-0.000337601,-0.003095627,0.005544662,0,
00:01.0,-0.000343323,-0.003078461,0.00553894,0,
00:01.0,-0.000331879,-0.003072739,0.005527496,0,
00:01.0,-0.000331879,-0.003084183,0.005556107,0,
00:01.0,-0.000343323,-0.003112793,0.00553894,0,
00:01.0,-0.000331879,-0.003084183,0.005533218,0,
00:01.0,-0.000349045,-0.003107071,0.005521774,0,
00:01.0,-0.000349045,-0.003072739,0.00551033,0,
00:01.0,-0.000349045,-0.003072739,0.005527496,0,
00:01.0,-0.000349045,-0.003084183,0.005544662,0,
00:01.0,-0.000354767,-0.003095627,0.00553894,0,
00:01.1,-0.000366211,-0.003084183,0.005527496,0,
00:01.1,-0.000343323,-0.003067017,0.00551033,0,
00:01.1,-0.000337601,-0.003101349,0.005527496,0,
00:01.1,-0.000377655,-0.003101349,0.005527496,0,
00:01.1,-0.000366211,-0.003095627,0.005516052,0,
00:01.1,-0.000343323,-0.003129959,0.005533218,0,
00:01.1,-0.000349045,-0.003135681,0.00553894,0,
00:01.1,-0.000349045,-0.003089905,0.005516052,0,
00:01.1,-0.000320435,-0.003038406,0.005521774,0,
00:01.1,-0.000331879,-0.003067017,0.005516052,0,
00:01.1,-0.000360489,-0.003095627,0.005498886,0,
00:01.1,-0.000354767,-0.003084183,0.005516052,0,
00:01.1,-0.000349045,-0.003101349,0.005527496,0,
00:01.1,-0.000371933,-0.003089905,0.005516052,0,
00:01.1,-0.000360489,-0.003078461,0.00551033,0,
00:01.1,-0.000326157,-0.003084183,0.005504608,0,
00:01.1,-0.000331879,-0.003067017,0.005527496,0,
00:01.1,-0.000349045,-0.003078461,0.005504608,0,
00:01.1,-0.000349045,-0.003095627,0.005498886,0,
00:01.1,-0.000354767,-0.003107071,0.00548172,0,
00:01.1,-0.000354767,-0.003124237,0.005487442,0,
00:01.1,-0.000354767,-0.003101349,0.005521774,0,
00:01.1,-0.000337601,-0.003061295,0.005516052,0,
00:01.1,-0.000331879,-0.003026962,0.005493164,0,
00:01.1,-0.000326157,-0.003055573,0.005493164,0,
00:01.2,-0.000343323,-0.003101349,0.005487442,0,
00:01.2,-0.000360489,-0.003107071,0.005498886,0,
00:01.2,-0.000349045,-0.003107071,0.00551033,0,
00:01.2,-0.000331879,-0.003078461,0.005498886,0,
00:01.2,-0.000337601,-0.003061295,0.005498886,0,
00:01.2,-0.000326157,-0.003061295,0.00551033,0,
00:01.2,-0.000343323,-0.003061295,0.005498886,0,
00:01.2,-0.000360489,-0.003112793,0.00548172,0,
00:01.2,-0.000349045,-0.003101349,0.005475998,0,
00:01.2,-0.000337601,-0.003095627,0.005493164,0,
00:01.2,-0.000349045,-0.003101349,0.005493164,0,
00:01.2,-0.000349045,-0.003084183,0.005498886,0,
00:01.2,-0.000326157,-0.00304985,0.005504608,0,
00:01.2,-0.000337601,-0.003089905,0.00548172,0,
00:01.2,-0.000349045,-0.003089905,0.005487442,0,
00:01.2,-0.000349045,-0.003118515,0.005504608,0,
00:01.2,-0.000343323,-0.003107071,0.005504608,0,
00:01.2,-0.000326157,-0.00302124,0.005487442,0,
00:01.2,-0.000331879,-0.003038406,0.005458832,0,
00:01.2,-0.000326157,-0.003112793,0.005504608,0,
00:01.2,-0.000320435,-0.003112793,0.005516052,0,
00:01.2,-0.000331879,-0.003101349,0.005493164,0,
00:01.2,-0.000326157,-0.003044128,0.005498886,0,
00:01.2,-0.000354767,-0.003067017,0.00551033,0,
00:01.2,-0.000354767,-0.003067017,0.00548172,0,
00:01.3,-0.00030899,-0.003015518,0.005475998,0,
00:01.3,-0.000314713,-0.003032684,0.005470276,0,
00:01.3,-0.000349045,-0.003084183,0.005458832,0,
00:01.3,-0.000349045,-0.003141403,0.005475998,0,
00:01.3,-0.000331879,-0.003124237,0.005504608,0,
00:01.3,-0.00030899,-0.003044128,0.005493164,0,
00:01.3,-0.00030899,-0.00304985,0.005493164,0,
00:01.3,-0.000349045,-0.003112793,0.00551033,0,
00:01.3,-0.000354767,-0.003147125,0.005504608,0,
00:01.3,-0.000337601,-0.003089905,0.005504608,0,
00:01.3,-0.000331879,-0.003089905,0.005498886,0,
00:01.3,-0.000349045,-0.003141403,0.005464554,0,
00:01.3,-0.000331879,-0.003072739,0.005464554,0,
00:01.3,-0.000326157,-0.003061295,0.00548172,0,
00:01.3,-0.000343323,-0.003084183,0.005493164,0,
00:01.3,-0.000337601,-0.003107071,0.005504608,0,
00:01.3,-0.000320435,-0.003067017,0.005493164,0,
00:01.3,-0.00030899,-0.003004074,0.00548172,0,
00:01.3,-0.000291824,-0.002998352,0.005487442,0,
00:01.3,-0.000303268,-0.00302124,0.005464554,0,
00:01.3,-0.000349045,-0.003101349,0.005493164,0,
00:01.3,-0.000360489,-0.003141403,0.005504608,0,
00:01.3,-0.000331879,-0.003107071,0.00551033,0,
00:01.3,-0.000326157,-0.003072739,0.005498886,0,
00:01.3,-0.000331879,-0.003072739,0.005493164,0,
00:01.4,-0.000343323,-0.003089905,0.00551033,0,
00:01.4,-0.000349045,-0.003095627,0.00548172,0,
00:01.4,-0.000343323,-0.003089905,0.00548172,0,
00:01.4,-0.000326157,-0.003084183,0.005493164,0,
00:01.4,-0.000314713,-0.003061295,0.005504608,0,
00:01.4,-0.00030899,-0.003044128,0.005487442,0,
00:01.4,-0.000331879,-0.003072739,0.00548172,0,
00:01.4,-0.000326157,-0.003084183,0.005487442,0,
00:01.4,-0.00030899,-0.003032684,0.005504608,0,
00:01.4,-0.00030899,-0.002998352,0.00548172,0,
00:01.4,-0.00030899,-0.003061295,0.00548172,0,
00:01.4,-0.000331879,-0.003084183,0.00548172,0,
00:01.4,-0.000326157,-0.003067017,0.005475998,0,
00:01.4,-0.000320435,-0.003061295,0.005493164,0,
00:01.4,-0.000331879,-0.003095627,0.005487442,0,
00:01.4,-0.000326157,-0.003067017,0.005458832,0,
00:01.4,-0.000320435,-0.00304985,0.005470276,0,
00:01.4,-0.000337601,-0.003095627,0.005493164,0,
00:01.4,-0.000320435,-0.00304985,0.005493164,0,
00:01.4,-0.000291824,-0.002969742,0.00548172,0,
00:01.4,-0.000314713,-0.003032684,0.005493164,0,
00:01.4,-0.000331879,-0.003112793,0.005493164,0,
00:01.4,-0.000343323,-0.003141403,0.005487442,0,
00:01.4,-0.000326157,-0.003061295,0.005475998,0,
00:01.4,-0.000314713,-0.003026962,0.005470276,0,
00:01.5,-0.00030899,-0.003078461,0.005470276,0,
00:01.5,-0.00030899,-0.003078461,0.005487442,0,
00:01.5,-0.000326157,-0.003078461,0.005487442,0,
00:01.5,-0.000314713,-0.003055573,0.00551033,0,
00:01.5,-0.000326157,-0.003061295,0.005498886,0,
00:01.5,-0.000331879,-0.003061295,0.005470276,0,
00:01.5,-0.000303268,-0.003038406,0.005475998,0,
00:01.5,-0.000314713,-0.003061295,0.005475998,0,
00:01.5,-0.000337601,-0.003101349,0.00548172,0,
00:01.5,-0.000326157,-0.003089905,0.005493164,0,
00:01.5,-0.000314713,-0.003067017,0.005498886,0,
00:01.5,-0.000297546,-0.003004074,0.00548172,0,
00:01.5,-0.000291824,-0.002981186,0.005475998,0,
00:01.5,-0.000314713,-0.003044128,0.005470276,0,
00:01.5,-0.000326157,-0.003107071,0.005487442,0,
00:01.5,-0.000360489,-0.003152847,0.005487442,0,
00:01.5,-0.000349045,-0.003107071,0.005487442,0,
00:01.5,-0.000320435,-0.003072739,0.005487442,0,
00:01.5,-0.000314713,-0.003044128,0.005504608,0,
00:01.5,-0.00030899,-0.003044128,0.005493164,0,
00:01.5,-0.000314713,-0.003067017,0.005464554,0,
00:01.5,-0.000337601,-0.003107071,0.00548172,0,
00:01.5,-0.000314713,-0.003061295,0.005475998,0,
00:01.5,-0.000314713,-0.003044128,0.005470276,0,
00:01.5,-0.000320435,-0.003044128,0.005475998,0,
00:01.6,-0.000337601,-0.003112793,0.00548172,0,
00:01.6,-0.000326157,-0.003095627,0.005475998,0,
00:01.6,-0.00030899,-0.003061295,0.005464554,0,
00:01.6,-0.000314713,-0.003044128,0.005498886,0,
00:01.6,-0.000314713,-0.003038406,0.005487442,0,
00:01.6,-0.000320435,-0.003067017,0.005470276,0,
00:01.6,-0.000326157,-0.003095627,0.005470276,0,
00:01.6,-0.000320435,-0.003089905,0.005470276,0,
00:01.6,-0.000314713,-0.003067017,0.00548172,0,
00:01.6,-0.000320435,-0.003044128,0.005464554,0,
00:01.6,-0.00028038,-0.002998352,0.005435944,0,
00:01.6,-0.000314713,-0.003084183,0.005470276,0,
00:01.6,-0.000343323,-0.003107071,0.005487442,0,
00:01.6,-0.000337601,-0.003061295,0.005504608,0,
00:01.6,-0.000320435,-0.003072739,0.005516052,0,
00:01.6,-0.000326157,-0.003112793,0.005487442,0,
00:01.6,-0.000314713,-0.003084183,0.005475998,0,
00:01.6,-0.00030899,-0.003084183,0.005475998,0,
00:01.6,-0.000314713,-0.003078461,0.005470276,0,
00:01.6,-0.000314713,-0.003095627,0.005458832,0,
00:01.6,-0.000314713,-0.003084183,0.005447388,0,
00:01.6,-0.000303268,-0.00302124,0.005470276,0,
00:01.6,-0.000303268,-0.003004074,0.005470276,0,
00:01.6,-0.00030899,-0.003044128,0.00548172,0,
00:01.6,-0.000297546,-0.003061295,0.005475998,0,
00:01.7,-0.000297546,-0.003032684,0.005447388,0,
00:01.7,-0.000314713,-0.003067017,0.005475998,0,
00:01.7,-0.000326157,-0.003101349,0.005493164,0,
00:01.7,-0.000303268,-0.003044128,0.005475998,0,
00:01.7,-0.000331879,-0.003084183,0.005470276,0,
00:01.7,-0.000326157,-0.003118515,0.005493164,0,
00:01.7,-0.000314713,-0.003078461,0.005464554,0,
00:01.7,-0.000314713,-0.003078461,0.005464554,0,
00:01.7,-0.00030899,-0.00304985,0.00548172,0,
00:01.7,-0.000314713,-0.003061295,0.005475998,0,
00:01.7,-0.00030899,-0.00304985,0.00545311,0,
00:01.7,-0.000314713,-0.003032684,0.00545311,0,
00:01.7,-0.000331879,-0.003084183,0.005464554,0,
00:01.7,-0.00030899,-0.003089905,0.005470276,0,
00:01.7,-0.000291824,-0.003089905,0.005458832,0,
00:01.7,-0.00030899,-0.003095627,0.005464554,0,
00:01.7,-0.00030899,-0.003072739,0.00548172,0,
00:01.7,-0.000320435,-0.003061295,0.005475998,0,
00:01.7,-0.00030899,-0.003044128,0.005470276,0,
00:01.7,-0.000291824,-0.003015518,0.005470276,0,
00:01.7,-0.000286102,-0.003015518,0.005464554,0,
00:01.7,-0.000303268,-0.003095627,0.00545311,0,
00:01.7,-0.00030899,-0.003107071,0.005470276,0,
00:01.7,-0.000297546,-0.003038406,0.005464554,0,
00:01.7,-0.000297546,-0.003026962,0.005458832,0,
00:01.8,-0.00030899,-0.003061295,0.00545311,0,
00:01.8,-0.000303268,-0.003044128,0.00548172,0,
00:01.8,-0.000291824,-0.003055573,0.005487442,0,
00:01.8,-0.000297546,-0.003061295,0.005475998,0,
00:01.8,-0.000320435,-0.003089905,0.005470276,0,
00:01.8,-0.00030899,-0.003078461,0.005458832,0,
00:01.8,-0.000303268,-0.003089905,0.005464554,0,
00:01.8,-0.00030899,-0.003089905,0.00548172,0,
00:01.8,-0.000314713,-0.003061295,0.005464554,0,
00:01.8,-0.000320435,-0.003095627,0.005464554,0,
00:01.8,-0.00030899,-0.003084183,0.005464554,0,
00:01.8,-0.000314713,-0.003072739,0.005464554,0,
00:01.8,-0.000303268,-0.003038406,0.005470276,0,
00:01.8,-0.000303268,-0.003055573,0.005458832,0,
00:01.8,-0.00028038,-0.00302124,0.005447388,0,
00:01.8,-0.000291824,-0.003044128,0.00545311,0,
00:01.8,-0.000303268,-0.003055573,0.005458832,0,
00:01.8,-0.000331879,-0.003095627,0.005464554,0,
00:01.8,-0.000314713,-0.003101349,0.00548172,0,
00:01.8,-0.000303268,-0.003107071,0.005487442,0,
00:01.8,-0.000303268,-0.003084183,0.00548172,0,
00:01.8,-0.000303268,-0.003061295,0.005475998,0,
00:01.8,-0.000291824,-0.003061295,0.005470276,0,
00:01.8,-0.000268936,-0.003067017,0.005441666,0,
00:01.8,-0.00028038,-0.003055573,0.005447388,0,
00:01.9,-0.000286102,-0.002986908,0.005441666,0,
00:01.9,-0.000314713,-0.00304985,0.00545311,0,
00:01.9,-0.000326157,-0.003141403,0.005475998,0,
00:01.9,-0.00030899,-0.003101349,0.005475998,0,
00:01.9,-0.000297546,-0.003084183,0.005493164,0,
00:01.9,-0.00030899,-0.003078461,0.005475998,0,
00:01.9,-0.000303268,-0.003072739,0.005475998,0,
00:01.9,-0.000286102,-0.003078461,0.005475998,0,
00:01.9,-0.000286102,-0.003055573,0.005458832,0,
00:01.9,-0.00028038,-0.003044128,0.00545311,0,
00:01.9,-0.000297546,-0.003026962,0.005435944,0,
00:01.9,-0.00030899,-0.003044128,0.00545311,0,
00:01.9,-0.00030899,-0.003118515,0.005458832,0,
00:01.9,-0.000297546,-0.003095627,0.00548172,0,
00:01.9,-0.000291824,-0.003067017,0.00548172,0,
00:01.9,-0.000303268,-0.003061295,0.005470276,0,
00:01.9,-0.000297546,-0.00304985,0.005464554,0,
00:01.9,-0.000263214,-0.003044128,0.005470276,0,
00:01.9,-0.000286102,-0.003101349,0.005441666,0,
00:01.9,-0.000303268,-0.003084183,0.005430222,0,
00:01.9,-0.000297546,-0.003055573,0.005458832,0,
00:01.9,-0.000286102,-0.003055573,0.00548172,0,
00:01.9,-0.000291824,-0.003089905,0.005458832,0,
00:01.9,-0.000291824,-0.003061295,0.005464554,0,
00:01.9,-0.000297546,-0.003072739,0.005464554,0,
00:02.0,-0.000297546,-0.003078461,0.00545311,0,
00:02.0,-0.000291824,-0.003044128,0.00545311,0,
00:02.0,-0.000291824,-0.003032684,0.00545311,0,
00:02.0,-0.000286102,-0.003055573,0.005475998,0,
00:02.0,-0.000286102,-0.003084183,0.005464554,0,
00:02.0,-0.00028038,-0.003044128,0.00545311,0,
00:02.0,-0.000291824,-0.003067017,0.00545311,0,
00:02.0,-0.000303268,-0.003089905,0.005447388,0,
00:02.0,-0.000303268,-0.003112793,0.005464554,0,
00:02.0,-0.000297546,-0.003084183,0.005458832,0,
00:02.0,-0.000291824,-0.003061295,0.005464554,0,
00:02.0,-0.000291824,-0.00304985,0.00545311,0,
00:00:02,-0.000286102,-0.003044128,0.005441666,0,
00:02.0,-0.000291824,-0.003055573,0.00545311,0,
00:02.0,-0.000297546,-0.003061295,0.00545311,0,
00:02.0,-0.000286102,-0.00304985,0.005435944,0,
00:02.0,-0.000291824,-0.00304985,0.005435944,0,
00:02.0,-0.000314713,-0.003032684,0.005464554,0,
00:02.0,-0.000291824,-0.003095627,0.005475998,0,
00:02.0,-0.000291824,-0.003089905,0.005475998,0,
00:02.0,-0.000291824,-0.003078461,0.00545311,0,
00:02.0,-0.000286102,-0.003067017,0.00545311,0,
00:02.0,-0.000274658,-0.003038406,0.00545311,0,
00:02.0,-0.000274658,-0.003044128,0.005441666,0,
00:02.0,-0.000274658,-0.003044128,0.005435944,0,
00:02.1,-0.000291824,-0.003055573,0.005435944,0,
00:02.1,-0.000274658,-0.003055573,0.005435944,0,
00:02.1,-0.000286102,-0.00304985,0.0054245,0,
00:02.1,-0.000320435,-0.003089905,0.005458832,0,
00:02.1,-0.000320435,-0.003118515,0.005475998,0,
00:02.1,-0.000303268,-0.003078461,0.005470276,0,
00:02.1,-0.000286102,-0.003061295,0.005458832,0,
00:02.1,-0.000286102,-0.003078461,0.005458832,0,
00:02.1,-0.000286102,-0.00304985,0.005464554,0,
00:02.1,-0.000274658,-0.003026962,0.005441666,0,
00:02.1,-0.000291824,-0.003044128,0.005435944,0,
00:02.1,-0.000303268,-0.003095627,0.005441666,0,
00:02.1,-0.000291824,-0.003072739,0.005447388,0,
00:02.1,-0.000286102,-0.003009796,0.005447388,0,
00:02.1,-0.000240326,-0.002958298,0.0054245,0,
00:02.1,-0.000286102,-0.003089905,0.005413055,0,
00:02.1,-0.000331879,-0.003158569,0.005447388,0,
00:02.1,-0.000326157,-0.003118515,0.005470276,0,
00:02.1,-0.000297546,-0.003078461,0.005464554,0,
00:02.1,-0.000286102,-0.003055573,0.005458832,0,
00:02.1,-0.000268936,-0.003032684,0.005441666,0,
00:02.1,-0.00028038,-0.003038406,0.005430222,0,
00:02.1,-0.00030899,-0.003067017,0.005441666,0,
00:02.1,-0.000303268,-0.003072739,0.005458832,0,
00:02.1,-0.000286102,-0.003061295,0.005447388,0,
00:02.2,-0.000291824,-0.003061295,0.005435944,0,
00:02.2,-0.00030899,-0.003095627,0.005435944,0,
00:02.2,-0.000303268,-0.003072739,0.005435944,0,
00:02.2,-0.000286102,-0.003032684,0.005435944,0,
00:02.2,-0.00028038,-0.003044128,0.005441666,0,
00:02.2,-0.000286102,-0.003089905,0.005441666,0,
00:02.2,-0.000303268,-0.003084183,0.005435944,0,
00:02.2,-0.000303268,-0.003072739,0.005447388,0,
00:02.2,-0.000297546,-0.003067017,0.005447388,0,
00:02.2,-0.000291824,-0.003055573,0.005441666,0,
00:02.2,-0.000286102,-0.003067017,0.005441666,0,
00:02.2,-0.000303268,-0.003061295,0.005430222,0,
00:02.2,-0.000303268,-0.003044128,0.005441666,0,
00:02.2,-0.00030899,-0.003032684,0.005441666,0,
00:02.2,-0.000274658,-0.003015518,0.0054245,0,
00:02.2,-0.000263214,-0.003038406,0.005435944,0,
00:02.2,-0.000268936,-0.003055573,0.005430222,0,
00:02.2,-0.000303268,-0.003084183,0.005435944,0,
00:02.2,-0.000320435,-0.003095627,0.00545311,0,
00:02.2,-0.000297546,-0.003055573,0.005447388,0,
00:02.2,-0.000286102,-0.003026962,0.00545311,0,
00:02.2,-0.000297546,-0.003084183,0.005441666,0,
00:02.2,-0.000314713,-0.003112793,0.005435944,0,
00:02.2,-0.000303268,-0.003095627,0.005464554,0,
00:02.2,-0.000291824,-0.003067017,0.005447388,0,
00:02.3,-0.00028038,-0.003004074,0.00545311,0,
00:02.3,-0.000274658,-0.00302124,0.005447388,0,
00:02.3,-0.000320435,-0.003124237,0.005441666,0,
00:02.3,-0.000314713,-0.003084183,0.005441666,0,
00:02.3,-0.000303268,-0.003055573,0.005441666,0,
00:02.3,-0.000297546,-0.003038406,0.005447388,0,
00:02.3,-0.000303268,-0.003072739,0.005435944,0,
00:02.3,-0.000297546,-0.003084183,0.00545311,0,
00:02.3,-0.000297546,-0.003078461,0.005441666,0,
00:02.3,-0.000291824,-0.003061295,0.005413055,0,
00:02.3,-0.00028038,-0.003038406,0.0054245,0,
00:02.3,-0.000291824,-0.003032684,0.00545311,0,
00:02.3,-0.000303268,-0.003038406,0.005458832,0,
00:02.3,-0.000286102,-0.00302124,0.005435944,0,
00:02.3,-0.000286102,-0.003026962,0.005441666,0,
00:02.3,-0.000286102,-0.003044128,0.005447388,0,
00:02.3,-0.00030899,-0.003089905,0.005441666,0,
00:02.3,-0.000320435,-0.003118515,0.005447388,0,
00:02.3,-0.00030899,-0.003072739,0.005464554,0,
00:02.3,-0.000291824,-0.003038406,0.00545311,0,
00:02.3,-0.000337601,-0.003055573,0.005458832,0,
00:02.3,-0.000320435,-0.003089905,0.005458832,0,
00:02.3,-0.000286102,-0.003067017,0.005447388,0,
00:02.3,-0.000286102,-0.003026962,0.005441666,0,
00:02.3,-0.000286102,-0.003026962,0.005430222,0,
00:02.4,-0.000274658,-0.00302124,0.005441666,0,
00:02.4,-0.00028038,-0.003055573,0.005441666,0,
00:02.4,-0.000286102,-0.003078461,0.005447388,0,
00:02.4,-0.00030899,-0.003107071,0.00545311,0,
00:02.4,-0.000314713,-0.003095627,0.005458832,0,
00:02.4,-0.000297546,-0.003101349,0.005470276,0,
00:02.4,-0.000291824,-0.00304985,0.005470276,0,
00:02.4,-0.000286102,-0.002986908,0.005441666,0,
00:02.4,-0.00028038,-0.003032684,0.005441666,0,
00:02.4,-0.00028038,-0.002998352,0.005447388,0,
00:02.4,-0.000297546,-0.003038406,0.005441666,0,
00:02.4,-0.000303268,-0.003084183,0.005447388,0,
00:02.4,-0.000303268,-0.00304985,0.005441666,0,
00:02.4,-0.000286102,-0.003061295,0.005447388,0,
00:02.4,-0.00028038,-0.003061295,0.00545311,0,
00:02.4,-0.00028038,-0.003015518,0.00545311,0,
00:02.4,-0.000297546,-0.003044128,0.005447388,0,
00:02.4,-0.000320435,-0.003078461,0.005447388,0,
00:02.4,-0.000320435,-0.003061295,0.005458832,0,
00:02.4,-0.000274658,-0.003026962,0.005475998,0,
00:02.4,-0.000286102,-0.003061295,0.005447388,0,
00:02.4,-0.000303268,-0.003078461,0.005435944,0,
00:02.4,-0.000286102,-0.003055573,0.0054245,0,
00:02.4,-0.00028038,-0.003032684,0.005458832,0,
00:02.4,-0.000291824,-0.003026962,0.005458832,0,
00:02.5,-0.000303268,-0.003032684,0.005441666,0,
00:02.5,-0.000268936,-0.002998352,0.0054245,0,
00:02.5,-0.000274658,-0.003061295,0.005447388,0,
00:02.5,-0.000303268,-0.003118515,0.005447388,0,
00:02.5,-0.000320435,-0.003101349,0.005458832,0,
00:02.5,-0.00030899,-0.003072739,0.005470276,0,
00:02.5,-0.000297546,-0.003084183,0.005447388,0,
00:02.5,-0.000286102,-0.003055573,0.005447388,0,
00:02.5,-0.000286102,-0.00302124,0.005441666,0,
00:02.5,-0.000297546,-0.003009796,0.005435944,0,
00:02.5,-0.00030899,-0.00304985,0.005441666,0,
00:02.5,-0.00030899,-0.003089905,0.005458832,0,
00:02.5,-0.000297546,-0.003084183,0.005458832,0,
00:02.5,-0.000297546,-0.00304985,0.005441666,0,
00:02.5,-0.00028038,-0.002998352,0.005441666,0,
00:02.5,-0.000263214,-0.002969742,0.005447388,0,
00:02.5,-0.000314713,-0.003095627,0.00545311,0,
00:02.5,-0.000331879,-0.003101349,0.00545311,0,
00:02.5,-0.000326157,-0.003072739,0.005447388,0,
00:02.5,-0.000303268,-0.003055573,0.005430222,0,
00:02.5,-0.000257492,-0.003032684,0.005441666,0,
00:02.5,-0.00028038,-0.003038406,0.005447388,0,
00:02.5,-0.000314713,-0.003078461,0.005441666,0,
00:02.5,-0.00030899,-0.003061295,0.005441666,0,
00:02.5,-0.000291824,-0.003026962,0.005435944,0,
00:02.6,-0.000303268,-0.003044128,0.005447388,0,
00:02.6,-0.000314713,-0.003067017,0.005430222,0,
00:02.6,-0.00030899,-0.003078461,0.005430222,0,
00:02.6,-0.000291824,-0.003067017,0.005464554,0,
00:02.6,-0.00030899,-0.003078461,0.005447388,0,
00:02.6,-0.000291824,-0.00304985,0.005430222,0,
00:02.6,-0.000297546,-0.003044128,0.005435944,0,
00:02.6,-0.000314713,-0.003044128,0.005441666,0,
00:02.6,-0.000303268,-0.002998352,0.005447388,0,
00:02.6,-0.000303268,-0.003009796,0.005435944,0,
00:02.6,-0.000314713,-0.003095627,0.005418777,0,
00:02.6,-0.000303268,-0.003101349,0.005435944,0,
00:02.6,-0.000303268,-0.003055573,0.005458832,0,
00:02.6,-0.000303268,-0.003061295,0.005458832,0,
00:02.6,-0.000297546,-0.003038406,0.005441666,0,
00:02.6,-0.000291824,-0.003026962,0.005418777,0,
00:02.6,-0.000314713,-0.003061295,0.005435944,0,
00:02.6,-0.000320435,-0.003084183,0.005458832,0,
00:02.6,-0.000331879,-0.003084183,0.005447388,0,
00:02.6,-0.000320435,-0.003055573,0.005435944,0,
00:02.6,-0.000286102,-0.003026962,0.005441666,0,
00:02.6,-0.000286102,-0.003026962,0.005441666,0,
00:02.6,-0.00030899,-0.003072739,0.005447388,0,
00:02.6,-0.000303268,-0.003078461,0.005435944,0,
00:02.6,-0.000320435,-0.003067017,0.005418777,0,
00:02.7,-0.000326157,-0.003067017,0.005441666,0,
00:02.7,-0.00030899,-0.00304985,0.005458832,0,
00:02.7,-0.000291824,-0.003026962,0.005458832,0,
00:02.7,-0.000303268,-0.003044128,0.005435944,0,
00:02.7,-0.000303268,-0.003067017,0.005418777,0,
00:02.7,-0.00028038,-0.003015518,0.005430222,0,
00:02.7,-0.000314713,-0.003061295,0.005430222,0,
00:02.7,-0.000331879,-0.003078461,0.005447388,0,
00:02.7,-0.000320435,-0.003072739,0.005464554,0,
00:02.7,-0.000314713,-0.003072739,0.005441666,0,
00:02.7,-0.000303268,-0.003038406,0.005447388,0,
00:02.7,-0.000303268,-0.003038406,0.005441666,0,
00:02.7,-0.00030899,-0.003095627,0.005447388,0,
00:02.7,-0.000320435,-0.003061295,0.005458832,0,
00:02.7,-0.000320435,-0.003044128,0.005435944,0,
00:02.7,-0.000331879,-0.00304985,0.005430222,0,
00:02.7,-0.000320435,-0.003067017,0.005441666,0,
00:02.7,-0.000303268,-0.003072739,0.005435944,0,
00:02.7,-0.00028038,-0.003038406,0.005435944,0,
00:02.7,-0.000286102,-0.003044128,0.005458832,0,
00:02.7,-0.00030899,-0.003055573,0.005458832,0,
00:02.7,-0.000314713,-0.003044128,0.005441666,0,
00:02.7,-0.000314713,-0.00304985,0.00545311,0,
00:02.7,-0.000303268,-0.003067017,0.005447388,0,
00:02.7,-0.000291824,-0.00302124,0.005435944,0,
00:02.8,-0.000303268,-0.003032684,0.005441666,0,
00:02.8,-0.000303268,-0.003061295,0.00545311,0,
00:02.8,-0.000297546,-0.003044128,0.005464554,0,
00:02.8,-0.000314713,-0.003055573,0.005447388,0,
00:02.8,-0.00030899,-0.003032684,0.005447388,0,
00:02.8,-0.000303268,-0.003061295,0.00545311,0,
00:02.8,-0.000303268,-0.003084183,0.005447388,0,
00:02.8,-0.000297546,-0.003067017,0.005464554,0,
00:02.8,-0.000297546,-0.00302124,0.005470276,0,
00:02.8,-0.000331879,-0.003038406,0.00545311,0,
00:02.8,-0.000326157,-0.003084183,0.005447388,0,
00:02.8,-0.00030899,-0.003072739,0.005447388,0,
00:02.8,-0.000320435,-0.003026962,0.0054245,0,
00:02.8,-0.000320435,-0.003038406,0.005430222,0,
00:02.8,-0.000297546,-0.003107071,0.00545311,0,
00:02.8,-0.000297546,-0.003107071,0.005464554,0,
00:02.8,-0.000297546,-0.003038406,0.005458832,0,
00:02.8,-0.000286102,-0.003009796,0.005464554,0,
00:02.8,-0.000291824,-0.003026962,0.005458832,0,
00:02.8,-0.000303268,-0.003061295,0.005447388,0,
00:02.8,-0.00030899,-0.003084183,0.005441666,0,
00:02.8,-0.000303268,-0.003067017,0.005441666,0,
00:02.8,-0.000297546,-0.003067017,0.00545311,0,
00:02.8,-0.000297546,-0.003061295,0.005458832,0,
00:02.8,-0.000303268,-0.00304985,0.005470276,0,
00:02.9,-0.000297546,-0.003026962,0.005458832,0,
00:02.9,-0.000297546,-0.003026962,0.005441666,0,
00:02.9,-0.000291824,-0.003032684,0.005447388,0,
00:02.9,-0.00030899,-0.003067017,0.005458832,0,
00:02.9,-0.000303268,-0.003061295,0.00545311,0,
00:02.9,-0.000297546,-0.003032684,0.005435944,0,
00:02.9,-0.000286102,-0.003004074,0.005464554,0,
00:02.9,-0.000320435,-0.003055573,0.005470276,0,
00:02.9,-0.000343323,-0.003112793,0.005470276,0,
00:02.9,-0.000320435,-0.003078461,0.005464554,0,
00:02.9,-0.000291824,-0.003038406,0.00545311,0,
00:02.9,-0.000303268,-0.003038406,0.00545311,0,
00:02.9,-0.000326157,-0.003072739,0.005464554,0,
00:02.9,-0.000314713,-0.003095627,0.005458832,0,
00:02.9,-0.000297546,-0.003044128,0.005435944,0,
00:02.9,-0.000303268,-0.003078461,0.005430222,0,
00:02.9,-0.000326157,-0.003089905,0.005458832,0,
00:02.9,-0.000337601,-0.003055573,0.005458832,0,
00:02.9,-0.000326157,-0.003026962,0.005470276,0,
00:02.9,-0.000303268,-0.003015518,0.00548172,0,
00:02.9,-0.000286102,-0.003067017,0.005447388,0,
00:02.9,-0.000286102,-0.003055573,0.005447388,0,
00:02.9,-0.00028038,-0.003026962,0.005458832,0,
00:02.9,-0.000303268,-0.003061295,0.005458832,0,
00:02.9,-0.000314713,-0.003072739,0.005470276,0,
00:03.0,-0.00030899,-0.003067017,0.005464554,0,
00:03.0,-0.00030899,-0.003072739,0.005458832,0,
00:03.0,-0.000297546,-0.003026962,0.005470276,0,
00:03.0,-0.000291824,-0.003004074,0.00545311,0,
00:03.0,-0.000320435,-0.003072739,0.005435944,0,
00:03.0,-0.000320435,-0.003107071,0.00545311,0,
00:03.0,-0.000320435,-0.003072739,0.005498886,0,
00:03.0,-0.000314713,-0.003038406,0.005475998,0,
00:03.0,-0.000303268,-0.00299263,0.005441666,0,
00:03.0,-0.000291824,-0.00299263,0.005464554,0,
00:03.0,-0.000297546,-0.003026962,0.005441666,0,
00:03.0,-0.000337601,-0.003044128,0.0054245,0,
00:00:03,-0.000349045,-0.003055573,0.005441666,0,
00:03.0,-0.000326157,-0.003072739,0.00545311,0,
00:03.0,-0.000320435,-0.003072739,0.005470276,0,
00:03.0,-0.000314713,-0.003032684,0.005464554,0,
00:03.0,-0.000303268,-0.003026962,0.005447388,0,
00:03.0,-0.000314713,-0.003061295,0.005447388,0,
00:03.0,-0.000320435,-0.00304985,0.005464554,0,
00:03.0,-0.00030899,-0.00302124,0.00545311,0,
00:03.0,-0.000314713,-0.00304985,0.00545311,0,
00:03.0,-0.000314713,-0.003032684,0.005447388,0,
00:03.0,-0.000326157,-0.00304985,0.005435944,0,
00:03.0,-0.000320435,-0.003061295,0.005464554,0,
00:03.0,-0.000326157,-0.003072739,0.005470276,0,
00:03.1,-0.000326157,-0.00304985,0.005458832,0,
00:03.1,-0.00030899,-0.003004074,0.005447388,0,
00:03.1,-0.000320435,-0.003038406,0.00545311,0,
00:03.1,-0.000320435,-0.003055573,0.005464554,0,
00:03.1,-0.000331879,-0.003067017,0.00545311,0,
00:03.1,-0.00030899,-0.003032684,0.005470276,0,
00:03.1,-0.000303268,-0.003009796,0.005470276,0,
00:03.1,-0.000349045,-0.00302124,0.005447388,0,
00:03.1,-0.000349045,-0.003038406,0.00545311,0,
00:03.1,-0.000349045,-0.003095627,0.00545311,0,
00:03.1,-0.000331879,-0.003067017,0.005470276,0,
00:03.1,-0.000320435,-0.003038406,0.005458832,0,
00:03.1,-0.000337601,-0.003015518,0.005458832,0,
00:03.1,-0.000394821,-0.00302124,0.005470276,0,
00:03.1,-0.000383377,-0.003055573,0.00548172,0,
00:03.1,-0.00030899,-0.003038406,0.00545311,0,
00:03.1,-0.000297546,-0.003038406,0.005441666,0,
00:03.1,-0.00030899,-0.00302124,0.005458832,0,
00:03.1,-0.000314713,-0.003032684,0.005458832,0,
00:03.1,-0.000331879,-0.003061295,0.005458832,0,
00:03.1,-0.000343323,-0.003055573,0.005464554,0,
00:03.1,-0.000326157,-0.003038406,0.005464554,0,
00:03.1,-0.000314713,-0.00302124,0.005458832,0,
00:03.1,-0.000343323,-0.003055573,0.005475998,0,
00:03.1,-0.000337601,-0.00304985,0.005470276,0,
00:03.2,-0.000337601,-0.003044128,0.005458832,0,
00:03.2,-0.000337601,-0.003032684,0.00545311,0,
00:03.2,-0.000331879,-0.00302124,0.005447388,0,
00:03.2,-0.000343323,-0.003061295,0.005475998,0,
00:03.2,-0.000337601,-0.003026962,0.005487442,0,
00:03.2,-0.000326157,-0.002975464,0.00548172,0,
00:03.2,-0.000354767,-0.003095627,0.005447388,0,
00:03.2,-0.000354767,-0.003095627,0.005464554,0,
00:03.2,-0.000349045,-0.00304985,0.005470276,0,
00:03.2,-0.000343323,-0.003055573,0.005458832,0,
00:03.2,-0.000343323,-0.003067017,0.005470276,0,
00:03.2,-0.000354767,-0.00302124,0.005475998,0,
00:03.2,-0.000354767,-0.00302124,0.005458832,0,
00:03.2,-0.000331879,-0.003055573,0.005470276,0,
00:03.2,-0.000331879,-0.003038406,0.005464554,0,
00:03.2,-0.000326157,-0.003026962,0.005464554,0,
00:03.2,-0.000337601,-0.003067017,0.005458832,0,
00:03.2,-0.000320435,-0.003026962,0.005464554,0,
00:03.2,-0.000331879,-0.002998352,0.005464554,0,
00:03.2,-0.00044632,-0.00304985,0.005470276,0,
00:03.2,-0.000469208,-0.003055573,0.005487442,0,
00:03.2,-0.000303268,-0.003061295,0.005475998,0,
00:03.2,-0.00025177,-0.003026962,0.00545311,0,
00:03.2,-0.00030899,-0.003026962,0.005458832,0,
00:03.2,-0.000320435,-0.003038406,0.005470276,0,
00:03.3,-0.000303268,-0.003044128,0.005458832,0,
00:03.3,-0.000314713,-0.003038406,0.005458832,0,
00:03.3,-0.00030899,-0.003015518,0.005458832,0,
00:03.3,-0.000291824,-0.00302124,0.005464554,0,
00:03.3,-0.000303268,-0.003038406,0.005464554,0,
00:03.3,-0.000326157,-0.003015518,0.005441666,0,
00:03.3,-0.000423431,-0.003026962,0.005441666,0,
00:03.3,-0.000429153,-0.003101349,0.005470276,0,
00:03.3,-0.000274658,-0.003089905,0.005475998,0,
00:03.3,-0.000240326,-0.003032684,0.00548172,0,
00:03.3,-0.00028038,-0.003044128,0.005470276,0,
00:03.3,-0.000320435,-0.00302124,0.005458832,0,
00:03.3,-0.000314713,-0.003038406,0.00545311,0,
00:03.3,-0.000291824,-0.003061295,0.005458832,0,
00:03.3,-0.000291824,-0.003038406,0.005464554,0,
00:03.3,-0.000268936,-0.002941132,0.005464554,0,
00:03.3,-0.000343323,-0.003061295,0.00545311,0,
00:03.3,-0.000349045,-0.003124237,0.005470276,0,
00:03.3,-0.000326157,-0.003078461,0.005458832,0,
00:03.3,-0.000297546,-0.003032684,0.005464554,0,
00:03.3,-0.000320435,-0.003032684,0.00545311,0,
00:03.3,-0.000326157,-0.003038406,0.005458832,0,
00:03.3,-0.000320435,-0.003044128,0.005458832,0,
00:03.3,-0.000326157,-0.003061295,0.005464554,0,
00:03.3,-0.00030899,-0.00304985,0.00545311,0,
00:03.4,-0.000314713,-0.003004074,0.005447388,0,
00:03.4,-0.000314713,-0.003026962,0.00545311,0,
00:03.4,-0.00030899,-0.003044128,0.005458832,0,
00:03.4,-0.00030899,-0.003015518,0.005441666,0,
00:03.4,-0.000320435,-0.003038406,0.00545311,0,
00:03.4,-0.000314713,-0.003061295,0.005464554,0,
00:03.4,-0.000331879,-0.003015518,0.005447388,0,
00:03.4,-0.000349045,-0.003044128,0.005447388,0,
00:03.4,-0.000303268,-0.003055573,0.005447388,0,
00:03.4,-0.00030899,-0.003061295,0.005447388,0,
00:03.4,-0.000331879,-0.003055573,0.00545311,0,
00:03.4,-0.000314713,-0.003009796,0.005458832,0,
00:03.4,-0.00030899,-0.003026962,0.00545311,0,
00:03.4,-0.000337601,-0.003101349,0.005458832,0,
00:03.4,-0.000326157,-0.003072739,0.005470276,0,
00:03.4,-0.00030899,-0.003032684,0.005458832,0,
00:03.4,-0.000320435,-0.003038406,0.005447388,0,
00:03.4,-0.000331879,-0.003038406,0.005458832,0,
00:03.4,-0.000337601,-0.003044128,0.00545311,0,
00:03.4,-0.000326157,-0.003072739,0.005464554,0,
00:03.4,-0.000326157,-0.003067017,0.005458832,0,
00:03.4,-0.000349045,-0.003004074,0.005435944,0,
00:03.4,-0.000326157,-0.003055573,0.005441666,0,
00:03.4,-0.00028038,-0.003055573,0.005441666,0,
00:03.4,-0.000320435,-0.003044128,0.00545311,0,
00:03.5,-0.000314713,-0.003055573,0.005470276,0,
00:03.5,-0.00028038,-0.003044128,0.005464554,0,
00:03.5,-0.000303268,-0.003044128,0.00545311,0,
00:03.5,-0.00030899,-0.003055573,0.005441666,0,
00:03.5,-0.00030899,-0.003038406,0.005464554,0,
00:03.5,-0.000314713,-0.003038406,0.005464554,0,
00:03.5,-0.000303268,-0.003044128,0.00545311,0,
00:03.5,-0.000303268,-0.00302124,0.00545311,0,
00:03.5,-0.000343323,-0.00304985,0.005447388,0,
00:03.5,-0.000343323,-0.003055573,0.005441666,0,
00:03.5,-0.000297546,-0.003055573,0.005447388,0,
00:03.5,-0.000314713,-0.003078461,0.005458832,0,
00:03.5,-0.000297546,-0.003038406,0.005464554,0,
00:03.5,-0.000326157,-0.002998352,0.005447388,0,
00:03.5,-0.000354767,-0.003055573,0.00545311,0,
00:03.5,-0.00028038,-0.003067017,0.005458832,0,
00:03.5,-0.000268936,-0.00304985,0.00545311,0,
00:03.5,-0.000286102,-0.003026962,0.005464554,0,
00:03.5,-0.000297546,-0.003044128,0.005464554,0,
00:03.5,-0.000303268,-0.003038406,0.005458832,0,
00:03.5,-0.000331879,-0.003061295,0.005447388,0,
00:03.5,-0.000331879,-0.003026962,0.005464554,0,
00:03.5,-0.000286102,-0.003009796,0.005458832,0,
00:03.5,-0.000291824,-0.003044128,0.00545311,0,
00:03.5,-0.000291824,-0.00299263,0.005447388,0,
00:03.6,-0.000297546,-0.003044128,0.005447388,0,
00:03.6,-0.000314713,-0.003095627,0.005447388,0,
00:03.6,-0.000314713,-0.003061295,0.005447388,0,
00:03.6,-0.000303268,-0.003055573,0.00545311,0,
00:03.6,-0.000291824,-0.003055573,0.00545311,0,
00:03.6,-0.000326157,-0.003044128,0.005470276,0,
00:03.6,-0.000337601,-0.00304985,0.005470276,0,
00:03.6,-0.000320435,-0.003044128,0.005458832,0,
00:03.6,-0.000320435,-0.003061295,0.00548172,0,
00:03.6,-0.000286102,-0.003055573,0.005464554,0,
00:03.6,-0.000291824,-0.003055573,0.00545311,0,
00:03.6,-0.000291824,-0.003038406,0.005458832,0,
00:03.6,-0.000297546,-0.003032684,0.005464554,0,
00:03.6,-0.000297546,-0.003038406,0.005458832,0,
00:03.6,-0.000286102,-0.00299263,0.005447388,0,
00:03.6,-0.000297546,-0.003026962,0.00545311,0,
00:03.6,-0.000314713,-0.003118515,0.00545311,0,
00:03.6,-0.000320435,-0.003089905,0.00545311,0,
00:03.6,-0.000303268,-0.002981186,0.005464554,0,
00:03.6,-0.000286102,-0.003015518,0.00548172,0,
00:03.6,-0.000286102,-0.00304985,0.005475998,0,
00:03.6,-0.000286102,-0.003032684,0.005470276,0,
00:03.6,-0.00028038,-0.002986908,0.005464554,0,
00:03.6,-0.000303268,-0.003061295,0.005458832,0,
00:03.6,-0.000291824,-0.003061295,0.005464554,0,
00:03.7,-0.00028038,-0.003015518,0.005458832,0,
00:03.7,-0.00030899,-0.003055573,0.005447388,0,
00:03.7,-0.000314713,-0.00304985,0.005464554,0,
00:03.7,-0.000314713,-0.003089905,0.005493164,0,
00:03.7,-0.000320435,-0.003061295,0.005487442,0,
00:03.7,-0.000326157,-0.003038406,0.005464554,0,
00:03.7,-0.000291824,-0.003044128,0.005470276,0,
00:03.7,-0.000286102,-0.003044128,0.00545311,0,
00:03.7,-0.000291824,-0.00304985,0.005464554,0,
00:03.7,-0.000274658,-0.003055573,0.005464554,0,
00:03.7,-0.000291824,-0.003015518,0.005441666,0,
00:03.7,-0.00030899,-0.003038406,0.005441666,0,
00:03.7,-0.00028038,-0.00302124,0.005470276,0,
00:03.7,-0.00028038,-0.003032684,0.005487442,0,
00:03.7,-0.000303268,-0.003061295,0.00548172,0,
00:03.7,-0.000303268,-0.003055573,0.005493164,0,
00:03.7,-0.000297546,-0.003061295,0.005487442,0,
00:03.7,-0.000297546,-0.00304985,0.00548172,0,
00:03.7,-0.000314713,-0.003055573,0.005475998,0,
00:03.7,-0.000320435,-0.003032684,0.005475998,0,
00:03.7,-0.000291824,-0.003038406,0.005464554,0,
00:03.7,-0.000263214,-0.00302124,0.005458832,0,
00:03.7,-0.000291824,-0.00302124,0.005464554,0,
00:03.7,-0.000331879,-0.002975464,0.005464554,0,
00:03.7,-0.000326157,-0.003015518,0.005435944,0,
00:03.8,-0.000263214,-0.003032684,0.005470276,0,
00:03.8,-0.000246048,-0.003061295,0.005487442,0,
00:03.8,-0.000263214,-0.003055573,0.005493164,0,
00:03.8,-0.000286102,-0.003044128,0.005470276,0,
00:03.8,-0.000274658,-0.003038406,0.005447388,0,
00:03.8,-0.000274658,-0.003015518,0.005447388,0,
00:03.8,-0.00030899,-0.003061295,0.00548172,0,
00:03.8,-0.000303268,-0.003067017,0.005487442,0,
00:03.8,-0.000286102,-0.003026962,0.005464554,0,
00:03.8,-0.000291824,-0.00302124,0.005470276,0,
00:03.8,-0.000286102,-0.003055573,0.005493164,0,
00:03.8,-0.000291824,-0.003078461,0.005487442,0,
00:03.8,-0.000291824,-0.003061295,0.005464554,0,
00:03.8,-0.000286102,-0.003026962,0.00545311,0,
00:03.8,-0.000286102,-0.003009796,0.005487442,0,
00:03.8,-0.000303268,-0.003026962,0.00548172,0,
00:03.8,-0.000291824,-0.003026962,0.005475998,0,
00:03.8,-0.00028038,-0.003032684,0.00545311,0,
00:03.8,-0.000326157,-0.003032684,0.005458832,0,
00:03.8,-0.000274658,-0.003044128,0.005475998,0,
00:03.8,-0.000257492,-0.003044128,0.005470276,0,
00:03.8,-0.000303268,-0.00304985,0.005470276,0,
00:03.8,-0.000297546,-0.003055573,0.005464554,0,
00:03.8,-0.00025177,-0.003038406,0.00545311,0,
00:03.8,-0.000263214,-0.00302124,0.005464554,0,
00:03.9,-0.000263214,-0.003032684,0.005493164,0,
00:03.9,-0.000263214,-0.003015518,0.005464554,0,
00:03.9,-0.000257492,-0.002981186,0.005470276,0,
00:03.9,-0.000303268,-0.00304985,0.005464554,0,
00:03.9,-0.000337601,-0.003084183,0.005464554,0,
00:03.9,-0.000297546,-0.00304985,0.005498886,0,
00:03.9,-0.000257492,-0.003015518,0.005487442,0,
00:03.9,-0.000268936,-0.003026962,0.005493164,0,
00:03.9,-0.00030899,-0.003038406,0.005475998,0,
00:03.9,-0.000354767,-0.003038406,0.005464554,0,
00:03.9,-0.000286102,-0.003067017,0.005487442,0,
00:03.9,-0.000246048,-0.003044128,0.005493164,0,
00:03.9,-0.000263214,-0.003009796,0.00548172,0,
00:03.9,-0.000360489,-0.002998352,0.005487442,0,
00:03.9,-0.000337601,-0.003032684,0.00548172,0,
00:03.9,-0.000171661,-0.00304985,0.005464554,0,
00:03.9,-0.000228882,-0.003061295,0.005475998,0,
00:03.9,-0.000257492,-0.003044128,0.005504608,0,
00:03.9,-0.000257492,-0.003026962,0.005475998,0,
00:03.9,-0.000246048,-0.002986908,0.005475998,0,
00:03.9,-0.000274658,-0.003078461,0.005487442,0,
00:03.9,-0.00030899,-0.003072739,0.00548172,0,
00:03.9,-0.000331879,-0.003026962,0.00548172,0,
00:03.9,-0.000303268,-0.003044128,0.00548172,0,
00:03.9,-0.000303268,-0.00304985,0.005493164,0,
00:04.0,-0.000274658,-0.003055573,0.005470276,0,
00:04.0,-0.000240326,-0.003026962,0.005464554,0,
00:04.0,-0.000297546,-0.003044128,0.005464554,0,
00:04.0,-0.000286102,-0.003032684,0.005487442,0,
00:04.0,-0.00028038,-0.003038406,0.005464554,0,
00:04.0,-0.000291824,-0.00302124,0.00548172,0,
00:04.0,-0.000211716,-0.003032684,0.00548172,0,
00:04.0,-0.000240326,-0.00302124,0.00548172,0,
00:04.0,-0.000291824,-0.00302124,0.005470276,0,
00:04.0,-0.000268936,-0.00304985,0.005441666,0,
00:04.0,-0.000257492,-0.003078461,0.005458832,0,
00:04.0,-0.000263214,-0.003032684,0.005487442,0,
00:00:04,-0.000234604,-0.002986908,0.005475998,0,
00:04.0,-0.000263214,-0.003038406,0.005464554,0,
00:04.0,-0.000303268,-0.003095627,0.005487442,0,
00:04.0,-0.000314713,-0.003038406,0.005487442,0,
00:04.0,-0.000297546,-0.00302124,0.005470276,0,
00:04.0,-0.000257492,-0.003061295,0.005470276,0,
00:04.0,-0.000297546,-0.003055573,0.00548172,0,
00:04.0,-0.000297546,-0.003072739,0.005493164,0,
00:04.0,-0.00025177,-0.003072739,0.005470276,0,
00:04.0,-0.000263214,-0.003084183,0.005475998,0,
00:04.0,-0.00028038,-0.003015518,0.005475998,0,
00:04.0,-0.000286102,-0.003038406,0.005458832,0,
00:04.0,-0.000286102,-0.003032684,0.005475998,0,
00:04.1,-0.00025177,-0.00302124,0.005458832,0,
00:04.1,-0.000234604,-0.003004074,0.005458832,0,
00:04.1,-0.000263214,-0.003038406,0.005464554,0,
00:04.1,-0.000268936,-0.003067017,0.005464554,0,
00:04.1,-0.000263214,-0.00304985,0.005464554,0,
00:04.1,-0.000263214,-0.003032684,0.005475998,0,
00:04.1,-0.00028038,-0.003032684,0.005464554,0,
00:04.1,-0.000268936,-0.00302124,0.005475998,0,
00:04.1,-0.000286102,-0.003055573,0.005475998,0,
00:04.1,-0.000303268,-0.003067017,0.005458832,0,
00:04.1,-0.000286102,-0.003032684,0.00545311,0,
00:04.1,-0.00025177,-0.003004074,0.00545311,0,
00:04.1,-0.000286102,-0.003026962,0.005475998,0,
00:04.1,-0.000297546,-0.003044128,0.005464554,0,
00:04.1,-0.000320435,-0.003084183,0.005447388,0,
00:04.1,-0.000297546,-0.003061295,0.005487442,0,
00:04.1,-0.000228882,-0.003078461,0.00548172,0,
00:04.1,-0.000240326,-0.003067017,0.005470276,0,
00:04.1,-0.000240326,-0.003038406,0.005464554,0,
00:04.1,-0.000240326,-0.00304985,0.005470276,0,
00:04.1,-0.000246048,-0.003044128,0.00545311,0,
00:04.1,-0.00025177,-0.003004074,0.005458832,0,
00:04.1,-0.00028038,-0.003084183,0.005470276,0,
00:04.1,-0.000268936,-0.003067017,0.005458832,0,
00:04.1,-0.000268936,-0.003044128,0.005447388,0,
00:04.2,-0.000263214,-0.003044128,0.005470276,0,
00:04.2,-0.00028038,-0.003072739,0.005470276,0,
00:04.2,-0.000274658,-0.003061295,0.00548172,0,
00:04.2,-0.000274658,-0.00304985,0.005475998,0,
00:04.2,-0.000291824,-0.003032684,0.005464554,0,
00:04.2,-0.000291824,-0.003004074,0.005447388,0,
00:04.2,-0.000234604,-0.002975464,0.005458832,0,
00:04.2,-0.000240326,-0.00302124,0.005458832,0,
00:04.2,-0.00030899,-0.003101349,0.005464554,0,
00:04.2,-0.000331879,-0.003078461,0.005498886,0,
00:04.2,-0.000263214,-0.00304985,0.005470276,0,
00:04.2,-0.000234604,-0.003055573,0.005464554,0,
00:04.2,-0.00028038,-0.003061295,0.00548172,0,
00:04.2,-0.000274658,-0.003067017,0.005470276,0,
00:04.2,-0.000228882,-0.003044128,0.005447388,0,
00:04.2,-0.00025177,-0.003004074,0.00545311,0,
00:04.2,-0.000274658,-0.002981186,0.005470276,0,
00:04.2,-0.00028038,-0.003061295,0.005464554,0,
00:04.2,-0.000263214,-0.003095627,0.005470276,0,
00:04.2,-0.000263214,-0.003089905,0.005470276,0,
00:04.2,-0.000274658,-0.003072739,0.00548172,0,
00:04.2,-0.000274658,-0.00304985,0.005475998,0,
00:04.2,-0.000274658,-0.003061295,0.005441666,0,
00:04.2,-0.000263214,-0.003032684,0.005430222,0,
00:04.2,-0.000291824,-0.003015518,0.00545311,0,
00:04.3,-0.000314713,-0.003015518,0.005487442,0,
00:04.3,-0.000246048,-0.003061295,0.00548172,0,
00:04.3,-0.000246048,-0.003067017,0.005464554,0,
00:04.3,-0.00028038,-0.003072739,0.005464554,0,
00:04.3,-0.000291824,-0.003089905,0.005475998,0,
00:04.3,-0.000286102,-0.003072739,0.005464554,0,
00:04.3,-0.000274658,-0.003015518,0.00545311,0,
00:04.3,-0.000257492,-0.003015518,0.005464554,0,
00:04.3,-0.000274658,-0.003067017,0.005458832,0,
00:04.3,-0.000303268,-0.003061295,0.005447388,0,
00:04.3,-0.000263214,-0.003044128,0.005441666,0,
00:04.3,-0.000263214,-0.003044128,0.005470276,0,
00:04.3,-0.000274658,-0.003078461,0.005464554,0,
00:04.3,-0.000268936,-0.003061295,0.00548172,0,
00:04.3,-0.000263214,-0.003038406,0.005458832,0,
00:04.3,-0.000274658,-0.003072739,0.005447388,0,
00:04.3,-0.00028038,-0.00302124,0.00545311,0,
00:04.3,-0.000331879,-0.003044128,0.005458832,0,
00:04.3,-0.000366211,-0.003078461,0.005441666,0,
00:04.3,-0.000257492,-0.003032684,0.005435944,0,
00:04.3,-0.000228882,-0.003038406,0.00545311,0,
00:04.3,-0.000268936,-0.003084183,0.005487442,0,
00:04.3,-0.000274658,-0.003072739,0.005470276,0,
00:04.3,-0.000274658,-0.003072739,0.00545311,0,
00:04.3,-0.00028038,-0.003078461,0.00545311,0,
00:04.4,-0.000274658,-0.003061295,0.00545311,0,
00:04.4,-0.000274658,-0.003044128,0.005447388,0,
00:04.4,-0.00030899,-0.003055573,0.005464554,0,
00:04.4,-0.000286102,-0.003072739,0.005464554,0,
00:04.4,-0.000263214,-0.003055573,0.005447388,0,
00:04.4,-0.000268936,-0.003044128,0.005447388,0,
00:04.4,-0.000286102,-0.003095627,0.005458832,0,
00:04.4,-0.000303268,-0.003089905,0.005464554,0,
00:04.4,-0.000291824,-0.003061295,0.005458832,0,
00:04.4,-0.000286102,-0.003055573,0.005447388,0,
00:04.4,-0.000314713,-0.003072739,0.005447388,0,
00:04.4,-0.000349045,-0.003072739,0.005464554,0,
00:04.4,-0.000286102,-0.003078461,0.005447388,0,
00:04.4,-0.000257492,-0.003084183,0.00545311,0,
00:04.4,-0.000286102,-0.00304985,0.005435944,0,
00:04.4,-0.000274658,-0.003055573,0.005441666,0,
00:04.4,-0.00028038,-0.003078461,0.005447388,0,
00:04.4,-0.000326157,-0.003072739,0.005458832,0,
00:04.4,-0.000297546,-0.003078461,0.005447388,0,
00:04.4,-0.000263214,-0.003095627,0.005458832,0,
00:04.4,-0.00028038,-0.003089905,0.00545311,0,
00:04.4,-0.000274658,-0.00304985,0.00545311,0,
00:04.4,-0.000268936,-0.003026962,0.005441666,0,
00:04.4,-0.000303268,-0.003067017,0.005441666,0,
00:04.4,-0.00030899,-0.003107071,0.005441666,0,
00:04.5,-0.00030899,-0.003089905,0.005435944,0,
00:04.5,-0.000297546,-0.003038406,0.005458832,0,
00:04.5,-0.000286102,-0.003101349,0.005447388,0,
00:04.5,-0.000291824,-0.003107071,0.005447388,0,
00:04.5,-0.000291824,-0.003101349,0.005458832,0,
00:04.5,-0.000291824,-0.003089905,0.00545311,0,
00:04.5,-0.000291824,-0.003061295,0.005441666,0,
00:04.5,-0.000291824,-0.003072739,0.00545311,0,
00:04.5,-0.000303268,-0.003044128,0.005447388,0,
00:04.5,-0.000303268,-0.003032684,0.005435944,0,
00:04.5,-0.000314713,-0.003095627,0.005435944,0,
00:04.5,-0.000314713,-0.003095627,0.005464554,0,
00:04.5,-0.000314713,-0.003089905,0.00545311,0,
00:04.5,-0.00028038,-0.003084183,0.005447388,0,
00:04.5,-0.000291824,-0.003089905,0.00545311,0,
00:04.5,-0.000291824,-0.003095627,0.005447388,0,
00:04.5,-0.000286102,-0.003084183,0.005441666,0,
00:04.5,-0.000286102,-0.003055573,0.005430222,0,
00:04.5,-0.000297546,-0.003078461,0.00545311,0,
00:04.5,-0.00030899,-0.003101349,0.005458832,0,
00:04.5,-0.000320435,-0.003089905,0.00545311,0,
00:04.5,-0.000354767,-0.003095627,0.005447388,0,
00:04.5,-0.000297546,-0.003101349,0.005435944,0,
00:04.5,-0.000263214,-0.003084183,0.005447388,0,
00:04.5,-0.000274658,-0.003089905,0.005430222,0,
00:04.6,-0.000274658,-0.003078461,0.005418777,0,
00:04.6,-0.000303268,-0.003067017,0.005441666,0,
00:04.6,-0.00030899,-0.003084183,0.005441666,0,
00:04.6,-0.000291824,-0.003061295,0.005441666,0,
00:04.6,-0.000320435,-0.003101349,0.005418777,0,
00:04.6,-0.000320435,-0.003124237,0.005430222,0,
00:04.6,-0.000297546,-0.003095627,0.00545311,0,
00:04.6,-0.00030899,-0.003067017,0.005458832,0,
00:04.6,-0.000337601,-0.003072739,0.005458832,0,
00:04.6,-0.00030899,-0.003101349,0.005441666,0,
00:04.6,-0.000274658,-0.003084183,0.005441666,0,
00:04.6,-0.00030899,-0.003089905,0.005430222,0,
00:04.6,-0.000331879,-0.003089905,0.005447388,0,
00:04.6,-0.000337601,-0.003089905,0.00545311,0,
00:04.6,-0.000268936,-0.00302124,0.005441666,0,
00:04.6,-0.000263214,-0.003055573,0.005418777,0,
00:04.6,-0.000354767,-0.003170013,0.00545311,0,
00:04.6,-0.000366211,-0.003170013,0.005458832,0,
00:04.6,-0.000286102,-0.003118515,0.005447388,0,
00:04.6,-0.000257492,-0.003095627,0.005430222,0,
00:04.6,-0.000286102,-0.003095627,0.005418777,0,
00:04.6,-0.000303268,-0.003118515,0.005430222,0,
00:04.6,-0.000303268,-0.003084183,0.00545311,0,
00:04.6,-0.000314713,-0.003095627,0.005447388,0,
00:04.6,-0.000303268,-0.003095627,0.005441666,0,
00:04.7,-0.000297546,-0.003089905,0.0054245,0,
00:04.7,-0.000326157,-0.003089905,0.005430222,0,
00:04.7,-0.000343323,-0.003101349,0.005447388,0,
00:04.7,-0.000291824,-0.003118515,0.005430222,0,
00:04.7,-0.000297546,-0.003107071,0.005430222,0,
00:04.7,-0.000326157,-0.003107071,0.005435944,0,
00:04.7,-0.000354767,-0.003101349,0.0054245,0,
00:04.7,-0.000326157,-0.003107071,0.005447388,0,
00:04.7,-0.000297546,-0.003129959,0.005441666,0,
00:04.7,-0.000286102,-0.003089905,0.005435944,0,
00:04.7,-0.000274658,-0.003061295,0.0054245,0,
00:04.7,-0.000320435,-0.003112793,0.005401611,0,
00:04.7,-0.000337601,-0.003112793,0.005430222,0,
00:04.7,-0.00030899,-0.003129959,0.005458832,0,
00:04.7,-0.000291824,-0.003107071,0.005430222,0,
00:04.7,-0.000303268,-0.003078461,0.005418777,0,
00:04.7,-0.000314713,-0.003129959,0.005430222,0,
00:04.7,-0.000343323,-0.003175735,0.005401611,0,
00:04.7,-0.000326157,-0.003124237,0.005435944,0,
00:04.7,-0.000320435,-0.003089905,0.005441666,0,
00:04.7,-0.000320435,-0.003084183,0.005430222,0,
00:04.7,-0.000303268,-0.003095627,0.00545311,0,
00:04.7,-0.000314713,-0.003095627,0.00545311,0,
00:04.7,-0.000337601,-0.003135681,0.005430222,0,
00:04.7,-0.000320435,-0.003135681,0.005413055,0,
00:04.8,-0.000303268,-0.003101349,0.005430222,0,
00:04.8,-0.000303268,-0.003118515,0.005441666,0,
00:04.8,-0.000326157,-0.003112793,0.005441666,0,
00:04.8,-0.000343323,-0.003095627,0.005418777,0,
00:04.8,-0.000366211,-0.003129959,0.005435944,0,
00:04.8,-0.000371933,-0.003152847,0.005430222,0,
00:04.8,-0.000303268,-0.003124237,0.005430222,0,
00:04.8,-0.000286102,-0.003078461,0.005430222,0,
00:04.8,-0.000326157,-0.003095627,0.005441666,0,
00:04.8,-0.000349045,-0.003147125,0.005430222,0,
00:04.8,-0.000331879,-0.003135681,0.005407333,0,
00:04.8,-0.000331879,-0.003129959,0.005407333,0,
00:04.8,-0.000314713,-0.003112793,0.0054245,0,
00:04.8,-0.000303268,-0.003107071,0.005430222,0,
00:04.8,-0.000303268,-0.003101349,0.005441666,0,
00:04.8,-0.000314713,-0.003124237,0.005435944,0,
00:04.8,-0.000326157,-0.003129959,0.005441666,0,
00:04.8,-0.000314713,-0.003095627,0.005441666,0,
00:04.8,-0.000337601,-0.003112793,0.0054245,0,
00:04.8,-0.000366211,-0.003164291,0.005435944,0,
00:04.8,-0.000389099,-0.003141403,0.005413055,0,
00:04.8,-0.000326157,-0.003118515,0.005413055,0,
00:04.8,-0.000297546,-0.003147125,0.005418777,0,
00:04.8,-0.000326157,-0.003141403,0.005435944,0,
00:04.8,-0.000326157,-0.003129959,0.005418777,0,
00:04.9,-0.000331879,-0.003129959,0.005407333,0,
00:04.9,-0.000349045,-0.003112793,0.005401611,0,
00:04.9,-0.000360489,-0.003112793,0.005413055,0,
00:04.9,-0.000343323,-0.003135681,0.005407333,0,
00:04.9,-0.00030899,-0.003135681,0.005430222,0,
00:04.9,-0.00030899,-0.003141403,0.0054245,0,
00:04.9,-0.000343323,-0.003135681,0.0054245,0,
00:04.9,-0.000331879,-0.003124237,0.005430222,0,
00:04.9,-0.000303268,-0.003101349,0.005413055,0,
00:04.9,-0.00030899,-0.003112793,0.005418777,0,
00:04.9,-0.00030899,-0.003101349,0.005435944,0,
00:04.9,-0.000337601,-0.003129959,0.005418777,0,
00:04.9,-0.000349045,-0.003164291,0.005435944,0,
00:04.9,-0.000343323,-0.003141403,0.005418777,0,
00:04.9,-0.000354767,-0.003124237,0.005413055,0,
00:04.9,-0.000349045,-0.003141403,0.005418777,0,
00:04.9,-0.000314713,-0.003129959,0.0054245,0,
00:04.9,-0.000314713,-0.003124237,0.005413055,0,
00:04.9,-0.000337601,-0.003141403,0.005418777,0,
00:04.9,-0.000349045,-0.003124237,0.005418777,0,
00:04.9,-0.000349045,-0.003147125,0.005401611,0,
00:04.9,-0.000331879,-0.003135681,0.0054245,0,
00:04.9,-0.000326157,-0.003124237,0.005441666,0,
00:04.9,-0.000337601,-0.003158569,0.005430222,0,
00:04.9,-0.000343323,-0.003181458,0.005413055,0,
00:05.0,-0.000349045,-0.003158569,0.005441666,0,
00:05.0,-0.000349045,-0.003152847,0.005447388,0,
00:05.0,-0.000360489,-0.003152847,0.005441666,0,
00:05.0,-0.000343323,-0.003152847,0.005430222,0,
00:05.0,-0.000320435,-0.003135681,0.0054245,0,
00:05.0,-0.000326157,-0.003089905,0.005407333,0,
00:05.0,-0.000343323,-0.003095627,0.005401611,0,
00:05.0,-0.000337601,-0.003135681,0.005418777,0,
00:05.0,-0.000343323,-0.003152847,0.0054245,0,
00:05.0,-0.000343323,-0.003152847,0.005435944,0,
00:05.0,-0.000331879,-0.003089905,0.005430222,0,
00:05.0,-0.000377655,-0.003141403,0.005418777,0,
00:00:05,-0.000394821,-0.00318718,0.005447388,0,
00:05.0,-0.000337601,-0.003152847,0.005441666,0,
00:05.0,-0.000366211,-0.003170013,0.005407333,0,
00:05.0,-0.000320435,-0.003141403,0.0054245,0,
00:05.0,-0.000320435,-0.003124237,0.005430222,0,
00:05.0,-0.000389099,-0.003175735,0.005435944,0,
00:05.0,-0.000371933,-0.003147125,0.005430222,0,
00:05.0,-0.000320435,-0.003158569,0.005430222,0,
00:05.0,-0.000331879,-0.003152847,0.005418777,0,
00:05.0,-0.000331879,-0.003124237,0.005447388,0,
00:05.0,-0.000343323,-0.003112793,0.005435944,0,
00:05.0,-0.000314713,-0.003072739,0.005413055,0,
00:05.0,-0.000320435,-0.003112793,0.005413055,0,
00:05.1,-0.000360489,-0.00318718,0.005441666,0,
00:05.1,-0.000377655,-0.00318718,0.00545311,0,
00:05.1,-0.000366211,-0.003118515,0.005435944,0,
00:05.1,-0.000377655,-0.003141403,0.005413055,0,
00:05.1,-0.000389099,-0.003158569,0.0054245,0,
00:05.1,-0.000314713,-0.003112793,0.005441666,0,
00:05.1,-0.000314713,-0.003170013,0.005458832,0,
00:05.1,-0.000320435,-0.003170013,0.005430222,0,
00:05.1,-0.000337601,-0.003141403,0.005407333,0,
00:05.1,-0.000326157,-0.003147125,0.005430222,0,
00:05.1,-0.000354767,-0.003118515,0.005413055,0,
00:05.1,-0.000377655,-0.003124237,0.005418777,0,
00:05.1,-0.000331879,-0.003158569,0.005413055,0,
00:05.1,-0.000320435,-0.003118515,0.005441666,0,
00:05.1,-0.000354767,-0.003170013,0.005435944,0,
00:05.1,-0.000349045,-0.003181458,0.005447388,0,
00:05.1,-0.000343323,-0.003158569,0.005435944,0,
00:05.1,-0.000331879,-0.003124237,0.005430222,0,
00:05.1,-0.000349045,-0.003147125,0.005413055,0,
00:05.1,-0.000343323,-0.003129959,0.0054245,0,
00:05.1,-0.000354767,-0.003124237,0.005418777,0,
00:05.1,-0.000366211,-0.003147125,0.0054245,0,
00:05.1,-0.000366211,-0.003129959,0.005441666,0,
00:05.1,-0.000366211,-0.003147125,0.005435944,0,
00:05.1,-0.000337601,-0.003124237,0.005441666,0,
00:05.2,-0.000314713,-0.003078461,0.005435944,0,
00:05.2,-0.000360489,-0.003175735,0.005418777,0,
00:05.2,-0.000371933,-0.003198624,0.005430222,0,
00:05.2,-0.000343323,-0.003147125,0.0054245,0,
00:05.2,-0.000337601,-0.003129959,0.005407333,0,
00:05.2,-0.000366211,-0.003141403,0.005418777,0,
00:05.2,-0.000394821,-0.003118515,0.005430222,0,
00:05.2,-0.000354767,-0.003135681,0.005418777,0,
00:05.2,-0.000326157,-0.003152847,0.005430222,0,
00:05.2,-0.000337601,-0.003152847,0.0054245,0,
00:05.2,-0.000343323,-0.003135681,0.005435944,0,
00:05.2,-0.000343323,-0.003147125,0.005435944,0,
00:05.2,-0.000349045,-0.003129959,0.005401611,0,
00:05.2,-0.000371933,-0.003181458,0.005407333,0,
00:05.2,-0.000400543,-0.003175735,0.0054245,0,
00:05.2,-0.000371933,-0.003175735,0.005435944,0,
00:05.2,-0.00030899,-0.003152847,0.005435944,0,
00:05.2,-0.000320435,-0.003152847,0.00545311,0,
00:05.2,-0.000337601,-0.003141403,0.005435944,0,
00:05.2,-0.000343323,-0.003135681,0.005407333,0,
00:05.2,-0.000360489,-0.003152847,0.0054245,0,
00:05.2,-0.000360489,-0.003170013,0.0054245,0,
00:05.2,-0.000326157,-0.003101349,0.005430222,0,
00:05.2,-0.000326157,-0.003095627,0.005401611,0,
00:05.2,-0.000366211,-0.003192902,0.0054245,0,
00:05.3,-0.000366211,-0.003192902,0.005435944,0,
00:05.3,-0.000349045,-0.003175735,0.0054245,0,
00:05.3,-0.000354767,-0.003135681,0.005413055,0,
00:05.3,-0.000371933,-0.003135681,0.005413055,0,
00:05.3,-0.000337601,-0.003129959,0.0054245,0,
00:05.3,-0.000326157,-0.003101349,0.005413055,0,
00:05.3,-0.000331879,-0.003129959,0.0054245,0,
00:05.3,-0.000343323,-0.003181458,0.005430222,0,
00:05.3,-0.000360489,-0.003175735,0.005418777,0,
00:05.3,-0.000377655,-0.003158569,0.005418777,0,
00:05.3,-0.000331879,-0.003112793,0.005418777,0,
00:05.3,-0.000320435,-0.003101349,0.005395889,0,
00:05.3,-0.000371933,-0.003181458,0.005407333,0,
00:05.3,-0.000366211,-0.00321579,0.005441666,0,
00:05.3,-0.000343323,-0.003175735,0.005435944,0,
00:05.3,-0.000343323,-0.003152847,0.005430222,0,
00:05.3,-0.000354767,-0.003158569,0.005435944,0,
00:05.3,-0.000343323,-0.003124237,0.005435944,0,
00:05.3,-0.000343323,-0.003135681,0.005407333,0,
00:05.3,-0.000337601,-0.003129959,0.005407333,0,
00:05.3,-0.000331879,-0.003112793,0.0054245,0,
00:05.3,-0.000377655,-0.003181458,0.005441666,0,
00:05.3,-0.000389099,-0.003181458,0.005407333,0,
00:05.3,-0.000366211,-0.003164291,0.005430222,0,
00:05.3,-0.000343323,-0.003152847,0.005430222,0,
00:05.4,-0.000337601,-0.003135681,0.005401611,0,
00:05.4,-0.000326157,-0.003101349,0.005401611,0,
00:05.4,-0.000354767,-0.003107071,0.005418777,0,
00:05.4,-0.000377655,-0.003170013,0.0054245,0,
00:05.4,-0.000360489,-0.003175735,0.005418777,0,
00:05.4,-0.000349045,-0.003147125,0.005418777,0,
00:05.4,-0.000337601,-0.003124237,0.005418777,0,
00:05.4,-0.000360489,-0.003158569,0.0054245,0,
00:05.4,-0.000400543,-0.003152847,0.005430222,0,
00:05.4,-0.000366211,-0.003158569,0.005413055,0,
00:05.4,-0.000314713,-0.003118515,0.005401611,0,
00:05.4,-0.000331879,-0.003135681,0.005401611,0,
00:05.4,-0.000354767,-0.003152847,0.005407333,0,
00:05.4,-0.000377655,-0.003164291,0.005413055,0,
00:05.4,-0.000349045,-0.003175735,0.0054245,0,
00:05.4,-0.000326157,-0.003135681,0.005430222,0,
00:05.4,-0.000331879,-0.003118515,0.005407333,0,
00:05.4,-0.000331879,-0.003107071,0.005441666,0,
00:05.4,-0.000349045,-0.003141403,0.005418777,0,
00:05.4,-0.000354767,-0.003141403,0.005395889,0,
00:05.4,-0.000366211,-0.003152847,0.005407333,0,
00:05.4,-0.000343323,-0.003141403,0.005430222,0,
00:05.4,-0.000354767,-0.003147125,0.005435944,0,
00:05.4,-0.000354767,-0.003158569,0.005413055,0,
00:05.4,-0.000360489,-0.003147125,0.005418777,0,
00:05.5,-0.000360489,-0.003147125,0.0054245,0,
00:05.5,-0.000349045,-0.003147125,0.005418777,0,
00:05.5,-0.000343323,-0.003158569,0.005401611,0,
00:05.5,-0.000349045,-0.003124237,0.005407333,0,
00:05.5,-0.000343323,-0.003101349,0.005407333,0,
00:05.5,-0.00030899,-0.003095627,0.005401611,0,
00:05.5,-0.000349045,-0.003170013,0.005407333,0,
00:05.5,-0.000371933,-0.003192902,0.005407333,0,
00:05.5,-0.000360489,-0.00318718,0.005413055,0,
00:05.5,-0.000354767,-0.003147125,0.005413055,0,
00:05.5,-0.000349045,-0.003124237,0.005407333,0,
00:05.5,-0.000349045,-0.003124237,0.005418777,0,
00:05.5,-0.000320435,-0.003118515,0.0054245,0,
00:05.5,-0.000337601,-0.003124237,0.0054245,0,
00:05.5,-0.000377655,-0.003170013,0.005418777,0,
00:05.5,-0.000377655,-0.003164291,0.005413055,0,
00:05.5,-0.000337601,-0.003147125,0.005413055,0,
00:05.5,-0.000337601,-0.003141403,0.005407333,0,
00:05.5,-0.000354767,-0.003129959,0.005418777,0,
00:05.5,-0.000360489,-0.003107071,0.0054245,0,
00:05.5,-0.000326157,-0.003089905,0.005390167,0,
00:05.5,-0.00030899,-0.003101349,0.005384445,0,
00:05.5,-0.000349045,-0.003152847,0.005413055,0,
00:05.5,-0.000354767,-0.003170013,0.005418777,0,
00:05.5,-0.000337601,-0.003112793,0.005418777,0,
00:05.6,-0.000331879,-0.003101349,0.005407333,0,
00:05.6,-0.000423431,-0.00318718,0.005401611,0,
00:05.6,-0.000406265,-0.003198624,0.005430222,0,
00:05.6,-0.00030899,-0.003147125,0.005413055,0,
00:05.6,-0.000314713,-0.003124237,0.005390167,0,
00:05.6,-0.000320435,-0.003107071,0.005390167,0,
00:05.6,-0.000331879,-0.003135681,0.005395889,0,
00:05.6,-0.000343323,-0.003129959,0.005413055,0,
00:05.6,-0.000349045,-0.003118515,0.0054245,0,
00:05.6,-0.000326157,-0.003135681,0.005401611,0,
00:05.6,-0.000320435,-0.003112793,0.005390167,0,
00:05.6,-0.000326157,-0.003129959,0.0054245,0,
00:05.6,-0.000366211,-0.00318718,0.005413055,0,
00:05.6,-0.000371933,-0.003175735,0.005435944,0,
00:05.6,-0.000349045,-0.003147125,0.0054245,0,
00:05.6,-0.000331879,-0.003118515,0.005401611,0,
00:05.6,-0.000331879,-0.003112793,0.005413055,0,
00:05.6,-0.000371933,-0.003147125,0.0054245,0,
00:05.6,-0.000394821,-0.003158569,0.005418777,0,
00:05.6,-0.000343323,-0.003147125,0.005413055,0,
00:05.6,-0.000314713,-0.003112793,0.005407333,0,
00:05.6,-0.000291824,-0.003078461,0.005390167,0,
00:05.6,-0.00030899,-0.003084183,0.005407333,0,
00:05.6,-0.000360489,-0.00318718,0.005418777,0,
00:05.6,-0.000354767,-0.00318718,0.005413055,0,
00:05.7,-0.000343323,-0.003152847,0.005418777,0,
00:05.7,-0.000343323,-0.003164291,0.005418777,0,
00:05.7,-0.000337601,-0.003158569,0.0054245,0,
00:05.7,-0.000331879,-0.003141403,0.005401611,0,
00:05.7,-0.000326157,-0.003124237,0.005395889,0,
00:05.7,-0.000331879,-0.003135681,0.005407333,0,
00:05.7,-0.000337601,-0.003112793,0.0054245,0,
00:05.7,-0.000331879,-0.003118515,0.005407333,0,
00:05.7,-0.000360489,-0.003147125,0.005390167,0,
00:05.7,-0.000371933,-0.003170013,0.005418777,0,
00:05.7,-0.000354767,-0.003164291,0.0054245,0,
00:05.7,-0.000337601,-0.003129959,0.005418777,0,
00:05.7,-0.000331879,-0.003107071,0.005418777,0,
00:05.7,-0.000320435,-0.003118515,0.005401611,0,
00:05.7,-0.000331879,-0.003129959,0.005413055,0,
00:05.7,-0.000343323,-0.003147125,0.005418777,0,
00:05.7,-0.000371933,-0.003129959,0.005413055,0,
00:05.7,-0.000331879,-0.003129959,0.0054245,0,
00:05.7,-0.000337601,-0.00318718,0.005413055,0,
00:05.7,-0.000337601,-0.003152847,0.005418777,0,
00:05.7,-0.000337601,-0.003141403,0.005413055,0,
00:05.7,-0.000349045,-0.003158569,0.005401611,0,
00:05.7,-0.000337601,-0.003152847,0.0054245,0,
00:05.7,-0.000343323,-0.003152847,0.0054245,0,
00:05.7,-0.000331879,-0.003118515,0.005413055,0,
00:05.8,-0.000331879,-0.003135681,0.005418777,0,
00:05.8,-0.000349045,-0.003175735,0.005413055,0,
00:05.8,-0.000354767,-0.003175735,0.005407333,0,
00:05.8,-0.000326157,-0.003118515,0.005407333,0,
00:05.8,-0.000326157,-0.003089905,0.005407333,0,
00:05.8,-0.000383377,-0.003164291,0.005418777,0,
00:05.8,-0.000366211,-0.003170013,0.005430222,0,
00:05.8,-0.000331879,-0.00318718,0.005430222,0,
00:05.8,-0.000349045,-0.00321579,0.005407333,0,
00:05.8,-0.000349045,-0.003181458,0.005413055,0,
00:05.8,-0.000331879,-0.003147125,0.005413055,0,
00:05.8,-0.000326157,-0.003124237,0.005407333,0,
00:05.8,-0.000326157,-0.003129959,0.005407333,0,
00:05.8,-0.000331879,-0.003164291,0.005413055,0,
00:05.8,-0.000331879,-0.003152847,0.005430222,0,
00:05.8,-0.000354767,-0.003141403,0.005418777,0,
00:05.8,-0.000366211,-0.003152847,0.005401611,0,
00:05.8,-0.000320435,-0.003141403,0.005413055,0,
00:05.8,-0.000314713,-0.003135681,0.005418777,0,
00:05.8,-0.000314713,-0.003118515,0.005401611,0,
00:05.8,-0.000331879,-0.003112793,0.005395889,0,
00:05.8,-0.000343323,-0.003152847,0.005378723,0,
00:05.8,-0.000354767,-0.003175735,0.005395889,0,
00:05.8,-0.000343323,-0.003141403,0.005435944,0,
00:05.8,-0.000349045,-0.003147125,0.0054245,0,
00:05.9,-0.000349045,-0.003164291,0.005430222,0,
00:05.9,-0.000337601,-0.003147125,0.005418777,0,
00:05.9,-0.000337601,-0.003158569,0.005407333,0,
00:05.9,-0.000349045,-0.003152847,0.005401611,0,
00:05.9,-0.000349045,-0.003147125,0.005418777,0,
00:05.9,-0.000343323,-0.003152847,0.005413055,0,
00:05.9,-0.000320435,-0.003147125,0.005401611,0,
00:05.9,-0.000331879,-0.003152847,0.005395889,0,
00:05.9,-0.000349045,-0.003129959,0.005401611,0,
00:05.9,-0.000354767,-0.00318718,0.005401611,0,
00:05.9,-0.000343323,-0.003164291,0.005401611,0,
00:05.9,-0.000337601,-0.003129959,0.005390167,0,
00:05.9,-0.000320435,-0.003118515,0.005407333,0,
00:05.9,-0.000326157,-0.003118515,0.005413055,0,
00:05.9,-0.000349045,-0.003147125,0.005395889,0,
00:05.9,-0.000343323,-0.003147125,0.005395889,0,
00:05.9,-0.000320435,-0.003112793,0.005413055,0,
00:05.9,-0.000343323,-0.003152847,0.005401611,0,
00:05.9,-0.000354767,-0.003170013,0.005390167,0,
00:05.9,-0.000337601,-0.003158569,0.005390167,0,
00:05.9,-0.000337601,-0.003129959,0.0054245,0,
00:05.9,-0.000349045,-0.003158569,0.005418777,0,
00:05.9,-0.000343323,-0.003124237,0.0054245,0,
00:05.9,-0.000343323,-0.003124237,0.005418777,0,
00:05.9,-0.000320435,-0.003147125,0.005401611,0,
00:06.0,-0.000326157,-0.003170013,0.005413055,0,
00:06.0,-0.000343323,-0.003175735,0.005407333,0,
00:06.0,-0.000337601,-0.003147125,0.005401611,0,
00:06.0,-0.000331879,-0.003118515,0.005407333,0,
00:06.0,-0.000343323,-0.003147125,0.005413055,0,
00:06.0,-0.000326157,-0.003147125,0.005413055,0,
00:06.0,-0.000314713,-0.003135681,0.005407333,0,
00:06.0,-0.000326157,-0.003147125,0.005395889,0,
00:06.0,-0.000331879,-0.003141403,0.005390167,0,
00:06.0,-0.000343323,-0.003170013,0.0054245,0,
00:06.0,-0.000343323,-0.003170013,0.005435944,0,
00:06.0,-0.000343323,-0.003152847,0.005418777,0,
00:00:06,-0.000343323,-0.003141403,0.005413055,0,
00:06.0,-0.000337601,-0.003135681,0.005413055,0,
00:06.0,-0.000326157,-0.003107071,0.005401611,0,
00:06.0,-0.000320435,-0.003107071,0.005395889,0,
00:06.0,-0.000314713,-0.003118515,0.005401611,0,
00:06.0,-0.000349045,-0.003170013,0.005407333,0,
00:06.0,-0.000349045,-0.003181458,0.005390167,0,
00:06.0,-0.000331879,-0.003135681,0.005401611,0,
00:06.0,-0.000337601,-0.003164291,0.005401611,0,
00:06.0,-0.000349045,-0.003181458,0.005413055,0,
00:06.0,-0.000343323,-0.003175735,0.0054245,0,
00:06.0,-0.000337601,-0.003181458,0.005418777,0,
00:06.0,-0.000331879,-0.003147125,0.005413055,0,
00:06.1,-0.000331879,-0.003107071,0.005407333,0,
00:06.1,-0.000326157,-0.003089905,0.005413055,0,
00:06.1,-0.000337601,-0.003158569,0.005407333,0,
00:06.1,-0.000337601,-0.003164291,0.005401611,0,
00:06.1,-0.000331879,-0.003164291,0.005418777,0,
00:06.1,-0.000331879,-0.003152847,0.005413055,0,
00:06.1,-0.000331879,-0.003141403,0.005407333,0,
00:06.1,-0.000326157,-0.003129959,0.005418777,0,
00:06.1,-0.000326157,-0.003135681,0.005401611,0,
00:06.1,-0.000326157,-0.003107071,0.005384445,0,
00:06.1,-0.000337601,-0.003135681,0.005390167,0,
00:06.1,-0.000343323,-0.003198624,0.005407333,0,
00:06.1,-0.000343323,-0.00318718,0.005413055,0,
00:06.1,-0.000337601,-0.003141403,0.005407333,0,
00:06.1,-0.000331879,-0.003129959,0.005407333,0,
00:06.1,-0.000354767,-0.003175735,0.005384445,0,
00:06.1,-0.000383377,-0.003152847,0.005384445,0,
00:06.1,-0.000337601,-0.003124237,0.005395889,0,
00:06.1,-0.000297546,-0.003164291,0.005413055,0,
00:06.1,-0.000314713,-0.003152847,0.005430222,0,
00:06.1,-0.000331879,-0.003158569,0.005407333,0,
00:06.1,-0.000326157,-0.003141403,0.005395889,0,
00:06.1,-0.000314713,-0.003118515,0.005407333,0,
00:06.1,-0.000314713,-0.003124237,0.005401611,0,
00:06.1,-0.000326157,-0.003181458,0.005378723,0,
00:06.2,-0.000326157,-0.003158569,0.005384445,0,
00:06.2,-0.000326157,-0.003129959,0.005407333,0,
00:06.2,-0.000337601,-0.003147125,0.005407333,0,
00:06.2,-0.000326157,-0.003147125,0.005390167,0,
00:06.2,-0.000320435,-0.003118515,0.005395889,0,
00:06.2,-0.000331879,-0.003129959,0.005401611,0,
00:06.2,-0.000320435,-0.003118515,0.005384445,0,
00:06.2,-0.00030899,-0.003107071,0.005401611,0,
00:06.2,-0.000303268,-0.003118515,0.005413055,0,
00:06.2,-0.00030899,-0.003107071,0.005418777,0,
00:06.2,-0.000331879,-0.003129959,0.005407333,0,
00:06.2,-0.000343323,-0.003170013,0.005401611,0,
00:06.2,-0.000331879,-0.003147125,0.005390167,0,
00:06.2,-0.000326157,-0.003095627,0.005378723,0,
00:06.2,-0.000326157,-0.003141403,0.005395889,0,
00:06.2,-0.000337601,-0.003192902,0.005384445,0,
00:06.2,-0.000343323,-0.003152847,0.005378723,0,
00:06.2,-0.000326157,-0.003135681,0.005395889,0,
00:06.2,-0.000326157,-0.003152847,0.005407333,0,
00:06.2,-0.000326157,-0.003129959,0.005378723,0,
00:06.2,-0.000326157,-0.003124237,0.005384445,0,
00:06.2,-0.000337601,-0.003129959,0.005401611,0,
00:06.2,-0.000343323,-0.003152847,0.005395889,0,
00:06.2,-0.000349045,-0.003158569,0.005390167,0,
00:06.2,-0.000331879,-0.003129959,0.005395889,0,
00:06.3,-0.000320435,-0.003095627,0.005395889,0,
00:06.3,-0.000326157,-0.003089905,0.005384445,0,
00:06.3,-0.000337601,-0.003124237,0.005378723,0,
00:06.3,-0.000349045,-0.003170013,0.005367279,0,
00:06.3,-0.000337601,-0.003175735,0.005395889,0,
00:06.3,-0.000320435,-0.003135681,0.005395889,0,
00:06.3,-0.000326157,-0.003112793,0.005384445,0,
00:06.3,-0.000349045,-0.003158569,0.005384445,0,
00:06.3,-0.000326157,-0.003164291,0.005395889,0,
00:06.3,-0.000320435,-0.003158569,0.005384445,0,
00:06.3,-0.000326157,-0.003129959,0.005373001,0,
00:06.3,-0.000326157,-0.003129959,0.005367279,0,
00:06.3,-0.000331879,-0.003112793,0.005384445,0,
00:06.3,-0.000331879,-0.003107071,0.005373001,0,
00:06.3,-0.000331879,-0.003152847,0.005390167,0,
00:06.3,-0.000326157,-0.003141403,0.005401611,0,
00:06.3,-0.000343323,-0.003118515,0.005395889,0,
00:06.3,-0.000349045,-0.003135681,0.005395889,0,
00:06.3,-0.000320435,-0.003158569,0.005373001,0,
00:06.3,-0.000320435,-0.003158569,0.005367279,0,
00:06.3,-0.000337601,-0.003147125,0.005378723,0,
00:06.3,-0.000331879,-0.003152847,0.005384445,0,
00:06.3,-0.000326157,-0.003170013,0.005378723,0,
00:06.3,-0.00030899,-0.003135681,0.005367279,0,
00:06.3,-0.000303268,-0.003089905,0.005367279,0,
00:06.4,-0.000314713,-0.003118515,0.005373001,0,
00:06.4,-0.000343323,-0.003152847,0.005350113,0,
00:06.4,-0.000354767,-0.003164291,0.005390167,0,
00:06.4,-0.000343323,-0.003158569,0.005407333,0,
00:06.4,-0.000320435,-0.003118515,0.005378723,0,
00:06.4,-0.00030899,-0.003078461,0.005361557,0,
00:06.4,-0.000331879,-0.003147125,0.005355835,0,
00:06.4,-0.000326157,-0.003152847,0.005390167,0,
00:06.4,-0.000337601,-0.003210068,0.005407333,0,
00:06.4,-0.000349045,-0.00318718,0.005378723,0,
00:06.4,-0.000326157,-0.003129959,0.005373001,0,
00:06.4,-0.000320435,-0.003112793,0.005350113,0,
00:06.4,-0.000320435,-0.003124237,0.005361557,0,
00:06.4,-0.000320435,-0.003118515,0.005373001,0,
00:06.4,-0.000326157,-0.003129959,0.005361557,0,
00:06.4,-0.000331879,-0.003181458,0.005367279,0,
00:06.4,-0.000331879,-0.003141403,0.005355835,0,
00:06.4,-0.00030899,-0.003072739,0.005350113,0,
00:06.4,-0.000331879,-0.003135681,0.005361557,0,
00:06.4,-0.000354767,-0.00321579,0.005355835,0,
00:06.4,-0.000354767,-0.003175735,0.005367279,0,
00:06.4,-0.000331879,-0.003112793,0.005367279,0,
00:06.4,-0.00030899,-0.003078461,0.005344391,0,
00:06.4,-0.000320435,-0.003152847,0.005355835,0,
00:06.4,-0.000343323,-0.003164291,0.005344391,0,
00:06.5,-0.000337601,-0.00318718,0.005344391,0,
00:06.5,-0.000343323,-0.003164291,0.005355835,0,
00:06.5,-0.000343323,-0.003147125,0.005350113,0,
00:06.5,-0.000326157,-0.003135681,0.005350113,0,
00:06.5,-0.000320435,-0.003135681,0.005344391,0,
00:06.5,-0.000326157,-0.003118515,0.005355835,0,
00:06.5,-0.000326157,-0.003164291,0.005350113,0,
00:06.5,-0.000326157,-0.003158569,0.005373001,0,
00:06.5,-0.000331879,-0.003141403,0.005350113,0,
00:06.5,-0.000326157,-0.003084183,0.005310059,0,
00:06.5,-0.000320435,-0.003078461,0.005327225,0,
00:06.5,-0.000320435,-0.003141403,0.005355835,0,
00:06.5,-0.000343323,-0.003204346,0.005361557,0,
00:06.5,-0.000349045,-0.003170013,0.005355835,0,
00:06.5,-0.000337601,-0.003158569,0.005350113,0,
00:06.5,-0.000331879,-0.003141403,0.005338669,0,
00:06.5,-0.000320435,-0.003118515,0.005344391,0,
00:06.5,-0.000326157,-0.003118515,0.005350113,0,
00:06.5,-0.00030899,-0.003072739,0.005338669,0,
00:06.5,-0.000331879,-0.003147125,0.005321503,0,
00:06.5,-0.000360489,-0.003198624,0.005338669,0,
00:06.5,-0.000337601,-0.003152847,0.005350113,0,
00:06.5,-0.000326157,-0.003135681,0.005344391,0,
00:06.5,-0.000349045,-0.003164291,0.005327225,0,
00:06.5,-0.000343323,-0.003170013,0.005344391,0,
00:06.6,-0.000337601,-0.003158569,0.005355835,0,
00:06.6,-0.000326157,-0.003141403,0.005332947,0,
00:06.6,-0.000320435,-0.003141403,0.005344391,0,
00:06.6,-0.000320435,-0.003124237,0.005355835,0,
00:06.6,-0.000320435,-0.003118515,0.005344391,0,
00:06.6,-0.000326157,-0.003141403,0.005332947,0,
00:06.6,-0.000349045,-0.003170013,0.005338669,0,
00:06.6,-0.000326157,-0.003118515,0.005332947,0,
00:06.6,-0.000314713,-0.003107071,0.005338669,0,
00:06.6,-0.000326157,-0.003112793,0.005327225,0,
00:06.6,-0.000326157,-0.003147125,0.005327225,0,
00:06.6,-0.000349045,-0.003158569,0.005321503,0,
00:06.6,-0.000343323,-0.003170013,0.005350113,0,
00:06.6,-0.000343323,-0.003141403,0.005361557,0,
00:06.6,-0.000343323,-0.003147125,0.005350113,0,
00:06.6,-0.000326157,-0.003141403,0.005355835,0,
00:06.6,-0.000320435,-0.003129959,0.005338669,0,
00:06.6,-0.000314713,-0.003124237,0.005332947,0,
00:06.6,-0.000314713,-0.003129959,0.005344391,0,
00:06.6,-0.000326157,-0.003135681,0.005350113,0,
00:06.6,-0.000337601,-0.003164291,0.005344391,0,
00:06.6,-0.000337601,-0.003170013,0.005332947,0,
00:06.6,-0.000331879,-0.003152847,0.005332947,0,
00:06.6,-0.000337601,-0.003152847,0.005344391,0,
00:06.6,-0.000326157,-0.003158569,0.005338669,0,
00:06.7,-0.000303268,-0.003135681,0.005327225,0,
00:06.7,-0.000320435,-0.003101349,0.005327225,0,
00:06.7,-0.000343323,-0.003129959,0.005327225,0,
00:06.7,-0.000337601,-0.003158569,0.005332947,0,
00:06.7,-0.000326157,-0.003135681,0.005332947,0,
00:06.7,-0.000320435,-0.003124237,0.005321503,0,
00:06.7,-0.000320435,-0.003141403,0.005327225,0,
00:06.7,-0.000326157,-0.003152847,0.005338669,0,
00:06.7,-0.000331879,-0.003181458,0.005355835,0,
00:06.7,-0.000331879,-0.003141403,0.005338669,0,
00:06.7,-0.000337601,-0.003118515,0.005338669,0,
00:06.7,-0.000331879,-0.003147125,0.005321503,0,
00:06.7,-0.000337601,-0.003164291,0.005332947,0,
00:06.7,-0.000354767,-0.003175735,0.005338669,0,
00:06.7,-0.000343323,-0.003141403,0.005327225,0,
00:06.7,-0.000337601,-0.003112793,0.005327225,0,
00:06.7,-0.000320435,-0.003107071,0.005332947,0,
00:06.7,-0.000331879,-0.003147125,0.005327225,0,
00:06.7,-0.000343323,-0.003135681,0.005321503,0,
00:06.7,-0.000349045,-0.003147125,0.005327225,0,
00:06.7,-0.000343323,-0.003147125,0.005327225,0,
00:06.7,-0.000331879,-0.003147125,0.005344391,0,
00:06.7,-0.000314713,-0.003118515,0.005344391,0,
00:06.7,-0.000331879,-0.003107071,0.005332947,0,
00:06.7,-0.000349045,-0.003147125,0.005332947,0,
00:06.8,-0.000326157,-0.003112793,0.005327225,0,
00:06.8,-0.000320435,-0.003095627,0.005298615,0,
00:06.8,-0.000331879,-0.003107071,0.005315781,0,
00:06.8,-0.000349045,-0.00318718,0.005321503,0,
00:06.8,-0.000360489,-0.00321579,0.005338669,0,
00:06.8,-0.000349045,-0.003175735,0.005321503,0,
00:06.8,-0.000337601,-0.003141403,0.005327225,0,
00:06.8,-0.000314713,-0.003135681,0.005321503,0,
00:06.8,-0.000331879,-0.003164291,0.005327225,0,
00:06.8,-0.000343323,-0.003170013,0.005327225,0,
00:06.8,-0.000326157,-0.003101349,0.005338669,0,
00:06.8,-0.000337601,-0.003129959,0.005332947,0,
00:06.8,-0.000343323,-0.003164291,0.005321503,0,
00:06.8,-0.000349045,-0.003141403,0.005315781,0,
00:06.8,-0.000326157,-0.003107071,0.005310059,0,
00:06.8,-0.00030899,-0.003164291,0.005327225,0,
00:06.8,-0.000326157,-0.003164291,0.005321503,0,
00:06.8,-0.000343323,-0.003158569,0.005315781,0,
00:06.8,-0.000343323,-0.003164291,0.005321503,0,
00:06.8,-0.000331879,-0.003141403,0.005310059,0,
00:06.8,-0.000326157,-0.003118515,0.005304337,0,
00:06.8,-0.000331879,-0.003129959,0.005298615,0,
00:06.8,-0.000326157,-0.003152847,0.005321503,0,
00:06.8,-0.00030899,-0.003095627,0.005315781,0,
00:06.8,-0.000331879,-0.003118515,0.005292892,0,
00:06.9,-0.000331879,-0.003129959,0.005298615,0,
00:06.9,-0.000349045,-0.003192902,0.005321503,0,
00:06.9,-0.000337601,-0.003175735,0.005327225,0,
00:06.9,-0.000331879,-0.003124237,0.005310059,0,
00:06.9,-0.000331879,-0.003141403,0.005298615,0,
00:06.9,-0.000326157,-0.003158569,0.005304337,0,
00:06.9,-0.000337601,-0.003158569,0.005310059,0,
00:06.9,-0.000349045,-0.003141403,0.005332947,0,
00:06.9,-0.000349045,-0.003164291,0.005315781,0,
00:06.9,-0.000360489,-0.003181458,0.005315781,0,
00:06.9,-0.000366211,-0.003170013,0.005304337,0,
00:06.9,-0.000326157,-0.003141403,0.005304337,0,
00:06.9,-0.000326157,-0.003170013,0.005298615,0,
00:06.9,-0.000337601,-0.003129959,0.005298615,0,
00:06.9,-0.00030899,-0.003107071,0.005281448,0,
00:06.9,-0.000291824,-0.003124237,0.00528717,0,
00:06.9,-0.000326157,-0.00318718,0.005327225,0,
00:06.9,-0.000354767,-0.003192902,0.005332947,0,
00:06.9,-0.000377655,-0.003147125,0.005298615,0,
00:06.9,-0.000349045,-0.003124237,0.00528717,0,
00:06.9,-0.000303268,-0.003129959,0.005275726,0,
00:06.9,-0.000314713,-0.003135681,0.005292892,0,
00:06.9,-0.000320435,-0.003147125,0.005304337,0,
00:06.9,-0.000314713,-0.003129959,0.005292892,0,
00:06.9,-0.000326157,-0.003147125,0.005310059,0,
00:07.0,-0.000349045,-0.003175735,0.005310059,0,
00:07.0,-0.000377655,-0.003141403,0.005304337,0,
00:07.0,-0.000337601,-0.003164291,0.005304337,0,
00:07.0,-0.000286102,-0.003129959,0.005281448,0,
00:07.0,-0.000320435,-0.003147125,0.00528717,0,
00:07.0,-0.000320435,-0.003118515,0.005298615,0,
00:07.0,-0.000354767,-0.003124237,0.005327225,0,
00:07.0,-0.000383377,-0.003158569,0.005310059,0,
00:07.0,-0.000320435,-0.003135681,0.00528717,0,
00:07.0,-0.000291824,-0.003112793,0.005270004,0,
00:07.0,-0.000320435,-0.003141403,0.005281448,0,
00:07.0,-0.000320435,-0.003164291,0.005304337,0,
00:00:07,-0.000337601,-0.003192902,0.005298615,0,
00:07.0,-0.000331879,-0.003164291,0.005304337,0,
00:07.0,-0.000297546,-0.003112793,0.00528717,0,
00:07.0,-0.000314713,-0.003129959,0.005281448,0,
00:07.0,-0.000337601,-0.003175735,0.005304337,0,
00:07.0,-0.000326157,-0.003158569,0.005298615,0,
00:07.0,-0.000320435,-0.003141403,0.005315781,0,
00:07.0,-0.000320435,-0.003152847,0.005298615,0,
00:07.0,-0.000326157,-0.003175735,0.005281448,0,
00:07.0,-0.000331879,-0.003170013,0.005270004,0,
00:07.0,-0.000331879,-0.003141403,0.005298615,0,
00:07.0,-0.000331879,-0.003158569,0.00528717,0,
00:07.0,-0.000349045,-0.003147125,0.00528717,0,
00:07.1,-0.000331879,-0.003101349,0.005304337,0,
00:07.1,-0.000326157,-0.003181458,0.005310059,0,
00:07.1,-0.000320435,-0.003181458,0.005298615,0,
00:07.1,-0.000343323,-0.003135681,0.005292892,0,
00:07.1,-0.000337601,-0.003141403,0.005292892,0,
00:07.1,-0.000337601,-0.003164291,0.005292892,0,
00:07.1,-0.000303268,-0.003164291,0.005304337,0,
00:07.1,-0.000297546,-0.003141403,0.005292892,0,
00:07.1,-0.000303268,-0.003181458,0.00528717,0,
00:07.1,-0.000331879,-0.003192902,0.005270004,0,
00:07.1,-0.000320435,-0.003141403,0.005275726,0,
00:07.1,-0.000326157,-0.003135681,0.005298615,0,
00:07.1,-0.000320435,-0.003141403,0.00528717,0,
00:07.1,-0.000326157,-0.003170013,0.00528717,0,
00:07.1,-0.000320435,-0.00318718,0.005298615,0,
00:07.1,-0.000314713,-0.003175735,0.00528717,0,
00:07.1,-0.000320435,-0.003164291,0.005270004,0,
00:07.1,-0.000331879,-0.003170013,0.005315781,0,
00:07.1,-0.000303268,-0.003107071,0.005304337,0,
00:07.1,-0.000303268,-0.003101349,0.005298615,0,
00:07.1,-0.000331879,-0.003164291,0.00528717,0,
00:07.1,-0.000331879,-0.003175735,0.005292892,0,
00:07.1,-0.000360489,-0.003152847,0.005275726,0,
00:07.1,-0.000354767,-0.003152847,0.00528717,0,
00:07.1,-0.000303268,-0.003175735,0.00528717,0,
00:07.2,-0.000297546,-0.003152847,0.005264282,0,
00:07.2,-0.000320435,-0.003135681,0.005270004,0,
00:07.2,-0.000326157,-0.003175735,0.00528717,0,
00:07.2,-0.000337601,-0.003181458,0.005281448,0,
00:07.2,-0.000303268,-0.003158569,0.005304337,0,
00:07.2,-0.000274658,-0.003112793,0.005275726,0,
00:07.2,-0.000263214,-0.003055573,0.005264282,0,
00:07.2,-0.00030899,-0.003158569,0.005270004,0,
00:07.2,-0.000343323,-0.003250122,0.005275726,0,
00:07.2,-0.000337601,-0.003204346,0.005304337,0,
00:07.2,-0.000337601,-0.00318718,0.005292892,0,
00:07.2,-0.000314713,-0.003181458,0.00528717,0,
00:07.2,-0.000291824,-0.003141403,0.00528717,0,
00:07.2,-0.00030899,-0.003124237,0.005281448,0,
00:07.2,-0.00030899,-0.003152847,0.005275726,0,
00:07.2,-0.00030899,-0.003170013,0.00528717,0,
00:07.2,-0.000297546,-0.003181458,0.005298615,0,
00:07.2,-0.000303268,-0.003152847,0.00528717,0,
00:07.2,-0.000314713,-0.003152847,0.005264282,0,
00:07.2,-0.00030899,-0.003135681,0.005247116,0,
00:07.2,-0.000331879,-0.003101349,0.005252838,0,
00:07.2,-0.00030899,-0.003107071,0.005270004,0,
00:07.2,-0.000291824,-0.003141403,0.005270004,0,
00:07.2,-0.000320435,-0.00318718,0.005281448,0,
00:07.2,-0.000337601,-0.003175735,0.005304337,0,
00:07.3,-0.000349045,-0.003181458,0.00528717,0,
00:07.3,-0.000331879,-0.003181458,0.005292892,0,
00:07.3,-0.000291824,-0.003141403,0.005275726,0,
00:07.3,-0.000314713,-0.003181458,0.005264282,0,
00:07.3,-0.000297546,-0.003170013,0.005247116,0,
00:07.3,-0.000303268,-0.003141403,0.005252838,0,
00:07.3,-0.00030899,-0.003141403,0.005292892,0,
00:07.3,-0.000326157,-0.003198624,0.005310059,0,
00:07.3,-0.000326157,-0.00318718,0.005304337,0,
00:07.3,-0.000331879,-0.003181458,0.005281448,0,
00:07.3,-0.000331879,-0.003118515,0.005275726,0,
00:07.3,-0.000326157,-0.003124237,0.005281448,0,
00:07.3,-0.000297546,-0.003175735,0.005275726,0,
00:07.3,-0.000303268,-0.003170013,0.00528717,0,
00:07.3,-0.000314713,-0.003158569,0.005281448,0,
00:07.3,-0.000326157,-0.003147125,0.005275726,0,
00:07.3,-0.000314713,-0.003129959,0.005264282,0,
00:07.3,-0.000303268,-0.003141403,0.005252838,0,
00:07.3,-0.00030899,-0.003141403,0.005235672,0,
00:07.3,-0.000314713,-0.003147125,0.005270004,0,
00:07.3,-0.000326157,-0.003170013,0.005281448,0,
00:07.3,-0.000343323,-0.003204346,0.005281448,0,
00:07.3,-0.00030899,-0.003135681,0.00528717,0,
00:07.3,-0.000291824,-0.003095627,0.005281448,0,
00:07.3,-0.000320435,-0.003164291,0.00525856,0,
00:07.4,-0.000337601,-0.003175735,0.005275726,0,
00:07.4,-0.000337601,-0.003192902,0.005275726,0,
00:07.4,-0.000320435,-0.003164291,0.005264282,0,
00:07.4,-0.000337601,-0.003147125,0.005247116,0,
00:07.4,-0.000326157,-0.003152847,0.005224228,0,
00:07.4,-0.00030899,-0.003175735,0.005270004,0,
00:07.4,-0.000349045,-0.003227234,0.005321503,0,
00:07.4,-0.000331879,-0.00318718,0.005298615,0,
00:07.4,-0.000320435,-0.003152847,0.005281448,0,
00:07.4,-0.000337601,-0.003112793,0.005270004,0,
00:07.4,-0.000349045,-0.003135681,0.00525856,0,
00:07.4,-0.000286102,-0.003129959,0.00525856,0,
00:07.4,-0.000291824,-0.003141403,0.005252838,0,
00:07.4,-0.00030899,-0.003141403,0.005247116,0,
00:07.4,-0.000320435,-0.003152847,0.005252838,0,
00:07.4,-0.000337601,-0.003170013,0.005275726,0,
00:07.4,-0.000320435,-0.003175735,0.00528717,0,
00:07.4,-0.000303268,-0.003170013,0.005275726,0,
00:07.4,-0.00030899,-0.003164291,0.005270004,0,
00:07.4,-0.000314713,-0.003158569,0.005270004,0,
00:07.4,-0.000320435,-0.003135681,0.005252838,0,
00:07.4,-0.000326157,-0.003175735,0.005241394,0,
00:07.4,-0.000303268,-0.003158569,0.005270004,0,
00:07.4,-0.000291824,-0.003101349,0.005270004,0,
00:07.4,-0.000314713,-0.00318718,0.005275726,0,
00:07.5,-0.000331879,-0.003198624,0.005270004,0,
00:07.5,-0.000303268,-0.003147125,0.005270004,0,
00:07.5,-0.000303268,-0.003129959,0.00525856,0,
00:07.5,-0.000297546,-0.003124237,0.005241394,0,
00:07.5,-0.000303268,-0.003147125,0.005207062,0,
00:07.5,-0.000314713,-0.003124237,0.00525856,0,
00:07.5,-0.000326157,-0.003158569,0.005292892,0,
00:07.5,-0.000326157,-0.003181458,0.005292892,0,
00:07.5,-0.000314713,-0.003164291,0.005275726,0,
00:07.5,-0.00030899,-0.003147125,0.005241394,0,
00:07.5,-0.000303268,-0.003112793,0.00522995,0,
00:07.5,-0.000303268,-0.003078461,0.005270004,0,
00:07.5,-0.00030899,-0.003152847,0.00528717,0,
00:07.5,-0.000320435,-0.003181458,0.00525856,0,
00:07.5,-0.000331879,-0.003164291,0.005247116,0,
00:07.5,-0.000331879,-0.003147125,0.005264282,0,
00:07.5,-0.00030899,-0.003147125,0.005264282,0,
00:07.5,-0.000297546,-0.003095627,0.005252838,0,
00:07.5,-0.000320435,-0.003152847,0.005241394,0,
00:07.5,-0.000320435,-0.003181458,0.005241394,0,
00:07.5,-0.000314713,-0.003181458,0.005247116,0,
00:07.5,-0.000349045,-0.003181458,0.005252838,0,
00:07.5,-0.000377655,-0.003141403,0.005270004,0,
00:07.5,-0.00030899,-0.003061295,0.00528717,0,
00:07.5,-0.000274658,-0.003084183,0.00525856,0,
00:07.6,-0.000303268,-0.003164291,0.005252838,0,
00:07.6,-0.000326157,-0.003204346,0.005247116,0,
00:07.6,-0.000320435,-0.003175735,0.00525856,0,
00:07.6,-0.00030899,-0.003158569,0.005275726,0,
00:07.6,-0.000303268,-0.003101349,0.005264282,0,
00:07.6,-0.000297546,-0.003101349,0.005252838,0,
00:07.6,-0.000314713,-0.003141403,0.005235672,0,
00:07.6,-0.00030899,-0.003135681,0.00525856,0,
00:07.6,-0.000320435,-0.003147125,0.00525856,0,
00:07.6,-0.000331879,-0.003152847,0.005235672,0,
00:07.6,-0.000320435,-0.003152847,0.005241394,0,
00:07.6,-0.000303268,-0.003135681,0.005247116,0,
00:07.6,-0.000326157,-0.003118515,0.005252838,0,
00:07.6,-0.000320435,-0.003107071,0.005247116,0,
00:07.6,-0.000314713,-0.003107071,0.005247116,0,
00:07.6,-0.000320435,-0.003147125,0.005241394,0,
00:07.6,-0.000314713,-0.003141403,0.005264282,0,
00:07.6,-0.000343323,-0.003192902,0.00525856,0,
00:07.6,-0.000331879,-0.003170013,0.005241394,0,
00:07.6,-0.000314713,-0.003141403,0.005252838,0,
00:07.6,-0.000303268,-0.003101349,0.005247116,0,
00:07.6,-0.000291824,-0.00302124,0.005241394,0,
00:07.6,-0.000286102,-0.003067017,0.005241394,0,
00:07.6,-0.000337601,-0.00321579,0.005212784,0,
00:07.6,-0.000349045,-0.003227234,0.005235672,0,
00:07.7,-0.000337601,-0.003158569,0.005281448,0,
00:07.7,-0.000320435,-0.003129959,0.005281448,0,
00:07.7,-0.000320435,-0.003152847,0.005270004,0,
00:07.7,-0.000320435,-0.003152847,0.005252838,0,
00:07.7,-0.000303268,-0.003135681,0.005235672,0,
00:07.7,-0.00030899,-0.003129959,0.005241394,0,
00:07.7,-0.000314713,-0.003124237,0.005252838,0,
00:07.7,-0.000314713,-0.003129959,0.005252838,0,
00:07.7,-0.000297546,-0.003107071,0.005264282,0,
00:07.7,-0.000320435,-0.003141403,0.005241394,0,
00:07.7,-0.000366211,-0.003141403,0.005235672,0,
00:07.7,-0.000331879,-0.003118515,0.005247116,0,
00:07.7,-0.000240326,-0.003061295,0.00522995,0,
00:07.7,-0.000268936,-0.003101349,0.005212784,0,
00:07.7,-0.00030899,-0.00318718,0.005252838,0,
00:07.7,-0.000297546,-0.003147125,0.005270004,0,
00:07.7,-0.000303268,-0.003147125,0.005252838,0,
00:07.7,-0.00030899,-0.003129959,0.00525856,0,
00:07.7,-0.000297546,-0.003124237,0.005281448,0,
00:07.7,-0.000303268,-0.003135681,0.005270004,0,
00:07.7,-0.00030899,-0.003129959,0.005241394,0,
00:07.7,-0.000314713,-0.003175735,0.005252838,0,
00:07.7,-0.000303268,-0.003170013,0.005252838,0,
00:07.7,-0.000297546,-0.003124237,0.00525856,0,
00:07.7,-0.00030899,-0.003141403,0.005252838,0,
00:07.8,-0.00030899,-0.003152847,0.005235672,0,
00:07.8,-0.00030899,-0.003147125,0.005247116,0,
00:07.8,-0.000303268,-0.003129959,0.005252838,0,
00:07.8,-0.000297546,-0.003101349,0.005252838,0,
00:07.8,-0.000297546,-0.003101349,0.005241394,0,
00:07.8,-0.000297546,-0.003107071,0.005252838,0,
00:07.8,-0.000291824,-0.003118515,0.005247116,0,
00:07.8,-0.000297546,-0.003158569,0.005241394,0,
00:07.8,-0.000297546,-0.003164291,0.005270004,0,
00:07.8,-0.000297546,-0.003124237,0.00525856,0,
00:07.8,-0.000286102,-0.003095627,0.005264282,0,
00:07.8,-0.00028038,-0.003095627,0.005264282,0,
00:07.8,-0.000326157,-0.003124237,0.005252838,0,
00:07.8,-0.000303268,-0.003084183,0.005264282,0,
00:07.8,-0.00028038,-0.003147125,0.005270004,0,
00:07.8,-0.000291824,-0.003147125,0.005247116,0,
00:07.8,-0.000303268,-0.003112793,0.005241394,0,
00:07.8,-0.000303268,-0.003147125,0.005235672,0,
00:07.8,-0.000291824,-0.003158569,0.005275726,0,
00:07.8,-0.000297546,-0.003158569,0.005281448,0,
00:07.8,-0.000291824,-0.003147125,0.005264282,0,
00:07.8,-0.000297546,-0.003152847,0.00525856,0,
00:07.8,-0.000291824,-0.003129959,0.005275726,0,
00:07.8,-0.000314713,-0.003095627,0.005264282,0,
00:07.8,-0.00030899,-0.003118515,0.00525856,0,
00:07.9,-0.00028038,-0.003124237,0.005264282,0,
00:07.9,-0.000291824,-0.003118515,0.005264282,0,
00:07.9,-0.000297546,-0.003141403,0.005264282,0,
00:07.9,-0.000291824,-0.003141403,0.005241394,0,
00:07.9,-0.000297546,-0.003101349,0.005252838,0,
00:07.9,-0.000274658,-0.003072739,0.00525856,0,
00:07.9,-0.000274658,-0.003084183,0.00522995,0,
00:07.9,-0.000297546,-0.003141403,0.005270004,0,
00:07.9,-0.000337601,-0.003164291,0.00528717,0,
00:07.9,-0.00030899,-0.003135681,0.00525856,0,
00:07.9,-0.000257492,-0.003112793,0.005247116,0,
00:07.9,-0.00028038,-0.003112793,0.005252838,0,
00:07.9,-0.000291824,-0.003135681,0.00525856,0,
00:07.9,-0.000303268,-0.003129959,0.005275726,0,
00:07.9,-0.000291824,-0.003112793,0.005270004,0,
00:07.9,-0.000268936,-0.003107071,0.005270004,0,
00:07.9,-0.000274658,-0.003089905,0.00525856,0,
00:07.9,-0.00028038,-0.00304985,0.00522995,0,
00:07.9,-0.000303268,-0.003129959,0.005264282,0,
00:07.9,-0.00030899,-0.003192902,0.005298615,0,
00:07.9,-0.000274658,-0.003118515,0.00525856,0,
00:07.9,-0.000291824,-0.003101349,0.005252838,0,
00:07.9,-0.00030899,-0.003129959,0.005298615,0,
00:07.9,-0.00030899,-0.003164291,0.005281448,0,
00:07.9,-0.000297546,-0.003147125,0.005252838,0,
00:08.0,-0.000286102,-0.003129959,0.005247116,0,
00:08.0,-0.000286102,-0.003118515,0.005270004,0,
00:08.0,-0.000286102,-0.003112793,0.00525856,0,
00:08.0,-0.000268936,-0.003072739,0.005247116,0,
00:08.0,-0.000274658,-0.003072739,0.00525856,0,
00:08.0,-0.000291824,-0.003135681,0.005252838,0,
00:08.0,-0.000297546,-0.003135681,0.005275726,0,
00:08.0,-0.00028038,-0.003095627,0.005292892,0,
00:08.0,-0.000257492,-0.003067017,0.005252838,0,
00:08.0,-0.000263214,-0.003044128,0.005252838,0,
00:08.0,-0.000320435,-0.003135681,0.005252838,0,
00:08.0,-0.000320435,-0.003164291,0.005275726,0,
00:00:08,-0.000297546,-0.003118515,0.005270004,0,
00:08.0,-0.000286102,-0.003067017,0.00528717,0,
00:08.0,-0.000291824,-0.003135681,0.00528717,0,
00:08.0,-0.00030899,-0.003152847,0.005270004,0,
00:08.0,-0.000303268,-0.003118515,0.005264282,0,
00:08.0,-0.000291824,-0.003101349,0.005252838,0,
00:08.0,-0.000291824,-0.003124237,0.005275726,0,
00:08.0,-0.000291824,-0.003118515,0.005281448,0,
00:08.0,-0.000274658,-0.003067017,0.005270004,0,
00:08.0,-0.00030899,-0.003124237,0.005241394,0,
00:08.0,-0.000320435,-0.003181458,0.005281448,0,
00:08.0,-0.00030899,-0.003147125,0.00528717,0,
00:08.0,-0.000303268,-0.003129959,0.00525856,0,
00:08.1,-0.000291824,-0.003112793,0.005252838,0,
00:08.1,-0.000274658,-0.003055573,0.005252838,0,
00:08.1,-0.000286102,-0.003055573,0.005241394,0,
00:08.1,-0.000297546,-0.003089905,0.00525856,0,
00:08.1,-0.000291824,-0.003084183,0.00525856,0,
00:08.1,-0.000297546,-0.003129959,0.005275726,0,
00:08.1,-0.00030899,-0.003147125,0.005281448,0,
00:08.1,-0.000297546,-0.003129959,0.005292892,0,
00:08.1,-0.000291824,-0.003101349,0.005264282,0,
00:08.1,-0.000286102,-0.003107071,0.00525856,0,
00:08.1,-0.000286102,-0.003084183,0.00525856,0,
00:08.1,-0.000286102,-0.003061295,0.005212784,0,
00:08.1,-0.000291824,-0.003078461,0.005270004,0,
00:08.1,-0.000314713,-0.003124237,0.00528717,0,
00:08.1,-0.000320435,-0.003164291,0.005281448,0,
00:08.1,-0.00030899,-0.003135681,0.005264282,0,
00:08.1,-0.000286102,-0.003095627,0.005275726,0,
00:08.1,-0.000286102,-0.003107071,0.005247116,0,
00:08.1,-0.000303268,-0.003135681,0.005241394,0,
00:08.1,-0.000297546,-0.003118515,0.005247116,0,
00:08.1,-0.000303268,-0.003078461,0.005275726,0,
00:08.1,-0.00030899,-0.003107071,0.005270004,0,
00:08.1,-0.00030899,-0.003124237,0.005275726,0,
00:08.1,-0.000297546,-0.003101349,0.00525856,0,
00:08.1,-0.000274658,-0.003078461,0.005241394,0,
00:08.2,-0.00028038,-0.003078461,0.00522995,0,
00:08.2,-0.000303268,-0.003084183,0.005270004,0,
00:08.2,-0.000297546,-0.003118515,0.005275726,0,
00:08.2,-0.000303268,-0.003147125,0.005264282,0,
00:08.2,-0.000314713,-0.003152847,0.005264282,0,
00:08.2,-0.000314713,-0.003135681,0.005281448,0,
00:08.2,-0.000314713,-0.003124237,0.005270004,0,
00:08.2,-0.000297546,-0.003084183,0.005264282,0,
00:08.2,-0.000291824,-0.003095627,0.00525856,0,
00:08.2,-0.000303268,-0.003118515,0.005247116,0,
00:08.2,-0.000297546,-0.003101349,0.005264282,0,
00:08.2,-0.000303268,-0.003107071,0.00528717,0,
00:08.2,-0.000303268,-0.003107071,0.005275726,0,
00:08.2,-0.000297546,-0.003084183,0.00525856,0,
00:08.2,-0.000297546,-0.003084183,0.005252838,0,
00:08.2,-0.000291824,-0.003129959,0.00525856,0,
00:08.2,-0.000314713,-0.003175735,0.00525856,0,
00:08.2,-0.000314713,-0.003101349,0.005270004,0,
00:08.2,-0.000303268,-0.003084183,0.005281448,0,
00:08.2,-0.000297546,-0.003072739,0.00525856,0,
00:08.2,-0.000297546,-0.003095627,0.00525856,0,
00:08.2,-0.000297546,-0.003095627,0.00525856,0,
00:08.2,-0.000297546,-0.003078461,0.005247116,0,
00:08.2,-0.000303268,-0.003089905,0.005264282,0,
00:08.2,-0.00030899,-0.003112793,0.00528717,0,
00:08.3,-0.000326157,-0.003141403,0.005270004,0,
00:08.3,-0.00030899,-0.003124237,0.005264282,0,
00:08.3,-0.000303268,-0.003101349,0.005275726,0,
00:08.3,-0.00030899,-0.003084183,0.005252838,0,
00:08.3,-0.000303268,-0.003095627,0.00525856,0,
00:08.3,-0.000297546,-0.003095627,0.00525856,0,
00:08.3,-0.00030899,-0.003101349,0.005264282,0,
00:08.3,-0.000297546,-0.003072739,0.005247116,0,
00:08.3,-0.000303268,-0.003095627,0.005252838,0,
00:08.3,-0.000303268,-0.003129959,0.005275726,0,
00:08.3,-0.000303268,-0.003129959,0.005292892,0,
00:08.3,-0.000291824,-0.003118515,0.005275726,0,
00:08.3,-0.000303268,-0.003072739,0.005270004,0,
00:08.3,-0.000314713,-0.003078461,0.005275726,0,
00:08.3,-0.00030899,-0.003101349,0.005264282,0,
00:08.3,-0.00030899,-0.003101349,0.00525856,0,
00:08.3,-0.000314713,-0.003135681,0.005264282,0,
00:08.3,-0.000303268,-0.003101349,0.005281448,0,
00:08.3,-0.000303268,-0.003095627,0.005281448,0,
00:08.3,-0.000303268,-0.003118515,0.005264282,0,
00:08.3,-0.000314713,-0.003124237,0.005270004,0,
00:08.3,-0.000303268,-0.003095627,0.005281448,0,
00:08.3,-0.000297546,-0.003089905,0.005281448,0,
00:08.3,-0.000303268,-0.003118515,0.005270004,0,
00:08.3,-0.000320435,-0.003101349,0.005281448,0,
00:08.4,-0.000326157,-0.003095627,0.005275726,0,
00:08.4,-0.000314713,-0.003089905,0.00528717,0,
00:08.4,-0.00030899,-0.003107071,0.005275726,0,
00:08.4,-0.000297546,-0.003112793,0.005270004,0,
00:08.4,-0.000297546,-0.003095627,0.005264282,0,
00:08.4,-0.00030899,-0.003084183,0.005270004,0,
00:08.4,-0.000314713,-0.003061295,0.005281448,0,
00:08.4,-0.000326157,-0.003112793,0.005281448,0,
00:08.4,-0.000320435,-0.003141403,0.00528717,0,
00:08.4,-0.000314713,-0.003112793,0.005298615,0,
00:08.4,-0.000303268,-0.003078461,0.00528717,0,
00:08.4,-0.000291824,-0.003084183,0.005275726,0,
00:08.4,-0.00030899,-0.003107071,0.005292892,0,
00:08.4,-0.00030899,-0.003095627,0.005292892,0,
00:08.4,-0.000303268,-0.003072739,0.005281448,0,
00:08.4,-0.000320435,-0.003095627,0.005275726,0,
00:08.4,-0.000314713,-0.003089905,0.005281448,0,
00:08.4,-0.000303268,-0.003084183,0.005292892,0,
00:08.4,-0.000303268,-0.003078461,0.005281448,0,
00:08.4,-0.000314713,-0.003095627,0.005281448,0,
00:08.4,-0.00030899,-0.003124237,0.00528717,0,
00:08.4,-0.000303268,-0.003118515,0.00528717,0,
00:08.4,-0.000314713,-0.003107071,0.005281448,0,
00:08.4,-0.00030899,-0.003095627,0.005298615,0,
00:08.4,-0.000303268,-0.003084183,0.00528717,0,
00:08.5,-0.00028038,-0.003072739,0.005270004,0,
00:08.5,-0.000291824,-0.003072739,0.00528717,0,
00:08.5,-0.000326157,-0.003107071,0.005298615,0,
00:08.5,-0.000314713,-0.003118515,0.005292892,0,
00:08.5,-0.00030899,-0.003095627,0.005292892,0,
00:08.5,-0.00030899,-0.003101349,0.005292892,0,
00:08.5,-0.00030899,-0.003112793,0.005304337,0,
00:08.5,-0.000303268,-0.003107071,0.005304337,0,
00:08.5,-0.000291824,-0.003078461,0.00528717,0,
00:08.5,-0.000286102,-0.003067017,0.005275726,0,
00:08.5,-0.000297546,-0.003089905,0.00528717,0,
00:08.5,-0.000297546,-0.003078461,0.005292892,0,
00:08.5,-0.000268936,-0.003004074,0.00528717,0,
00:08.5,-0.000320435,-0.003118515,0.00528717,0,
00:08.5,-0.000331879,-0.003181458,0.00528717,0,
00:08.5,-0.00030899,-0.003135681,0.005292892,0,
00:08.5,-0.000303268,-0.003101349,0.005292892,0,
00:08.5,-0.000314713,-0.003095627,0.005292892,0,
00:08.5,-0.000314713,-0.003084183,0.005292892,0,
00:08.5,-0.000297546,-0.003067017,0.00528717,0,
00:08.5,-0.000274658,-0.003026962,0.005304337,0,
00:08.5,-0.000297546,-0.003084183,0.005270004,0,
00:08.5,-0.000314713,-0.003118515,0.005281448,0,
00:08.5,-0.000314713,-0.003107071,0.00528717,0,
00:08.5,-0.00030899,-0.003112793,0.00528717,0,
00:08.6,-0.000297546,-0.003084183,0.005292892,0,
00:08.6,-0.000297546,-0.003089905,0.00528717,0,
00:08.6,-0.00030899,-0.003112793,0.005298615,0,
00:08.6,-0.000314713,-0.003089905,0.005298615,0,
00:08.6,-0.000303268,-0.003067017,0.005298615,0,
00:08.6,-0.00030899,-0.003084183,0.005270004,0,
00:08.6,-0.000303268,-0.003107071,0.005275726,0,
00:08.6,-0.000291824,-0.003078461,0.005292892,0,
00:08.6,-0.000297546,-0.003084183,0.005304337,0,
00:08.6,-0.00030899,-0.003067017,0.005281448,0,
00:08.6,-0.000303268,-0.003089905,0.005298615,0,
00:08.6,-0.000297546,-0.003089905,0.005298615,0,
00:08.6,-0.000291824,-0.003055573,0.005315781,0,
00:08.6,-0.00030899,-0.003107071,0.00528717,0,
00:08.6,-0.00030899,-0.003101349,0.00528717,0,
00:08.6,-0.000314713,-0.003089905,0.00528717,0,
00:08.6,-0.00030899,-0.003095627,0.005304337,0,
00:08.6,-0.000291824,-0.003072739,0.005298615,0,
00:08.6,-0.000291824,-0.003067017,0.005292892,0,
00:08.6,-0.000326157,-0.003129959,0.005264282,0,
00:08.6,-0.000326157,-0.003118515,0.00528717,0,
00:08.6,-0.000314713,-0.003124237,0.005315781,0,
00:08.6,-0.000291824,-0.003101349,0.005298615,0,
00:08.6,-0.000291824,-0.003072739,0.005304337,0,
00:08.6,-0.00030899,-0.00304985,0.005298615,0,
00:08.7,-0.000297546,-0.003072739,0.005281448,0,
00:08.7,-0.00028038,-0.003078461,0.005292892,0,
00:08.7,-0.000331879,-0.003112793,0.00528717,0,
00:08.7,-0.000303268,-0.003107071,0.00528717,0,
00:08.7,-0.000263214,-0.003072739,0.005292892,0,
00:08.7,-0.000286102,-0.003095627,0.00528717,0,
00:08.7,-0.000291824,-0.003084183,0.005304337,0,
00:08.7,-0.000286102,-0.003095627,0.005292892,0,
00:08.7,-0.000291824,-0.003124237,0.005298615,0,
00:08.7,-0.00030899,-0.003124237,0.005304337,0,
00:08.7,-0.000314713,-0.003101349,0.005292892,0,
00:08.7,-0.000303268,-0.003084183,0.005298615,0,
00:08.7,-0.00030899,-0.003084183,0.005292892,0,
00:08.7,-0.000303268,-0.003101349,0.005281448,0,
00:08.7,-0.000268936,-0.003084183,0.005281448,0,
00:08.7,-0.000268936,-0.003055573,0.005270004,0,
00:08.7,-0.000291824,-0.003067017,0.005281448,0,
00:08.7,-0.000303268,-0.003089905,0.005310059,0,
00:08.7,-0.000268936,-0.00304985,0.005292892,0,
00:08.7,-0.00030899,-0.003038406,0.005270004,0,
00:08.7,-0.000394821,-0.003129959,0.00528717,0,
00:08.7,-0.000343323,-0.003124237,0.005281448,0,
00:08.7,-0.000234604,-0.003084183,0.005281448,0,
00:08.7,-0.000240326,-0.003067017,0.005275726,0,
00:08.7,-0.000257492,-0.003084183,0.00528717,0,
00:08.8,-0.000268936,-0.003095627,0.005292892,0,
00:08.8,-0.000274658,-0.003089905,0.005292892,0,
00:08.8,-0.000297546,-0.003112793,0.005298615,0,
00:08.8,-0.000303268,-0.003129959,0.00528717,0,
00:08.8,-0.000326157,-0.003112793,0.005281448,0,
00:08.8,-0.000303268,-0.003124237,0.005304337,0,
00:08.8,-0.00028038,-0.003124237,0.005292892,0,
00:08.8,-0.000286102,-0.003101349,0.005304337,0,
00:08.8,-0.000286102,-0.003095627,0.005304337,0,
00:08.8,-0.000286102,-0.003095627,0.00528717,0,
00:08.8,-0.000268936,-0.003067017,0.005275726,0,
00:08.8,-0.000263214,-0.003038406,0.005275726,0,
00:08.8,-0.000274658,-0.003072739,0.005292892,0,
00:08.8,-0.000286102,-0.003129959,0.00525856,0,
00:08.8,-0.000291824,-0.003107071,0.005275726,0,
00:08.8,-0.000303268,-0.003089905,0.00528717,0,
00:08.8,-0.00028038,-0.003078461,0.005292892,0,
00:08.8,-0.000268936,-0.003067017,0.00528717,0,
00:08.8,-0.000286102,-0.003067017,0.005275726,0,
00:08.8,-0.000291824,-0.003089905,0.005270004,0,
00:08.8,-0.00028038,-0.003089905,0.005275726,0,
00:08.8,-0.000303268,-0.003101349,0.005292892,0,
00:08.8,-0.00030899,-0.003152847,0.005310059,0,
00:08.8,-0.00030899,-0.003158569,0.005310059,0,
00:08.8,-0.00030899,-0.003124237,0.005298615,0,
00:08.9,-0.000303268,-0.003107071,0.005292892,0,
00:08.9,-0.000286102,-0.003095627,0.00528717,0,
00:08.9,-0.000274658,-0.003078461,0.005270004,0,
00:08.9,-0.000291824,-0.003078461,0.005275726,0,
00:08.9,-0.000297546,-0.003078461,0.00528717,0,
00:08.9,-0.00030899,-0.003078461,0.005270004,0,
00:08.9,-0.000303268,-0.003124237,0.005275726,0,
00:08.9,-0.00028038,-0.003118515,0.005304337,0,
00:08.9,-0.000303268,-0.003089905,0.005292892,0,
00:08.9,-0.000303268,-0.003107071,0.005298615,0,
00:08.9,-0.000274658,-0.003078461,0.005292892,0,
00:08.9,-0.000268936,-0.003078461,0.005281448,0,
00:08.9,-0.000263214,-0.003055573,0.005275726,0,
00:08.9,-0.000286102,-0.003084183,0.005281448,0,
00:08.9,-0.000303268,-0.003101349,0.005275726,0,
00:08.9,-0.00028038,-0.003084183,0.00528717,0,
00:08.9,-0.00028038,-0.003072739,0.005304337,0,
00:08.9,-0.000291824,-0.003107071,0.005292892,0,
00:08.9,-0.00028038,-0.003089905,0.005270004,0,
00:08.9,-0.00030899,-0.003095627,0.005281448,0,
00:08.9,-0.000314713,-0.003124237,0.005304337,0,
00:08.9,-0.000274658,-0.003107071,0.005304337,0,
00:08.9,-0.000291824,-0.003107071,0.005292892,0,
00:08.9,-0.000297546,-0.003078461,0.005281448,0,
00:08.9,-0.000303268,-0.003084183,0.00528717,0,
00:09.0,-0.000268936,-0.00304985,0.005310059,0,
00:09.0,-0.000286102,-0.003101349,0.005281448,0,
00:09.0,-0.00030899,-0.003118515,0.005275726,0,
00:09.0,-0.000297546,-0.003078461,0.005304337,0,
00:09.0,-0.000314713,-0.003095627,0.005304337,0,
00:09.0,-0.000286102,-0.003084183,0.00528717,0,
00:09.0,-0.000274658,-0.003095627,0.005292892,0,
00:09.0,-0.00028038,-0.003078461,0.005304337,0,
00:09.0,-0.000286102,-0.003107071,0.00528717,0,
00:09.0,-0.000314713,-0.003107071,0.005281448,0,
00:09.0,-0.000314713,-0.003107071,0.005275726,0,
00:09.0,-0.000286102,-0.003107071,0.005270004,0,
00:00:09,-0.000274658,-0.003107071,0.005304337,0,
00:09.0,-0.000274658,-0.003084183,0.005304337,0,
00:09.0,-0.000274658,-0.003067017,0.005292892,0,
00:09.0,-0.000274658,-0.003078461,0.005304337,0,
00:09.0,-0.000263214,-0.003067017,0.005304337,0,
00:09.0,-0.000274658,-0.003084183,0.005281448,0,
00:09.0,-0.00030899,-0.003101349,0.005281448,0,
00:09.0,-0.000303268,-0.003072739,0.005298615,0,
00:09.0,-0.000286102,-0.003118515,0.005304337,0,
00:09.0,-0.000291824,-0.003118515,0.005298615,0,
00:09.0,-0.000274658,-0.003061295,0.005310059,0,
00:09.0,-0.000263214,-0.003038406,0.005292892,0,
00:09.0,-0.000291824,-0.003044128,0.005270004,0,
00:09.1,-0.000337601,-0.003147125,0.005292892,0,
00:09.1,-0.000326157,-0.003152847,0.005304337,0,
00:09.1,-0.00028038,-0.003095627,0.005298615,0,
00:09.1,-0.000257492,-0.00304985,0.005298615,0,
00:09.1,-0.000297546,-0.00304985,0.00528717,0,
00:09.1,-0.00028038,-0.003072739,0.005281448,0,
00:09.1,-0.000268936,-0.003164291,0.005270004,0,
00:09.1,-0.000286102,-0.003129959,0.005275726,0,
00:09.1,-0.000291824,-0.003112793,0.005344391,0,
00:09.1,-0.000326157,-0.003118515,0.005332947,0,
00:09.1,-0.000303268,-0.003118515,0.005310059,0,
00:09.1,-0.000268936,-0.003061295,0.005304337,0,
00:09.1,-0.000263214,-0.003015518,0.00528717,0,
00:09.1,-0.000263214,-0.003089905,0.005275726,0,
00:09.1,-0.000297546,-0.003141403,0.005298615,0,
00:09.1,-0.000303268,-0.003118515,0.005310059,0,
00:09.1,-0.00030899,-0.003129959,0.005304337,0,
00:09.1,-0.000297546,-0.003118515,0.005310059,0,
00:09.1,-0.000268936,-0.003089905,0.005304337,0,
00:09.1,-0.000286102,-0.003095627,0.005270004,0,
00:09.1,-0.000314713,-0.003118515,0.005281448,0,
00:09.1,-0.000291824,-0.003072739,0.005298615,0,
00:09.1,-0.000268936,-0.003061295,0.005332947,0,
00:09.1,-0.000291824,-0.003135681,0.005310059,0,
00:09.1,-0.000303268,-0.003084183,0.005298615,0,
00:09.2,-0.000314713,-0.003112793,0.005304337,0,
00:09.2,-0.000286102,-0.003095627,0.005310059,0,
00:09.2,-0.000291824,-0.003112793,0.005304337,0,
00:09.2,-0.000286102,-0.003084183,0.005298615,0,
00:09.2,-0.000291824,-0.003084183,0.00528717,0,
00:09.2,-0.000303268,-0.003107071,0.005292892,0,
00:09.2,-0.000303268,-0.003095627,0.005304337,0,
00:09.2,-0.000297546,-0.003089905,0.005275726,0,
00:09.2,-0.000286102,-0.00304985,0.005275726,0,
00:09.2,-0.00028038,-0.003078461,0.005281448,0,
00:09.2,-0.000303268,-0.003112793,0.005292892,0,
00:09.2,-0.000274658,-0.003055573,0.005298615,0,
00:09.2,-0.000303268,-0.003118515,0.00528717,0,
00:09.2,-0.000314713,-0.003158569,0.005275726,0,
00:09.2,-0.000303268,-0.003129959,0.005292892,0,
00:09.2,-0.000274658,-0.003078461,0.005298615,0,
00:09.2,-0.00025177,-0.003044128,0.005292892,0,
00:09.2,-0.000274658,-0.003084183,0.005281448,0,
00:09.2,-0.000303268,-0.003107071,0.005281448,0,
00:09.2,-0.000320435,-0.003112793,0.005292892,0,
00:09.2,-0.000331879,-0.003135681,0.005298615,0,
00:09.2,-0.000331879,-0.003129959,0.005310059,0,
00:09.2,-0.000297546,-0.003112793,0.005304337,0,
00:09.2,-0.000257492,-0.003084183,0.00528717,0,
00:09.2,-0.000314713,-0.003101349,0.005275726,0,
00:09.3,-0.000331879,-0.003078461,0.005292892,0,
00:09.3,-0.000291824,-0.003067017,0.005304337,0,
00:09.3,-0.00025177,-0.003038406,0.005298615,0,
00:09.3,-0.000268936,-0.003089905,0.00525856,0,
00:09.3,-0.000291824,-0.003141403,0.005275726,0,
00:09.3,-0.00030899,-0.003118515,0.005310059,0,
00:09.3,-0.000314713,-0.003101349,0.005310059,0,
00:09.3,-0.000303268,-0.003055573,0.005281448,0,
00:09.3,-0.000297546,-0.003084183,0.005298615,0,
00:09.3,-0.000297546,-0.003118515,0.005292892,0,
00:09.3,-0.00028038,-0.003078461,0.005292892,0,
00:09.3,-0.000291824,-0.003164291,0.005310059,0,
00:09.3,-0.000320435,-0.003164291,0.005298615,0,
00:09.3,-0.000297546,-0.00304985,0.005292892,0,
00:09.3,-0.000291824,-0.003061295,0.005332947,0,
00:09.3,-0.000286102,-0.003101349,0.005310059,0,
00:09.3,-0.00028038,-0.003072739,0.005292892,0,
00:09.3,-0.000268936,-0.003044128,0.005315781,0,
00:09.3,-0.000291824,-0.003095627,0.005304337,0,
00:09.3,-0.000314713,-0.003112793,0.00525856,0,
00:09.3,-0.000320435,-0.003084183,0.005281448,0,
00:09.3,-0.00028038,-0.003072739,0.005292892,0,
00:09.3,-0.000297546,-0.003129959,0.005275726,0,
00:09.3,-0.000314713,-0.003112793,0.005275726,0,
00:09.3,-0.000274658,-0.003078461,0.005270004,0,
00:09.4,-0.000268936,-0.003089905,0.005292892,0,
00:09.4,-0.000286102,-0.003072739,0.00528717,0,
00:09.4,-0.000326157,-0.003107071,0.005315781,0,
00:09.4,-0.00030899,-0.003112793,0.005321503,0,
00:09.4,-0.000263214,-0.003095627,0.005292892,0,
00:09.4,-0.000274658,-0.003078461,0.005298615,0,
00:09.4,-0.000286102,-0.003072739,0.005292892,0,
00:09.4,-0.00028038,-0.003089905,0.00528717,0,
00:09.4,-0.000274658,-0.003084183,0.005304337,0,
00:09.4,-0.000286102,-0.003095627,0.005298615,0,
00:09.4,-0.000274658,-0.003038406,0.005298615,0,
00:09.4,-0.00030899,-0.003141403,0.005310059,0,
00:09.4,-0.000303268,-0.003124237,0.005315781,0,
00:09.4,-0.000274658,-0.003009796,0.00528717,0,
00:09.4,-0.00028038,-0.003038406,0.005292892,0,
00:09.4,-0.000303268,-0.003112793,0.005298615,0,
00:09.4,-0.000297546,-0.003112793,0.005292892,0,
00:09.4,-0.00030899,-0.003118515,0.00528717,0,
00:09.4,-0.000303268,-0.003084183,0.005298615,0,
00:09.4,-0.000320435,-0.003038406,0.005292892,0,
00:09.4,-0.000326157,-0.003084183,0.00528717,0,
00:09.4,-0.000291824,-0.003089905,0.005292892,0,
00:09.4,-0.000291824,-0.003107071,0.005310059,0,
00:09.4,-0.000286102,-0.003084183,0.005298615,0,
00:09.4,-0.000263214,-0.003084183,0.005275726,0,
00:09.5,-0.000286102,-0.003095627,0.005281448,0,
00:09.5,-0.000286102,-0.003078461,0.00528717,0,
00:09.5,-0.000274658,-0.003044128,0.00528717,0,
00:09.5,-0.000268936,-0.002998352,0.005292892,0,
00:09.5,-0.000263214,-0.003061295,0.00528717,0,
00:09.5,-0.00030899,-0.003164291,0.00528717,0,
00:09.5,-0.000303268,-0.003078461,0.005281448,0,
00:09.5,-0.00028038,-0.003015518,0.005292892,0,
00:09.5,-0.000303268,-0.003072739,0.005304337,0,
00:09.5,-0.00030899,-0.003124237,0.005315781,0,
00:09.5,-0.000297546,-0.003107071,0.00528717,0,
00:09.5,-0.00028038,-0.003038406,0.005281448,0,
00:09.5,-0.000286102,-0.00304985,0.00528717,0,
00:09.5,-0.00030899,-0.003089905,0.005298615,0,
00:09.5,-0.000297546,-0.003067017,0.00528717,0,
00:09.5,-0.000297546,-0.003078461,0.005298615,0,
00:09.5,-0.000303268,-0.003112793,0.005310059,0,
00:09.5,-0.000291824,-0.003095627,0.005310059,0,
00:09.5,-0.00028038,-0.003067017,0.005292892,0,
00:09.5,-0.000286102,-0.003072739,0.005281448,0,
00:09.5,-0.000297546,-0.003078461,0.005292892,0,
00:09.5,-0.000291824,-0.003089905,0.00528717,0,
00:09.5,-0.000263214,-0.003038406,0.005281448,0,
00:09.5,-0.000274658,-0.003026962,0.005270004,0,
00:09.5,-0.000297546,-0.003101349,0.00528717,0,
00:09.6,-0.000303268,-0.003084183,0.00528717,0,
00:09.6,-0.000297546,-0.00304985,0.005281448,0,
00:09.6,-0.000263214,-0.003038406,0.00528717,0,
00:09.6,-0.000286102,-0.00304985,0.005292892,0,
00:09.6,-0.00030899,-0.003101349,0.005304337,0,
00:09.6,-0.000303268,-0.003101349,0.00528717,0,
00:09.6,-0.000320435,-0.003101349,0.00528717,0,
00:09.6,-0.000297546,-0.003089905,0.005310059,0,
00:09.6,-0.000268936,-0.00304985,0.005298615,0,
00:09.6,-0.000286102,-0.003084183,0.00528717,0,
00:09.6,-0.000291824,-0.003084183,0.00528717,0,
00:09.6,-0.000297546,-0.003055573,0.005298615,0,
00:09.6,-0.000297546,-0.003044128,0.005298615,0,
00:09.6,-0.000314713,-0.003078461,0.005315781,0,
00:09.6,-0.000303268,-0.003061295,0.005310059,0,
00:09.6,-0.000268936,-0.003067017,0.005275726,0,
00:09.6,-0.000274658,-0.003078461,0.005270004,0,
00:09.6,-0.000291824,-0.003089905,0.005281448,0,
00:09.6,-0.000297546,-0.003067017,0.005315781,0,
00:09.6,-0.000303268,-0.003067017,0.005298615,0,
00:09.6,-0.00028038,-0.003084183,0.005292892,0,
00:09.6,-0.000286102,-0.003089905,0.005292892,0,
00:09.6,-0.00028038,-0.003055573,0.005298615,0,
00:09.6,-0.000286102,-0.00304985,0.005304337,0,
00:09.6,-0.000263214,-0.003061295,0.005292892,0,
00:09.7,-0.000314713,-0.003072739,0.00528717,0,
00:09.7,-0.000303268,-0.003067017,0.005304337,0,
00:09.7,-0.000303268,-0.003078461,0.005310059,0,
00:09.7,-0.000303268,-0.003118515,0.005298615,0,
00:09.7,-0.000297546,-0.003089905,0.005298615,0,
00:09.7,-0.000291824,-0.003055573,0.005298615,0,
00:09.7,-0.000297546,-0.003061295,0.005292892,0,
00:09.7,-0.000314713,-0.003095627,0.005270004,0,
00:09.7,-0.000314713,-0.003067017,0.00528717,0,
00:09.7,-0.000297546,-0.003038406,0.005275726,0,
00:09.7,-0.000291824,-0.002986908,0.005264282,0,
00:09.7,-0.000291824,-0.003038406,0.005292892,0,
00:09.7,-0.000297546,-0.003078461,0.005281448,0,
00:09.7,-0.000320435,-0.003101349,0.00528717,0,
00:09.7,-0.000314713,-0.003072739,0.005310059,0,
00:09.7,-0.000314713,-0.003101349,0.005298615,0,
00:09.7,-0.00030899,-0.003112793,0.005298615,0,
00:09.7,-0.00030899,-0.003095627,0.005292892,0,
00:09.7,-0.000303268,-0.003078461,0.00528717,0,
00:09.7,-0.00030899,-0.003067017,0.005270004,0,
00:09.7,-0.00030899,-0.003067017,0.005264282,0,
00:09.7,-0.000297546,-0.00304985,0.00528717,0,
00:09.7,-0.000286102,-0.003009796,0.00528717,0,
00:09.7,-0.000268936,-0.00296402,0.005281448,0,
00:09.7,-0.000314713,-0.003101349,0.00528717,0,
00:09.8,-0.000343323,-0.003158569,0.005292892,0,
00:09.8,-0.000314713,-0.003107071,0.005281448,0,
00:09.8,-0.000303268,-0.003044128,0.00528717,0,
00:09.8,-0.00030899,-0.00299263,0.005321503,0,
00:09.8,-0.000314713,-0.003078461,0.005292892,0,
00:09.8,-0.000297546,-0.003072739,0.005275726,0,
00:09.8,-0.00030899,-0.003044128,0.005281448,0,
00:09.8,-0.00030899,-0.003067017,0.00528717,0,
00:09.8,-0.00030899,-0.003078461,0.005298615,0,
00:09.8,-0.000314713,-0.003072739,0.005281448,0,
00:09.8,-0.000314713,-0.003067017,0.005281448,0,
00:09.8,-0.000297546,-0.00304985,0.005275726,0,
00:09.8,-0.000297546,-0.003044128,0.005298615,0,
00:09.8,-0.00030899,-0.003084183,0.005304337,0,
00:09.8,-0.000314713,-0.003101349,0.005281448,0,
00:09.8,-0.00030899,-0.003095627,0.00528717,0,
00:09.8,-0.000303268,-0.003118515,0.005298615,0,
00:09.8,-0.000343323,-0.003095627,0.005292892,0,
00:09.8,-0.000320435,-0.003067017,0.005298615,0,
00:09.8,-0.000291824,-0.00304985,0.005310059,0,
00:09.8,-0.000314713,-0.003044128,0.005315781,0,
00:09.8,-0.000326157,-0.003084183,0.005281448,0,
00:09.8,-0.00030899,-0.003078461,0.005298615,0,
00:09.8,-0.000303268,-0.003055573,0.005298615,0,
00:09.8,-0.000303268,-0.00304985,0.005281448,0,
00:09.9,-0.000314713,-0.003072739,0.00528717,0,
00:09.9,-0.000314713,-0.003089905,0.005304337,0,
00:09.9,-0.000297546,-0.00304985,0.005304337,0,
