Elapsed_Time,EMG1,EMG2,EMG3,BioRadio Event,Unnamed: 5
00:00:00,-0.000423431,-0.002643585,0.004932404,0,
00:00.0,-0.00044632,-0.002649307,0.004926682,0,
00:00.0,-0.000469208,-0.002660751,0.004898071,0,
00:00.0,-0.000463486,-0.002655029,0.004903793,0,
00:00.0,-0.00044632,-0.002626419,0.004943848,0,
00:00.0,-0.000434875,-0.002643585,0.004955292,0,
00:00.0,-0.000440598,-0.002649307,0.004915237,0,
00:00.0,-0.000480652,-0.002655029,0.004943848,0,
00:00.0,-0.000469208,-0.002649307,0.004943848,0,
00:00.0,-0.000411987,-0.002649307,0.004938126,0,
00:00.0,-0.000452042,-0.002660751,0.004943848,0,
00:00.0,-0.000480652,-0.002660751,0.004938126,0,
00:00.0,-0.000394821,-0.002649307,0.004920959,0,
00:00.1,-0.000383377,-0.002609253,0.004920959,0,
00:00.1,-0.000434875,-0.002620697,0.004920959,0,
00:00.1,-0.000423431,-0.002637863,0.004898071,0,
00:00.1,-0.000366211,-0.002655029,0.004915237,0,
00:00.1,-0.00044632,-0.002672195,0.004961014,0,
00:00.1,-0.000452042,-0.002660751,0.00494957,0,
00:00.1,-0.000452042,-0.002649307,0.004932404,0,
00:00.1,-0.00044632,-0.002620697,0.004920959,0,
00:00.1,-0.000429153,-0.002609253,0.004903793,0,
00:00.1,-0.000411987,-0.002632141,0.004898071,0,
00:00.1,-0.000434875,-0.002643585,0.004898071,0,
00:00.1,-0.000469208,-0.002655029,0.004943848,0,
00:00.1,-0.00044632,-0.002649307,0.004961014,0,
00:00.1,-0.00044632,-0.002643585,0.004961014,0,
00:00.1,-0.00044632,-0.002643585,0.004955292,0,
00:00.1,-0.000457764,-0.002637863,0.004938126,0,
00:00.1,-0.000457764,-0.002655029,0.004926682,0,
00:00.1,-0.000452042,-0.002643585,0.004926682,0,
00:00.1,-0.000463486,-0.002649307,0.004926682,0,
00:00.1,-0.000452042,-0.002655029,0.004943848,0,
00:00.1,-0.000486374,-0.002655029,0.004932404,0,
00:00.1,-0.000423431,-0.002672195,0.004926682,0,
00:00.1,-0.000354767,-0.002632141,0.004915237,0,
00:00.1,-0.00044632,-0.002643585,0.004932404,0,
00:00.1,-0.000480652,-0.002626419,0.00494957,0,
00:00.2,-0.000429153,-0.002614975,0.004920959,0,
00:00.2,-0.000417709,-0.002632141,0.004926682,0,
00:00.2,-0.000440598,-0.002637863,0.004938126,0,
00:00.2,-0.000463486,-0.002655029,0.004943848,0,
00:00.2,-0.000440598,-0.002649307,0.004938126,0,
00:00.2,-0.000429153,-0.002626419,0.004903793,0,
00:00.2,-0.000440598,-0.002637863,0.004932404,0,
00:00.2,-0.00047493,-0.002655029,0.004932404,0,
00:00.2,-0.000440598,-0.002643585,0.004955292,0,
00:00.2,-0.000423431,-0.002626419,0.004943848,0,
00:00.2,-0.000469208,-0.002643585,0.004926682,0,
00:00.2,-0.000469208,-0.002649307,0.004938126,0,
00:00.2,-0.000452042,-0.002649307,0.004943848,0,
00:00.2,-0.000429153,-0.002614975,0.004932404,0,
00:00.2,-0.000480652,-0.002655029,0.004943848,0,
00:00.2,-0.00047493,-0.002643585,0.004932404,0,
00:00.2,-0.00053215,-0.002637863,0.004909515,0,
00:00.2,-0.00044632,-0.002632141,0.004943848,0,
00:00.2,-0.000417709,-0.002614975,0.004943848,0,
00:00.2,-0.000463486,-0.002643585,0.00494957,0,
00:00.2,-0.00044632,-0.002655029,0.004943848,0,
00:00.2,-0.000423431,-0.002649307,0.004932404,0,
00:00.2,-0.00044632,-0.002649307,0.004880905,0,
00:00.2,-0.000457764,-0.002637863,0.004926682,0,
00:00.2,-0.000423431,-0.002626419,0.004943848,0,
00:00.3,-0.000429153,-0.002637863,0.004943848,0,
00:00.3,-0.000434875,-0.002632141,0.004926682,0,
00:00.3,-0.000389099,-0.002626419,0.004920959,0,
00:00.3,-0.000434875,-0.002632141,0.004920959,0,
00:00.3,-0.000492096,-0.002637863,0.004955292,0,
00:00.3,-0.000480652,-0.002643585,0.004966736,0,
00:00.3,-0.00044632,-0.002637863,0.004955292,0,
00:00.3,-0.000452042,-0.002637863,0.004938126,0,
00:00.3,-0.000480652,-0.002620697,0.004926682,0,
00:00.3,-0.000463486,-0.002626419,0.004915237,0,
00:00.3,-0.000457764,-0.002672195,0.004938126,0,
00:00.3,-0.000480652,-0.002660751,0.004932404,0,
00:00.3,-0.000452042,-0.002632141,0.004915237,0,
00:00.3,-0.000452042,-0.002643585,0.004926682,0,
00:00.3,-0.000440598,-0.002632141,0.004920959,0,
00:00.3,-0.00047493,-0.002626419,0.004915237,0,
00:00.3,-0.00044632,-0.002632141,0.004961014,0,
00:00.3,-0.000463486,-0.002655029,0.004955292,0,
00:00.3,-0.000469208,-0.002637863,0.004926682,0,
00:00.3,-0.000452042,-0.002626419,0.004920959,0,
00:00.3,-0.000434875,-0.002632141,0.004909515,0,
00:00.3,-0.000429153,-0.002637863,0.004938126,0,
00:00.3,-0.000434875,-0.002632141,0.004938126,0,
00:00.3,-0.000400543,-0.002620697,0.004920959,0,
00:00.3,-0.00044632,-0.002637863,0.004909515,0,
00:00.4,-0.000469208,-0.002655029,0.004955292,0,
00:00.4,-0.000469208,-0.002637863,0.004938126,0,
00:00.4,-0.000469208,-0.002643585,0.004909515,0,
00:00.4,-0.000452042,-0.002643585,0.004938126,0,
00:00.4,-0.000463486,-0.002632141,0.004943848,0,
00:00.4,-0.000440598,-0.002655029,0.004972458,0,
00:00.4,-0.000480652,-0.002655029,0.004926682,0,
00:00.4,-0.000434875,-0.002626419,0.004875183,0,
00:00.4,-0.000429153,-0.002632141,0.00494957,0,
00:00.4,-0.000440598,-0.002626419,0.00494957,0,
00:00.4,-0.000457764,-0.002632141,0.004961014,0,
00:00.4,-0.000469208,-0.002660751,0.00494957,0,
00:00.4,-0.000406265,-0.002643585,0.004915237,0,
00:00.4,-0.000406265,-0.002626419,0.004920959,0,
00:00.4,-0.000429153,-0.002603531,0.004915237,0,
00:00.4,-0.000509262,-0.002655029,0.004926682,0,
00:00.4,-0.000457764,-0.002649307,0.004920959,0,
00:00.4,-0.000440598,-0.002649307,0.004955292,0,
00:00.4,-0.000434875,-0.002637863,0.00494957,0,
00:00.4,-0.000457764,-0.002632141,0.004938126,0,
00:00.4,-0.000452042,-0.002632141,0.004943848,0,
00:00.4,-0.000452042,-0.002614975,0.004926682,0,
00:00.4,-0.00044632,-0.002632141,0.004943848,0,
00:00.4,-0.000497818,-0.002632141,0.004920959,0,
00:00.4,-0.000429153,-0.002620697,0.004892349,0,
00:00.5,-0.000383377,-0.002609253,0.004920959,0,
00:00.5,-0.000452042,-0.002620697,0.004961014,0,
00:00.5,-0.000492096,-0.002649307,0.00494957,0,
00:00.5,-0.00047493,-0.002655029,0.004926682,0,
00:00.5,-0.000463486,-0.002649307,0.004926682,0,
00:00.5,-0.000486374,-0.002637863,0.004955292,0,
00:00.5,-0.000492096,-0.002620697,0.004943848,0,
00:00.5,-0.000371933,-0.002614975,0.004909515,0,
00:00.5,-0.000394821,-0.002620697,0.004920959,0,
00:00.5,-0.00047493,-0.002649307,0.004920959,0,
00:00.5,-0.00044632,-0.002620697,0.004920959,0,
00:00.5,-0.000452042,-0.002626419,0.00494957,0,
00:00.5,-0.00047493,-0.002632141,0.004909515,0,
00:00.5,-0.000457764,-0.002614975,0.004943848,0,
00:00.5,-0.000440598,-0.002603531,0.004961014,0,
00:00.5,-0.000440598,-0.002637863,0.004932404,0,
00:00.5,-0.00047493,-0.002614975,0.004938126,0,
00:00.5,-0.000457764,-0.002620697,0.004920959,0,
00:00.5,-0.000440598,-0.002632141,0.004955292,0,
00:00.5,-0.000434875,-0.002632141,0.00494957,0,
00:00.5,-0.000452042,-0.002626419,0.004932404,0,
00:00.5,-0.00044632,-0.002614975,0.004920959,0,
00:00.5,-0.000469208,-0.002643585,0.004932404,0,
00:00.5,-0.000509262,-0.002626419,0.00494957,0,
00:00.5,-0.000463486,-0.002614975,0.004932404,0,
00:00.6,-0.000400543,-0.002620697,0.004932404,0,
00:00.6,-0.000389099,-0.002620697,0.004955292,0,
00:00.6,-0.000434875,-0.002609253,0.00494957,0,
00:00.6,-0.000469208,-0.002614975,0.004920959,0,
00:00.6,-0.00047493,-0.002643585,0.004943848,0,
00:00.6,-0.000440598,-0.002649307,0.004961014,0,
00:00.6,-0.000469208,-0.002614975,0.004926682,0,
00:00.6,-0.000434875,-0.002609253,0.004915237,0,
00:00.6,-0.000452042,-0.002597809,0.004920959,0,
00:00.6,-0.000440598,-0.002626419,0.00494957,0,
00:00.6,-0.00044632,-0.002643585,0.004938126,0,
00:00.6,-0.000429153,-0.002626419,0.004938126,0,
00:00.6,-0.00044632,-0.002597809,0.004926682,0,
00:00.6,-0.000463486,-0.002603531,0.004926682,0,
00:00.6,-0.000486374,-0.002626419,0.004920959,0,
00:00.6,-0.000457764,-0.002603531,0.004932404,0,
00:00.6,-0.000411987,-0.002603531,0.00494957,0,
00:00.6,-0.000406265,-0.002632141,0.004920959,0,
00:00.6,-0.00044632,-0.002609253,0.004909515,0,
00:00.6,-0.000492096,-0.002603531,0.004955292,0,
00:00.6,-0.000492096,-0.002614975,0.00494957,0,
00:00.6,-0.000429153,-0.002626419,0.004943848,0,
00:00.6,-0.000423431,-0.002620697,0.004938126,0,
00:00.6,-0.000434875,-0.002609253,0.00494957,0,
00:00.6,-0.00044632,-0.002609253,0.00494957,0,
00:00.7,-0.000463486,-0.002620697,0.004920959,0,
00:00.7,-0.000452042,-0.002626419,0.004909515,0,
00:00.7,-0.000434875,-0.002597809,0.004955292,0,
00:00.7,-0.000434875,-0.002586365,0.004955292,0,
00:00.7,-0.000429153,-0.002609253,0.004938126,0,
00:00.7,-0.000411987,-0.002586365,0.00494957,0,
00:00.7,-0.000411987,-0.002569199,0.00494957,0,
00:00.7,-0.000429153,-0.002609253,0.004955292,0,
00:00.7,-0.000423431,-0.002626419,0.004932404,0,
00:00.7,-0.000469208,-0.002632141,0.004920959,0,
00:00.7,-0.000463486,-0.002620697,0.004926682,0,
00:00.7,-0.000434875,-0.002597809,0.004938126,0,
00:00.7,-0.000423431,-0.002603531,0.004915237,0,
00:00.7,-0.000423431,-0.002626419,0.004972458,0,
00:00.7,-0.000434875,-0.002614975,0.004961014,0,
00:00.7,-0.000469208,-0.002603531,0.004955292,0,
00:00.7,-0.000480652,-0.002592087,0.004932404,0,
00:00.7,-0.000417709,-0.002609253,0.004943848,0,
00:00.7,-0.000383377,-0.002603531,0.004943848,0,
00:00.7,-0.000394821,-0.002597809,0.004932404,0,
00:00.7,-0.000463486,-0.002592087,0.004932404,0,
00:00.7,-0.000463486,-0.002614975,0.004955292,0,
00:00.7,-0.000434875,-0.002626419,0.004932404,0,
00:00.7,-0.000423431,-0.002632141,0.004938126,0,
00:00.7,-0.000434875,-0.002614975,0.004932404,0,
00:00.8,-0.000411987,-0.002603531,0.004909515,0,
00:00.8,-0.00044632,-0.002592087,0.004920959,0,
00:00.8,-0.000463486,-0.002597809,0.004943848,0,
00:00.8,-0.000417709,-0.002586365,0.00494957,0,
00:00.8,-0.000383377,-0.002586365,0.004932404,0,
00:00.8,-0.000411987,-0.002609253,0.004943848,0,
00:00.8,-0.000434875,-0.002620697,0.00494957,0,
00:00.8,-0.000469208,-0.002626419,0.004920959,0,
00:00.8,-0.000440598,-0.002586365,0.004915237,0,
00:00.8,-0.000417709,-0.002592087,0.004915237,0,
00:00.8,-0.000452042,-0.002614975,0.004955292,0,
00:00.8,-0.000463486,-0.002609253,0.004943848,0,
00:00.8,-0.000423431,-0.002603531,0.00494957,0,
00:00.8,-0.000429153,-0.002614975,0.004943848,0,
00:00.8,-0.000452042,-0.002620697,0.00494957,0,
00:00.8,-0.000394821,-0.002597809,0.004943848,0,
00:00.8,-0.000400543,-0.002592087,0.004938126,0,
00:00.8,-0.000463486,-0.002597809,0.004915237,0,
00:00.8,-0.000440598,-0.002597809,0.004943848,0,
00:00.8,-0.000434875,-0.002574921,0.004932404,0,
00:00.8,-0.00050354,-0.002620697,0.004943848,0,
00:00.8,-0.000434875,-0.002614975,0.004903793,0,
00:00.8,-0.00044632,-0.002597809,0.004920959,0,
00:00.8,-0.000423431,-0.002586365,0.004955292,0,
00:00.8,-0.000411987,-0.002597809,0.00494957,0,
00:00.9,-0.000469208,-0.002609253,0.004943848,0,
00:00.9,-0.000429153,-0.002603531,0.004938126,0,
00:00.9,-0.000411987,-0.002592087,0.004943848,0,
00:00.9,-0.00047493,-0.002603531,0.004943848,0,
00:00.9,-0.000469208,-0.002603531,0.004915237,0,
00:00.9,-0.000400543,-0.002586365,0.004903793,0,
00:00.9,-0.000406265,-0.002597809,0.004966736,0,
00:00.9,-0.000400543,-0.002586365,0.004938126,0,
00:00.9,-0.000434875,-0.002580643,0.004943848,0,
00:00.9,-0.00047493,-0.002620697,0.004972458,0,
00:00.9,-0.000423431,-0.002586365,0.00494957,0,
00:00.9,-0.000371933,-0.002557755,0.004943848,0,
00:00.9,-0.000434875,-0.002586365,0.004926682,0,
00:00.9,-0.000429153,-0.002609253,0.004943848,0,
00:00.9,-0.000440598,-0.002603531,0.00494957,0,
00:00.9,-0.000452042,-0.002592087,0.004932404,0,
00:00.9,-0.000434875,-0.002597809,0.004920959,0,
00:00.9,-0.000417709,-0.002609253,0.004943848,0,
00:00.9,-0.000423431,-0.002592087,0.00494957,0,
00:00.9,-0.000457764,-0.002592087,0.00494957,0,
00:00.9,-0.000457764,-0.002597809,0.004972458,0,
00:00.9,-0.000423431,-0.002597809,0.004966736,0,
00:00.9,-0.00044632,-0.002603531,0.004938126,0,
00:00.9,-0.000400543,-0.002580643,0.004920959,0,
00:00.9,-0.000389099,-0.002569199,0.004915237,0,
00:01.0,-0.000394821,-0.002586365,0.004920959,0,
00:01.0,-0.00044632,-0.002592087,0.004932404,0,
00:01.0,-0.000434875,-0.002597809,0.004961014,0,
00:01.0,-0.000389099,-0.002597809,0.004932404,0,
00:01.0,-0.000417709,-0.002592087,0.004926682,0,
00:01.0,-0.000406265,-0.002586365,0.004926682,0,
00:01.0,-0.000406265,-0.002592087,0.00494957,0,
00:01.0,-0.000452042,-0.002603531,0.004961014,0,
00:01.0,-0.000469208,-0.002592087,0.00497818,0,
00:01.0,-0.000423431,-0.002586365,0.004966736,0,
00:01.0,-0.000406265,-0.002609253,0.004938126,0,
00:01.0,-0.000429153,-0.002597809,0.004955292,0,
00:00:01,-0.000423431,-0.002586365,0.004938126,0,
00:01.0,-0.000429153,-0.002603531,0.00494957,0,
00:01.0,-0.000457764,-0.002592087,0.004966736,0,
00:01.0,-0.000406265,-0.002580643,0.00494957,0,
00:01.0,-0.000377655,-0.002580643,0.00494957,0,
00:01.0,-0.000417709,-0.002597809,0.004961014,0,
00:01.0,-0.000434875,-0.002609253,0.004966736,0,
00:01.0,-0.000417709,-0.002614975,0.004966736,0,
00:01.0,-0.000371933,-0.002592087,0.004943848,0,
00:01.0,-0.000383377,-0.002586365,0.00494957,0,
00:01.0,-0.000429153,-0.002586365,0.004943848,0,
00:01.0,-0.00044632,-0.002574921,0.004955292,0,
00:01.0,-0.000429153,-0.002592087,0.004926682,0,
00:01.1,-0.000423431,-0.002597809,0.004932404,0,
00:01.1,-0.000457764,-0.002597809,0.00494957,0,
00:01.1,-0.000406265,-0.002597809,0.004961014,0,
00:01.1,-0.000371933,-0.002586365,0.004966736,0,
00:01.1,-0.000371933,-0.002580643,0.004955292,0,
00:01.1,-0.000429153,-0.002592087,0.00494957,0,
00:01.1,-0.000423431,-0.002580643,0.004966736,0,
00:01.1,-0.000383377,-0.002592087,0.00494957,0,
00:01.1,-0.000440598,-0.002614975,0.004961014,0,
00:01.1,-0.000509262,-0.002603531,0.004966736,0,
00:01.1,-0.000406265,-0.002580643,0.004983902,0,
00:01.1,-0.000366211,-0.002557755,0.004972458,0,
00:01.1,-0.000383377,-0.002574921,0.00494957,0,
00:01.1,-0.000406265,-0.002603531,0.004943848,0,
00:01.1,-0.000389099,-0.002574921,0.00494957,0,
00:01.1,-0.00044632,-0.002597809,0.004961014,0,
00:01.1,-0.000411987,-0.002586365,0.004932404,0,
00:01.1,-0.000394821,-0.002586365,0.004932404,0,
00:01.1,-0.000411987,-0.002580643,0.004943848,0,
00:01.1,-0.000406265,-0.002580643,0.004966736,0,
00:01.1,-0.000389099,-0.00254631,0.004955292,0,
00:01.1,-0.000411987,-0.002580643,0.004938126,0,
00:01.1,-0.000440598,-0.002609253,0.004966736,0,
00:01.1,-0.000423431,-0.002592087,0.004955292,0,
00:01.1,-0.000406265,-0.002563477,0.00494957,0,
00:01.2,-0.000400543,-0.002586365,0.004961014,0,
00:01.2,-0.000423431,-0.002603531,0.00497818,0,
00:01.2,-0.000360489,-0.002580643,0.00494957,0,
00:01.2,-0.000411987,-0.002586365,0.00494957,0,
00:01.2,-0.00047493,-0.002592087,0.00497818,0,
00:01.2,-0.000417709,-0.002603531,0.004966736,0,
00:01.2,-0.000394821,-0.002620697,0.00497818,0,
00:01.2,-0.000389099,-0.002586365,0.004938126,0,
00:01.2,-0.000383377,-0.002574921,0.00494957,0,
00:01.2,-0.000400543,-0.002563477,0.004938126,0,
00:01.2,-0.000411987,-0.002557755,0.00494957,0,
00:01.2,-0.000423431,-0.002592087,0.004961014,0,
00:01.2,-0.000406265,-0.002586365,0.004943848,0,
00:01.2,-0.000423431,-0.002592087,0.004955292,0,
00:01.2,-0.000429153,-0.002597809,0.004961014,0,
00:01.2,-0.000389099,-0.002597809,0.00494957,0,
00:01.2,-0.000463486,-0.002603531,0.004966736,0,
00:01.2,-0.000423431,-0.002580643,0.004932404,0,
00:01.2,-0.000394821,-0.002586365,0.004943848,0,
00:01.2,-0.000406265,-0.002569199,0.004989624,0,
00:01.2,-0.000423431,-0.002580643,0.00497818,0,
00:01.2,-0.000377655,-0.002580643,0.004966736,0,
00:01.2,-0.000349045,-0.002586365,0.00494957,0,
00:01.2,-0.000429153,-0.002563477,0.004932404,0,
00:01.2,-0.000417709,-0.002569199,0.004932404,0,
00:01.3,-0.000429153,-0.002597809,0.004972458,0,
00:01.3,-0.000469208,-0.002592087,0.004989624,0,
00:01.3,-0.000469208,-0.002592087,0.004989624,0,
00:01.3,-0.000394821,-0.002592087,0.004966736,0,
00:01.3,-0.000389099,-0.002592087,0.004943848,0,
00:01.3,-0.000400543,-0.002569199,0.00494957,0,
00:01.3,-0.000423431,-0.002563477,0.004943848,0,
00:01.3,-0.000429153,-0.002609253,0.004926682,0,
00:01.3,-0.000411987,-0.002614975,0.004966736,0,
00:01.3,-0.000406265,-0.002580643,0.004966736,0,
00:01.3,-0.000406265,-0.002580643,0.004972458,0,
00:01.3,-0.000440598,-0.002592087,0.004961014,0,
00:01.3,-0.000406265,-0.002597809,0.004966736,0,
00:01.3,-0.000429153,-0.002592087,0.00494957,0,
00:01.3,-0.000417709,-0.002586365,0.004943848,0,
00:01.3,-0.000400543,-0.002563477,0.004915237,0,
00:01.3,-0.000417709,-0.002586365,0.004955292,0,
00:01.3,-0.000423431,-0.002597809,0.004955292,0,
00:01.3,-0.000394821,-0.002586365,0.004955292,0,
00:01.3,-0.000389099,-0.002580643,0.004955292,0,
00:01.3,-0.000366211,-0.002569199,0.004932404,0,
00:01.3,-0.000406265,-0.002580643,0.004915237,0,
00:01.3,-0.00044632,-0.002586365,0.004972458,0,
00:01.3,-0.00047493,-0.002609253,0.00497818,0,
00:01.3,-0.000429153,-0.002586365,0.00494957,0,
00:01.4,-0.000452042,-0.002580643,0.004961014,0,
00:01.4,-0.000406265,-0.002580643,0.004926682,0,
00:01.4,-0.000417709,-0.002586365,0.004955292,0,
00:01.4,-0.000417709,-0.002586365,0.00494957,0,
00:01.4,-0.000383377,-0.002574921,0.00494957,0,
00:01.4,-0.000434875,-0.002614975,0.00497818,0,
00:01.4,-0.000497818,-0.002609253,0.004966736,0,
00:01.4,-0.000383377,-0.002597809,0.004938126,0,
00:01.4,-0.000349045,-0.002586365,0.004938126,0,
00:01.4,-0.000400543,-0.002586365,0.004938126,0,
00:01.4,-0.000423431,-0.002603531,0.004961014,0,
00:01.4,-0.000429153,-0.002592087,0.004943848,0,
00:01.4,-0.000429153,-0.002603531,0.004955292,0,
00:01.4,-0.000423431,-0.002592087,0.004943848,0,
00:01.4,-0.000389099,-0.002580643,0.004926682,0,
00:01.4,-0.000417709,-0.002586365,0.004926682,0,
00:01.4,-0.000411987,-0.002580643,0.004955292,0,
00:01.4,-0.000411987,-0.002597809,0.004938126,0,
00:01.4,-0.000406265,-0.002614975,0.004961014,0,
00:01.4,-0.000400543,-0.002586365,0.004926682,0,
00:01.4,-0.00047493,-0.002592087,0.004938126,0,
00:01.4,-0.000480652,-0.002592087,0.00494957,0,
00:01.4,-0.000440598,-0.002597809,0.004920959,0,
00:01.4,-0.000400543,-0.002609253,0.00494957,0,
00:01.4,-0.000389099,-0.002597809,0.004961014,0,
00:01.5,-0.000423431,-0.002620697,0.00497818,0,
00:01.5,-0.000434875,-0.002626419,0.004966736,0,
00:01.5,-0.000417709,-0.002592087,0.004920959,0,
00:01.5,-0.000389099,-0.002592087,0.004932404,0,
00:01.5,-0.000366211,-0.002597809,0.00494957,0,
00:01.5,-0.000423431,-0.002620697,0.004955292,0,
00:01.5,-0.000429153,-0.002603531,0.004938126,0,
00:01.5,-0.000406265,-0.002609253,0.004932404,0,
00:01.5,-0.000394821,-0.002609253,0.004932404,0,
00:01.5,-0.000406265,-0.002592087,0.004938126,0,
00:01.5,-0.000440598,-0.002597809,0.004983902,0,
00:01.5,-0.000417709,-0.002614975,0.004955292,0,
00:01.5,-0.000389099,-0.002609253,0.004943848,0,
00:01.5,-0.000434875,-0.002626419,0.004955292,0,
00:01.5,-0.000463486,-0.002620697,0.004955292,0,
00:01.5,-0.000377655,-0.002586365,0.004943848,0,
00:01.5,-0.000394821,-0.002597809,0.004938126,0,
00:01.5,-0.000440598,-0.002592087,0.00494957,0,
00:01.5,-0.000497818,-0.002637863,0.00494957,0,
00:01.5,-0.000469208,-0.002626419,0.004932404,0,
00:01.5,-0.000371933,-0.002597809,0.004989624,0,
00:01.5,-0.000331879,-0.002632141,0.004966736,0,
00:01.5,-0.000452042,-0.002632141,0.004943848,0,
00:01.5,-0.000417709,-0.002609253,0.00494957,0,
00:01.5,-0.000394821,-0.002597809,0.004932404,0,
00:01.6,-0.000423431,-0.002609253,0.004966736,0,
00:01.6,-0.000406265,-0.002637863,0.004966736,0,
00:01.6,-0.000394821,-0.002620697,0.00494957,0,
00:01.6,-0.000377655,-0.002603531,0.004938126,0,
00:01.6,-0.000411987,-0.002637863,0.004943848,0,
00:01.6,-0.000423431,-0.002626419,0.004932404,0,
00:01.6,-0.000457764,-0.002626419,0.004972458,0,
00:01.6,-0.00044632,-0.002620697,0.004966736,0,
00:01.6,-0.000429153,-0.002626419,0.004966736,0,
00:01.6,-0.000429153,-0.002632141,0.004955292,0,
00:01.6,-0.000423431,-0.002632141,0.004961014,0,
00:01.6,-0.000400543,-0.002626419,0.004955292,0,
00:01.6,-0.000423431,-0.002620697,0.004932404,0,
00:01.6,-0.000411987,-0.002620697,0.00494957,0,
00:01.6,-0.000360489,-0.002614975,0.004972458,0,
00:01.6,-0.000406265,-0.002620697,0.004955292,0,
00:01.6,-0.000457764,-0.002626419,0.004938126,0,
00:01.6,-0.000469208,-0.002643585,0.00494957,0,
00:01.6,-0.000452042,-0.002614975,0.004938126,0,
00:01.6,-0.000429153,-0.002660751,0.004955292,0,
00:01.6,-0.000417709,-0.002626419,0.004943848,0,
00:01.6,-0.000389099,-0.002614975,0.004955292,0,
00:01.6,-0.000366211,-0.002620697,0.004966736,0,
00:01.6,-0.000400543,-0.002632141,0.004926682,0,
00:01.6,-0.000411987,-0.002626419,0.00494957,0,
00:01.7,-0.00044632,-0.002626419,0.004966736,0,
00:01.7,-0.000394821,-0.002626419,0.004943848,0,
00:01.7,-0.000371933,-0.002626419,0.004926682,0,
00:01.7,-0.000411987,-0.002620697,0.004926682,0,
00:01.7,-0.000452042,-0.002626419,0.004983902,0,
00:01.7,-0.000423431,-0.002637863,0.004966736,0,
00:01.7,-0.000394821,-0.002643585,0.004966736,0,
00:01.7,-0.000366211,-0.002649307,0.004966736,0,
00:01.7,-0.000434875,-0.002626419,0.004932404,0,
00:01.7,-0.000480652,-0.002643585,0.00494957,0,
00:01.7,-0.000440598,-0.002649307,0.004972458,0,
00:01.7,-0.000423431,-0.002637863,0.004961014,0,
00:01.7,-0.000514984,-0.002649307,0.004961014,0,
00:01.7,-0.00050354,-0.002672195,0.004966736,0,
00:01.7,-0.000349045,-0.002637863,0.004943848,0,
00:01.7,-0.000389099,-0.002614975,0.00494957,0,
00:01.7,-0.000389099,-0.002614975,0.004955292,0,
00:01.7,-0.000400543,-0.002660751,0.004932404,0,
00:01.7,-0.000434875,-0.002649307,0.004932404,0,
00:01.7,-0.000457764,-0.002637863,0.00494957,0,
00:01.7,-0.000411987,-0.002632141,0.004943848,0,
00:01.7,-0.000394821,-0.002637863,0.00494957,0,
00:01.7,-0.000417709,-0.002626419,0.00494957,0,
00:01.7,-0.000417709,-0.002643585,0.00494957,0,
00:01.7,-0.000371933,-0.002655029,0.004932404,0,
00:01.8,-0.000394821,-0.002649307,0.004961014,0,
00:01.8,-0.000469208,-0.002637863,0.004943848,0,
00:01.8,-0.000457764,-0.002637863,0.004943848,0,
00:01.8,-0.000440598,-0.002655029,0.004983902,0,
00:01.8,-0.000423431,-0.002666473,0.004972458,0,
00:01.8,-0.000406265,-0.002626419,0.00497818,0,
00:01.8,-0.00047493,-0.002632141,0.004961014,0,
00:01.8,-0.00050354,-0.002677917,0.004943848,0,
00:01.8,-0.000452042,-0.002672195,0.004972458,0,
00:01.8,-0.000394821,-0.00268364,0.00497818,0,
00:01.8,-0.00044632,-0.002655029,0.00494957,0,
00:01.8,-0.000429153,-0.002649307,0.004961014,0,
00:01.8,-0.000429153,-0.002643585,0.004926682,0,
00:01.8,-0.000440598,-0.002655029,0.004932404,0,
00:01.8,-0.000400543,-0.002626419,0.004955292,0,
00:01.8,-0.000411987,-0.002649307,0.004972458,0,
00:01.8,-0.000389099,-0.002643585,0.004943848,0,
00:01.8,-0.000429153,-0.002643585,0.004926682,0,
00:01.8,-0.000423431,-0.002649307,0.004966736,0,
00:01.8,-0.000457764,-0.002666473,0.004961014,0,
00:01.8,-0.000497818,-0.002666473,0.004943848,0,
00:01.8,-0.000417709,-0.002643585,0.004966736,0,
00:01.8,-0.000371933,-0.002620697,0.004966736,0,
00:01.8,-0.000417709,-0.002660751,0.004943848,0,
00:01.8,-0.000452042,-0.002672195,0.004920959,0,
00:01.9,-0.000452042,-0.002660751,0.004955292,0,
00:01.9,-0.000417709,-0.002655029,0.004966736,0,
00:01.9,-0.000452042,-0.002643585,0.00494957,0,
00:01.9,-0.000463486,-0.002655029,0.004955292,0,
00:01.9,-0.00044632,-0.002660751,0.004972458,0,
00:01.9,-0.000457764,-0.002649307,0.00494957,0,
00:01.9,-0.000423431,-0.002637863,0.004966736,0,
00:01.9,-0.000440598,-0.002655029,0.004972458,0,
00:01.9,-0.00047493,-0.002677917,0.004955292,0,
00:01.9,-0.000434875,-0.002666473,0.00494957,0,
00:01.9,-0.000423431,-0.002655029,0.004961014,0,
00:01.9,-0.000429153,-0.002626419,0.00494957,0,
00:01.9,-0.000440598,-0.002643585,0.004915237,0,
00:01.9,-0.000463486,-0.002660751,0.004943848,0,
00:01.9,-0.000497818,-0.002666473,0.004932404,0,
00:01.9,-0.000440598,-0.002655029,0.004932404,0,
00:01.9,-0.000394821,-0.002660751,0.004972458,0,
00:01.9,-0.000377655,-0.002655029,0.004972458,0,
00:01.9,-0.000400543,-0.002649307,0.00494957,0,
00:01.9,-0.00047493,-0.002660751,0.00497818,0,
00:01.9,-0.000463486,-0.002666473,0.004938126,0,
00:01.9,-0.000452042,-0.002672195,0.004943848,0,
00:01.9,-0.000452042,-0.002660751,0.00497818,0,
00:01.9,-0.000440598,-0.002666473,0.004966736,0,
00:01.9,-0.000411987,-0.002655029,0.004966736,0,
00:02.0,-0.000452042,-0.002672195,0.004961014,0,
00:02.0,-0.000497818,-0.002666473,0.004932404,0,
00:02.0,-0.000440598,-0.002660751,0.004938126,0,
00:02.0,-0.000417709,-0.002643585,0.004932404,0,
00:02.0,-0.000463486,-0.002660751,0.004943848,0,
00:02.0,-0.000452042,-0.002643585,0.004915237,0,
00:02.0,-0.000440598,-0.002643585,0.004943848,0,
00:02.0,-0.000469208,-0.002660751,0.00494957,0,
00:02.0,-0.000440598,-0.002672195,0.004943848,0,
00:02.0,-0.000440598,-0.002655029,0.004966736,0,
00:02.0,-0.000434875,-0.002637863,0.004966736,0,
00:02.0,-0.000429153,-0.002649307,0.004943848,0,
00:00:02,-0.000440598,-0.002655029,0.004938126,0,
00:02.0,-0.000440598,-0.002660751,0.00494957,0,
00:02.0,-0.000423431,-0.002660751,0.004926682,0,
00:02.0,-0.000429153,-0.002672195,0.004955292,0,
00:02.0,-0.000463486,-0.002672195,0.004966736,0,
00:02.0,-0.000480652,-0.002655029,0.004920959,0,
00:02.0,-0.000440598,-0.002655029,0.004938126,0,
00:02.0,-0.00044632,-0.002655029,0.00494957,0,
00:02.0,-0.000492096,-0.002666473,0.004961014,0,
00:02.0,-0.000463486,-0.002632141,0.004943848,0,
00:02.0,-0.000429153,-0.002643585,0.004943848,0,
00:02.0,-0.000463486,-0.002700806,0.004961014,0,
00:02.0,-0.000520706,-0.002677917,0.004961014,0,
00:02.1,-0.000411987,-0.002649307,0.004926682,0,
00:02.1,-0.000423431,-0.002637863,0.004926682,0,
00:02.1,-0.000457764,-0.002649307,0.004938126,0,
00:02.1,-0.000452042,-0.002666473,0.004938126,0,
00:02.1,-0.000452042,-0.002677917,0.004955292,0,
00:02.1,-0.000452042,-0.002672195,0.004955292,0,
00:02.1,-0.000434875,-0.002649307,0.004961014,0,
00:02.1,-0.000457764,-0.002637863,0.004938126,0,
00:02.1,-0.000434875,-0.002649307,0.004926682,0,
00:02.1,-0.000434875,-0.002655029,0.004961014,0,
00:02.1,-0.00044632,-0.002649307,0.004966736,0,
00:02.1,-0.000452042,-0.002660751,0.004938126,0,
00:02.1,-0.000452042,-0.002655029,0.004903793,0,
00:02.1,-0.000457764,-0.002649307,0.004920959,0,
00:02.1,-0.00044632,-0.002660751,0.004966736,0,
00:02.1,-0.000429153,-0.002655029,0.004972458,0,
00:02.1,-0.000463486,-0.002649307,0.004938126,0,
00:02.1,-0.000480652,-0.002637863,0.004943848,0,
00:02.1,-0.000457764,-0.002649307,0.004961014,0,
00:02.1,-0.000486374,-0.002660751,0.004943848,0,
00:02.1,-0.000469208,-0.002677917,0.004943848,0,
00:02.1,-0.000463486,-0.002649307,0.00494957,0,
00:02.1,-0.00047493,-0.002660751,0.004955292,0,
00:02.1,-0.000440598,-0.002666473,0.004932404,0,
00:02.1,-0.00047493,-0.002655029,0.004955292,0,
00:02.2,-0.000417709,-0.002637863,0.004961014,0,
00:02.2,-0.000389099,-0.002632141,0.004920959,0,
00:02.2,-0.000417709,-0.002637863,0.004920959,0,
00:02.2,-0.000440598,-0.002637863,0.004920959,0,
00:02.2,-0.000497818,-0.002649307,0.004938126,0,
00:02.2,-0.000469208,-0.002643585,0.004955292,0,
00:02.2,-0.000440598,-0.002655029,0.004938126,0,
00:02.2,-0.000480652,-0.002655029,0.004915237,0,
00:02.2,-0.000440598,-0.002655029,0.004926682,0,
00:02.2,-0.000452042,-0.002637863,0.004972458,0,
00:02.2,-0.000463486,-0.002643585,0.004955292,0,
00:02.2,-0.000480652,-0.002660751,0.004955292,0,
00:02.2,-0.000440598,-0.002655029,0.004926682,0,
00:02.2,-0.000452042,-0.002649307,0.004955292,0,
00:02.2,-0.000452042,-0.002637863,0.004943848,0,
00:02.2,-0.000463486,-0.002649307,0.004955292,0,
00:02.2,-0.000463486,-0.002655029,0.004943848,0,
00:02.2,-0.00044632,-0.002643585,0.00494957,0,
00:02.2,-0.00047493,-0.002643585,0.004943848,0,
00:02.2,-0.000480652,-0.002655029,0.004943848,0,
00:02.2,-0.000463486,-0.002655029,0.004943848,0,
00:02.2,-0.000486374,-0.002643585,0.004938126,0,
00:02.2,-0.000434875,-0.002649307,0.004915237,0,
00:02.2,-0.000417709,-0.002643585,0.00494957,0,
00:02.2,-0.00044632,-0.002643585,0.00494957,0,
00:02.3,-0.000434875,-0.002637863,0.004943848,0,
00:02.3,-0.00047493,-0.002643585,0.004920959,0,
00:02.3,-0.000492096,-0.002632141,0.004898071,0,
00:02.3,-0.000452042,-0.002637863,0.004903793,0,
00:02.3,-0.000434875,-0.002655029,0.00497818,0,
00:02.3,-0.000463486,-0.002632141,0.00494957,0,
00:02.3,-0.00047493,-0.002626419,0.004938126,0,
00:02.3,-0.000480652,-0.002632141,0.004943848,0,
00:02.3,-0.000469208,-0.002637863,0.004955292,0,
00:02.3,-0.000434875,-0.002637863,0.004966736,0,
00:02.3,-0.000457764,-0.002660751,0.004972458,0,
00:02.3,-0.000486374,-0.002649307,0.004955292,0,
00:02.3,-0.000497818,-0.002632141,0.00494957,0,
00:02.3,-0.000452042,-0.002626419,0.004943848,0,
00:02.3,-0.000429153,-0.002637863,0.004938126,0,
00:02.3,-0.000417709,-0.002632141,0.004926682,0,
00:02.3,-0.000486374,-0.002626419,0.00494957,0,
00:02.3,-0.000492096,-0.002649307,0.004972458,0,
00:02.3,-0.00044632,-0.002626419,0.004972458,0,
00:02.3,-0.000417709,-0.002609253,0.004926682,0,
00:02.3,-0.000492096,-0.002637863,0.004932404,0,
00:02.3,-0.000469208,-0.002620697,0.004920959,0,
00:02.3,-0.000452042,-0.002603531,0.004926682,0,
00:02.3,-0.000497818,-0.002643585,0.00494957,0,
00:02.3,-0.00050354,-0.002632141,0.00497818,0,
00:02.4,-0.000440598,-0.002620697,0.004961014,0,
00:02.4,-0.000423431,-0.002637863,0.004932404,0,
00:02.4,-0.000411987,-0.002637863,0.004955292,0,
00:02.4,-0.000423431,-0.002643585,0.004932404,0,
00:02.4,-0.000452042,-0.002632141,0.004966736,0,
00:02.4,-0.00050354,-0.002643585,0.004989624,0,
00:02.4,-0.000492096,-0.002632141,0.004966736,0,
00:02.4,-0.00050354,-0.002614975,0.004943848,0,
00:02.4,-0.000452042,-0.002614975,0.004938126,0,
00:02.4,-0.000497818,-0.002632141,0.00494957,0,
00:02.4,-0.00047493,-0.002609253,0.004932404,0,
00:02.4,-0.000434875,-0.002614975,0.004938126,0,
00:02.4,-0.00044632,-0.002632141,0.004955292,0,
00:02.4,-0.000452042,-0.002603531,0.004943848,0,
00:02.4,-0.000429153,-0.002626419,0.004920959,0,
00:02.4,-0.000457764,-0.002649307,0.004983902,0,
00:02.4,-0.00053215,-0.002632141,0.004983902,0,
00:02.4,-0.000463486,-0.002609253,0.004932404,0,
00:02.4,-0.00044632,-0.002609253,0.004938126,0,
00:02.4,-0.000492096,-0.002626419,0.004961014,0,
00:02.4,-0.000486374,-0.002643585,0.004966736,0,
00:02.4,-0.000423431,-0.002637863,0.004955292,0,
00:02.4,-0.000423431,-0.002614975,0.004938126,0,
00:02.4,-0.000434875,-0.002592087,0.004926682,0,
00:02.4,-0.00047493,-0.002626419,0.004955292,0,
00:02.5,-0.000486374,-0.002609253,0.004972458,0,
00:02.5,-0.00047493,-0.002603531,0.004961014,0,
00:02.5,-0.000492096,-0.002620697,0.004972458,0,
00:02.5,-0.000434875,-0.002632141,0.00494957,0,
00:02.5,-0.000434875,-0.002609253,0.00494957,0,
00:02.5,-0.000457764,-0.002586365,0.004972458,0,
00:02.5,-0.000463486,-0.002620697,0.004943848,0,
00:02.5,-0.00047493,-0.002632141,0.00494957,0,
00:02.5,-0.000480652,-0.002626419,0.004955292,0,
00:02.5,-0.00044632,-0.002620697,0.004983902,0,
00:02.5,-0.000509262,-0.002620697,0.004955292,0,
00:02.5,-0.000492096,-0.002620697,0.004972458,0,
00:02.5,-0.000457764,-0.002603531,0.004943848,0,
00:02.5,-0.00047493,-0.002620697,0.004972458,0,
00:02.5,-0.000492096,-0.002609253,0.004966736,0,
00:02.5,-0.00050354,-0.002614975,0.00494957,0,
00:02.5,-0.000429153,-0.002626419,0.004943848,0,
00:02.5,-0.000440598,-0.002620697,0.00494957,0,
00:02.5,-0.00044632,-0.002609253,0.004961014,0,
00:02.5,-0.00047493,-0.002592087,0.004966736,0,
00:02.5,-0.000469208,-0.002609253,0.004955292,0,
00:02.5,-0.000434875,-0.002614975,0.004920959,0,
00:02.5,-0.000406265,-0.002603531,0.004915237,0,
00:02.5,-0.000469208,-0.002592087,0.004955292,0,
00:02.5,-0.000452042,-0.002580643,0.004983902,0,
00:02.6,-0.000452042,-0.002620697,0.004932404,0,
00:02.6,-0.00050354,-0.002614975,0.00497818,0,
00:02.6,-0.00047493,-0.002580643,0.00497818,0,
00:02.6,-0.000457764,-0.002620697,0.004955292,0,
00:02.6,-0.00047493,-0.002620697,0.004955292,0,
00:02.6,-0.000452042,-0.002626419,0.00494957,0,
00:02.6,-0.000486374,-0.002620697,0.004938126,0,
00:02.6,-0.000457764,-0.002592087,0.004961014,0,
00:02.6,-0.000480652,-0.002592087,0.004943848,0,
00:02.6,-0.00044632,-0.002586365,0.004915237,0,
00:02.6,-0.000463486,-0.002637863,0.004966736,0,
00:02.6,-0.000543594,-0.002637863,0.005001068,0,
00:02.6,-0.000429153,-0.002597809,0.004932404,0,
00:02.6,-0.000429153,-0.002592087,0.004955292,0,
00:02.6,-0.000434875,-0.002592087,0.004943848,0,
00:02.6,-0.000417709,-0.002580643,0.004920959,0,
00:02.6,-0.000469208,-0.002592087,0.004938126,0,
00:02.6,-0.00047493,-0.002632141,0.00497818,0,
00:02.6,-0.00047493,-0.002597809,0.004961014,0,
00:02.6,-0.00047493,-0.002586365,0.00494957,0,
00:02.6,-0.000469208,-0.002597809,0.004955292,0,
00:02.6,-0.000480652,-0.002609253,0.004961014,0,
00:02.6,-0.000463486,-0.002597809,0.004932404,0,
00:02.6,-0.00047493,-0.002614975,0.004915237,0,
00:02.6,-0.000457764,-0.002620697,0.004961014,0,
00:02.7,-0.000440598,-0.002597809,0.004966736,0,
00:02.7,-0.000411987,-0.002574921,0.004961014,0,
00:02.7,-0.000417709,-0.002603531,0.00494957,0,
00:02.7,-0.000480652,-0.002620697,0.004920959,0,
00:02.7,-0.00053215,-0.002586365,0.004909515,0,
00:02.7,-0.000440598,-0.002586365,0.004943848,0,
00:02.7,-0.00044632,-0.002569199,0.004955292,0,
00:02.7,-0.000469208,-0.002569199,0.004938126,0,
00:02.7,-0.000469208,-0.002592087,0.004961014,0,
00:02.7,-0.00053215,-0.002643585,0.004989624,0,
00:02.7,-0.000497818,-0.002614975,0.004955292,0,
00:02.7,-0.000423431,-0.002586365,0.004943848,0,
00:02.7,-0.000440598,-0.002592087,0.00494957,0,
00:02.7,-0.000429153,-0.002580643,0.00494957,0,
00:02.7,-0.000434875,-0.002586365,0.004938126,0,
00:02.7,-0.00047493,-0.002597809,0.004915237,0,
00:02.7,-0.000417709,-0.002580643,0.004943848,0,
00:02.7,-0.000440598,-0.002592087,0.004961014,0,
00:02.7,-0.00044632,-0.002574921,0.004943848,0,
00:02.7,-0.000417709,-0.002609253,0.004955292,0,
00:02.7,-0.00044632,-0.002609253,0.00494957,0,
00:02.7,-0.000480652,-0.002592087,0.004909515,0,
00:02.7,-0.000457764,-0.002569199,0.004915237,0,
00:02.7,-0.000452042,-0.002586365,0.004932404,0,
00:02.7,-0.00050354,-0.002609253,0.004989624,0,
00:02.8,-0.000486374,-0.002614975,0.004938126,0,
00:02.8,-0.000486374,-0.002586365,0.004903793,0,
00:02.8,-0.00050354,-0.002592087,0.004966736,0,
00:02.8,-0.000440598,-0.002592087,0.00494957,0,
00:02.8,-0.000440598,-0.002597809,0.004938126,0,
00:02.8,-0.000434875,-0.002580643,0.004938126,0,
00:02.8,-0.000411987,-0.002592087,0.004955292,0,
00:02.8,-0.000520706,-0.002586365,0.004961014,0,
00:02.8,-0.000480652,-0.002563477,0.004955292,0,
00:02.8,-0.00044632,-0.002609253,0.004892349,0,
00:02.8,-0.000429153,-0.002597809,0.004943848,0,
00:02.8,-0.000457764,-0.002620697,0.004966736,0,
00:02.8,-0.000497818,-0.002574921,0.004920959,0,
00:02.8,-0.000463486,-0.002557755,0.004909515,0,
00:02.8,-0.000406265,-0.002580643,0.004915237,0,
00:02.8,-0.000411987,-0.002574921,0.004926682,0,
00:02.8,-0.000457764,-0.002563477,0.004932404,0,
00:02.8,-0.000480652,-0.002580643,0.004961014,0,
00:02.8,-0.000492096,-0.002609253,0.004955292,0,
00:02.8,-0.000486374,-0.002603531,0.004955292,0,
00:02.8,-0.000434875,-0.002597809,0.004926682,0,
00:02.8,-0.00044632,-0.002586365,0.004915237,0,
00:02.8,-0.000486374,-0.002586365,0.004955292,0,
00:02.8,-0.000429153,-0.002597809,0.004961014,0,
00:02.8,-0.000411987,-0.002586365,0.00494957,0,
00:02.9,-0.000417709,-0.002563477,0.00494957,0,
00:02.9,-0.000452042,-0.002580643,0.004926682,0,
00:02.9,-0.000457764,-0.002569199,0.004932404,0,
00:02.9,-0.000423431,-0.002563477,0.004880905,0,
00:02.9,-0.000423431,-0.002580643,0.004909515,0,
00:02.9,-0.000429153,-0.002557755,0.004943848,0,
00:02.9,-0.000526428,-0.002597809,0.004926682,0,
00:02.9,-0.000514984,-0.002586365,0.004943848,0,
00:02.9,-0.000440598,-0.002574921,0.004920959,0,
00:02.9,-0.000423431,-0.002603531,0.004915237,0,
00:02.9,-0.000457764,-0.002592087,0.004938126,0,
00:02.9,-0.000480652,-0.002580643,0.004972458,0,
00:02.9,-0.000469208,-0.002586365,0.004955292,0,
00:02.9,-0.000429153,-0.002580643,0.004920959,0,
00:02.9,-0.000394821,-0.002563477,0.004915237,0,
00:02.9,-0.000457764,-0.002574921,0.004932404,0,
00:02.9,-0.000486374,-0.002580643,0.004966736,0,
00:02.9,-0.000457764,-0.002569199,0.004932404,0,
00:02.9,-0.000457764,-0.002580643,0.004915237,0,
00:02.9,-0.000417709,-0.002586365,0.004909515,0,
00:02.9,-0.000434875,-0.002586365,0.004943848,0,
00:02.9,-0.000452042,-0.002586365,0.004909515,0,
00:02.9,-0.000497818,-0.002557755,0.004909515,0,
00:02.9,-0.000469208,-0.002569199,0.004938126,0,
00:02.9,-0.000440598,-0.002569199,0.004966736,0,
00:03.0,-0.000463486,-0.002574921,0.00494957,0,
00:03.0,-0.000469208,-0.002592087,0.004938126,0,
00:03.0,-0.000480652,-0.002597809,0.004932404,0,
00:03.0,-0.000452042,-0.002569199,0.00494957,0,
00:03.0,-0.00050354,-0.00254631,0.004961014,0,
00:03.0,-0.000452042,-0.002557755,0.004926682,0,
00:03.0,-0.000394821,-0.002569199,0.004920959,0,
00:03.0,-0.000423431,-0.002574921,0.004920959,0,
00:03.0,-0.00044632,-0.002586365,0.004932404,0,
00:03.0,-0.000457764,-0.002580643,0.00494957,0,
00:03.0,-0.000457764,-0.002569199,0.00494957,0,
00:03.0,-0.000492096,-0.002569199,0.004926682,0,
00:00:03,-0.000417709,-0.002592087,0.004903793,0,
00:03.0,-0.000377655,-0.002580643,0.004909515,0,
00:03.0,-0.00044632,-0.002563477,0.004920959,0,
00:03.0,-0.00050354,-0.002563477,0.004920959,0,
00:03.0,-0.000411987,-0.00254631,0.004938126,0,
00:03.0,-0.000417709,-0.002563477,0.004920959,0,
00:03.0,-0.000463486,-0.002552032,0.004938126,0,
00:03.0,-0.000526428,-0.002580643,0.004955292,0,
00:03.0,-0.000469208,-0.002574921,0.004961014,0,
00:03.0,-0.000469208,-0.002592087,0.004938126,0,
00:03.0,-0.000452042,-0.002592087,0.004938126,0,
00:03.0,-0.000457764,-0.002569199,0.004926682,0,
00:03.0,-0.000389099,-0.002557755,0.004892349,0,
00:03.1,-0.000383377,-0.002569199,0.004915237,0,
00:03.1,-0.000423431,-0.002557755,0.004926682,0,
00:03.1,-0.000400543,-0.002557755,0.004926682,0,
00:03.1,-0.000383377,-0.002540588,0.004943848,0,
00:03.1,-0.000406265,-0.002569199,0.004926682,0,
00:03.1,-0.000492096,-0.002603531,0.004920959,0,
00:03.1,-0.000469208,-0.002574921,0.004915237,0,
00:03.1,-0.000423431,-0.002563477,0.004903793,0,
00:03.1,-0.000423431,-0.002552032,0.004920959,0,
00:03.1,-0.000371933,-0.002552032,0.00494957,0,
00:03.1,-0.000469208,-0.002557755,0.00494957,0,
00:03.1,-0.000509262,-0.002557755,0.004909515,0,
00:03.1,-0.000417709,-0.002569199,0.004903793,0,
00:03.1,-0.000434875,-0.002569199,0.004966736,0,
00:03.1,-0.00050354,-0.002580643,0.004932404,0,
00:03.1,-0.000509262,-0.002580643,0.004932404,0,
00:03.1,-0.000371933,-0.002534866,0.004932404,0,
00:03.1,-0.000366211,-0.002534866,0.004926682,0,
00:03.1,-0.000417709,-0.002574921,0.004920959,0,
00:03.1,-0.000452042,-0.002563477,0.004926682,0,
00:03.1,-0.000394821,-0.002563477,0.004915237,0,
00:03.1,-0.000411987,-0.002563477,0.00494957,0,
00:03.1,-0.000457764,-0.002574921,0.004943848,0,
00:03.1,-0.000400543,-0.002574921,0.004915237,0,
00:03.1,-0.000440598,-0.002609253,0.004955292,0,
00:03.2,-0.00047493,-0.00254631,0.004926682,0,
00:03.2,-0.000429153,-0.00254631,0.004886627,0,
00:03.2,-0.000434875,-0.002569199,0.004875183,0,
00:03.2,-0.000440598,-0.002580643,0.004938126,0,
00:03.2,-0.000423431,-0.002574921,0.004926682,0,
00:03.2,-0.000434875,-0.002569199,0.004938126,0,
00:03.2,-0.000452042,-0.002540588,0.004961014,0,
00:03.2,-0.00044632,-0.002569199,0.004909515,0,
00:03.2,-0.000400543,-0.002557755,0.004869461,0,
00:03.2,-0.000411987,-0.002574921,0.004932404,0,
00:03.2,-0.000411987,-0.002580643,0.00494957,0,
00:03.2,-0.000429153,-0.002557755,0.004943848,0,
00:03.2,-0.000417709,-0.002557755,0.004903793,0,
00:03.2,-0.000480652,-0.002557755,0.004898071,0,
00:03.2,-0.00050354,-0.002586365,0.004943848,0,
00:03.2,-0.000394821,-0.002574921,0.004961014,0,
00:03.2,-0.000371933,-0.002569199,0.004926682,0,
00:03.2,-0.000411987,-0.002557755,0.004926682,0,
00:03.2,-0.000429153,-0.002563477,0.004915237,0,
00:03.2,-0.000400543,-0.002563477,0.004898071,0,
00:03.2,-0.000411987,-0.002557755,0.004898071,0,
00:03.2,-0.000406265,-0.002552032,0.004886627,0,
00:03.2,-0.000417709,-0.002557755,0.00494957,0,
00:03.2,-0.000452042,-0.002574921,0.004961014,0,
00:03.2,-0.000457764,-0.002580643,0.004932404,0,
00:03.3,-0.000452042,-0.002557755,0.004915237,0,
00:03.3,-0.000429153,-0.002569199,0.004903793,0,
00:03.3,-0.000383377,-0.002563477,0.004926682,0,
00:03.3,-0.000406265,-0.002557755,0.004926682,0,
00:03.3,-0.000434875,-0.002574921,0.004926682,0,
00:03.3,-0.000429153,-0.002557755,0.004915237,0,
00:03.3,-0.000423431,-0.002574921,0.004903793,0,
00:03.3,-0.000452042,-0.002574921,0.004926682,0,
00:03.3,-0.000463486,-0.002597809,0.004961014,0,
00:03.3,-0.000469208,-0.002552032,0.004938126,0,
00:03.3,-0.000354767,-0.0025177,0.004909515,0,
00:03.3,-0.000366211,-0.002586365,0.004943848,0,
00:03.3,-0.000417709,-0.002580643,0.004938126,0,
00:03.3,-0.000389099,-0.002563477,0.004920959,0,
00:03.3,-0.000423431,-0.002574921,0.004926682,0,
00:03.3,-0.000497818,-0.002563477,0.004875183,0,
00:03.3,-0.000452042,-0.002552032,0.004880905,0,
00:03.3,-0.000354767,-0.002529144,0.004943848,0,
00:03.3,-0.000377655,-0.002557755,0.004943848,0,
00:03.3,-0.000406265,-0.002557755,0.004943848,0,
00:03.3,-0.000417709,-0.002563477,0.004932404,0,
00:03.3,-0.000434875,-0.002574921,0.004932404,0,
00:03.3,-0.000429153,-0.002574921,0.004903793,0,
00:03.3,-0.000440598,-0.002563477,0.004863739,0,
00:03.3,-0.000423431,-0.002563477,0.00494957,0,
00:03.4,-0.000406265,-0.002569199,0.004961014,0,
00:03.4,-0.000377655,-0.002569199,0.004938126,0,
00:03.4,-0.000406265,-0.002557755,0.004920959,0,
00:03.4,-0.000434875,-0.002569199,0.004915237,0,
00:03.4,-0.000423431,-0.002586365,0.004938126,0,
00:03.4,-0.000469208,-0.002580643,0.004898071,0,
00:03.4,-0.000400543,-0.00254631,0.004869461,0,
00:03.4,-0.000360489,-0.0025177,0.004926682,0,
00:03.4,-0.000394821,-0.00254631,0.004938126,0,
00:03.4,-0.000411987,-0.002563477,0.004926682,0,
00:03.4,-0.000440598,-0.002569199,0.004938126,0,
00:03.4,-0.000469208,-0.002569199,0.004955292,0,
00:03.4,-0.000417709,-0.002574921,0.004909515,0,
00:03.4,-0.000394821,-0.002569199,0.004915237,0,
00:03.4,-0.000394821,-0.002563477,0.004920959,0,
00:03.4,-0.000389099,-0.002557755,0.004915237,0,
00:03.4,-0.000417709,-0.002574921,0.004932404,0,
00:03.4,-0.000389099,-0.002574921,0.004915237,0,
00:03.4,-0.000411987,-0.002563477,0.004932404,0,
00:03.4,-0.000411987,-0.00254631,0.004920959,0,
00:03.4,-0.000411987,-0.002569199,0.004938126,0,
00:03.4,-0.000440598,-0.002586365,0.004926682,0,
00:03.4,-0.000463486,-0.002597809,0.004920959,0,
00:03.4,-0.000434875,-0.002563477,0.004915237,0,
00:03.4,-0.000349045,-0.002557755,0.004920959,0,
00:03.5,-0.000389099,-0.002563477,0.004892349,0,
00:03.5,-0.000394821,-0.002534866,0.004880905,0,
00:03.5,-0.000411987,-0.002557755,0.004955292,0,
00:03.5,-0.000411987,-0.002580643,0.00494957,0,
00:03.5,-0.000417709,-0.002603531,0.004955292,0,
00:03.5,-0.000394821,-0.002597809,0.004943848,0,
00:03.5,-0.000371933,-0.00254631,0.004915237,0,
00:03.5,-0.000383377,-0.00254631,0.004920959,0,
00:03.5,-0.000406265,-0.002552032,0.004926682,0,
00:03.5,-0.000389099,-0.002580643,0.004926682,0,
00:03.5,-0.000469208,-0.002603531,0.004966736,0,
00:03.5,-0.000463486,-0.002574921,0.00494957,0,
00:03.5,-0.000400543,-0.002563477,0.004926682,0,
00:03.5,-0.000366211,-0.002569199,0.004932404,0,
00:03.5,-0.000349045,-0.002569199,0.004920959,0,
00:03.5,-0.000400543,-0.002569199,0.004932404,0,
00:03.5,-0.000452042,-0.002580643,0.004938126,0,
00:03.5,-0.000463486,-0.002586365,0.004909515,0,
00:03.5,-0.000411987,-0.002552032,0.004898071,0,
00:03.5,-0.000383377,-0.002563477,0.004955292,0,
00:03.5,-0.000389099,-0.002586365,0.004955292,0,
00:03.5,-0.000371933,-0.002574921,0.00494957,0,
00:03.5,-0.000394821,-0.002569199,0.004920959,0,
00:03.5,-0.000469208,-0.002580643,0.004943848,0,
00:03.5,-0.000429153,-0.002586365,0.004966736,0,
00:03.6,-0.000371933,-0.002580643,0.00494957,0,
00:03.6,-0.000383377,-0.002574921,0.00494957,0,
00:03.6,-0.000389099,-0.002574921,0.004926682,0,
00:03.6,-0.000383377,-0.002569199,0.004932404,0,
00:03.6,-0.000383377,-0.002574921,0.004972458,0,
00:03.6,-0.000400543,-0.002534866,0.004961014,0,
00:03.6,-0.000400543,-0.002523422,0.004938126,0,
00:03.6,-0.000411987,-0.002557755,0.004920959,0,
00:03.6,-0.000417709,-0.002597809,0.004920959,0,
00:03.6,-0.000434875,-0.002574921,0.004955292,0,
00:03.6,-0.000411987,-0.002574921,0.004943848,0,
00:03.6,-0.000383377,-0.002580643,0.004915237,0,
00:03.6,-0.000389099,-0.002569199,0.004915237,0,
00:03.6,-0.000354767,-0.002557755,0.004943848,0,
00:03.6,-0.000429153,-0.002563477,0.004955292,0,
00:03.6,-0.000440598,-0.002580643,0.004955292,0,
00:03.6,-0.000377655,-0.002574921,0.004943848,0,
00:03.6,-0.000394821,-0.002563477,0.004938126,0,
00:03.6,-0.000429153,-0.002569199,0.004932404,0,
00:03.6,-0.000411987,-0.002574921,0.004966736,0,
00:03.6,-0.000371933,-0.002557755,0.004966736,0,
00:03.6,-0.000291824,-0.00254631,0.004926682,0,
00:03.6,-0.000349045,-0.002552032,0.004915237,0,
00:03.6,-0.000429153,-0.002603531,0.00497818,0,
00:03.6,-0.00047493,-0.002586365,0.00497818,0,
00:03.7,-0.000411987,-0.002534866,0.004932404,0,
00:03.7,-0.000406265,-0.00254631,0.004932404,0,
00:03.7,-0.000423431,-0.002563477,0.00494957,0,
00:03.7,-0.000406265,-0.002574921,0.00494957,0,
00:03.7,-0.000371933,-0.002563477,0.004932404,0,
00:03.7,-0.000371933,-0.002557755,0.004938126,0,
00:03.7,-0.000411987,-0.002563477,0.00494957,0,
00:03.7,-0.000423431,-0.002563477,0.00494957,0,
00:03.7,-0.000423431,-0.002563477,0.004961014,0,
00:03.7,-0.000400543,-0.002534866,0.004920959,0,
00:03.7,-0.000360489,-0.002534866,0.004898071,0,
00:03.7,-0.000377655,-0.002597809,0.004972458,0,
00:03.7,-0.000394821,-0.002597809,0.004989624,0,
00:03.7,-0.000423431,-0.002574921,0.00494957,0,
00:03.7,-0.000389099,-0.002574921,0.004938126,0,
00:03.7,-0.000394821,-0.002540588,0.004926682,0,
00:03.7,-0.000400543,-0.002540588,0.004938126,0,
00:03.7,-0.000417709,-0.002557755,0.004955292,0,
00:03.7,-0.000377655,-0.00254631,0.004961014,0,
00:03.7,-0.000377655,-0.002534866,0.004943848,0,
00:03.7,-0.000406265,-0.002552032,0.004938126,0,
00:03.7,-0.000377655,-0.002586365,0.004909515,0,
00:03.7,-0.000394821,-0.002563477,0.004926682,0,
00:03.7,-0.000406265,-0.002557755,0.004966736,0,
00:03.7,-0.000417709,-0.002552032,0.004966736,0,
00:03.8,-0.000417709,-0.002557755,0.004938126,0,
00:03.8,-0.000417709,-0.002586365,0.004898071,0,
00:03.8,-0.000394821,-0.002569199,0.004932404,0,
00:03.8,-0.000417709,-0.002569199,0.00497818,0,
00:03.8,-0.000389099,-0.002569199,0.004972458,0,
00:03.8,-0.000377655,-0.002540588,0.004943848,0,
00:03.8,-0.000389099,-0.00254631,0.004943848,0,
00:03.8,-0.000377655,-0.002569199,0.004938126,0,
00:03.8,-0.00044632,-0.002580643,0.004926682,0,
00:03.8,-0.000440598,-0.002574921,0.004972458,0,
00:03.8,-0.000394821,-0.002563477,0.004961014,0,
00:03.8,-0.000360489,-0.002529144,0.00494957,0,
00:03.8,-0.000400543,-0.00254631,0.004955292,0,
00:03.8,-0.000406265,-0.002557755,0.004932404,0,
00:03.8,-0.000371933,-0.002557755,0.004943848,0,
00:03.8,-0.000371933,-0.002563477,0.004955292,0,
00:03.8,-0.000371933,-0.002552032,0.004938126,0,
00:03.8,-0.000394821,-0.002540588,0.00494957,0,
00:03.8,-0.000377655,-0.002534866,0.004909515,0,
00:03.8,-0.000400543,-0.002557755,0.004858017,0,
00:03.8,-0.000429153,-0.002609253,0.00497818,0,
00:03.8,-0.000383377,-0.002580643,0.004995346,0,
00:03.8,-0.000406265,-0.00254631,0.004966736,0,
00:03.8,-0.000411987,-0.00254631,0.004972458,0,
00:03.8,-0.000383377,-0.002552032,0.004961014,0,
00:03.9,-0.000417709,-0.002569199,0.004961014,0,
00:03.9,-0.000389099,-0.002569199,0.004966736,0,
00:03.9,-0.000366211,-0.002557755,0.004943848,0,
00:03.9,-0.000417709,-0.002569199,0.004938126,0,
00:03.9,-0.000457764,-0.002557755,0.004961014,0,
00:03.9,-0.000429153,-0.002540588,0.004961014,0,
00:03.9,-0.000354767,-0.002563477,0.00494957,0,
00:03.9,-0.000337601,-0.00254631,0.00494957,0,
00:03.9,-0.000366211,-0.002557755,0.004966736,0,
00:03.9,-0.000394821,-0.002563477,0.004961014,0,
00:03.9,-0.000394821,-0.002552032,0.004955292,0,
00:03.9,-0.000394821,-0.002563477,0.004932404,0,
00:03.9,-0.000326157,-0.002540588,0.004909515,0,
00:03.9,-0.000383377,-0.002534866,0.00494957,0,
00:03.9,-0.000434875,-0.002557755,0.00494957,0,
00:03.9,-0.000406265,-0.002569199,0.00494957,0,
00:03.9,-0.000400543,-0.002540588,0.00497818,0,
00:03.9,-0.000417709,-0.002552032,0.004961014,0,
00:03.9,-0.000400543,-0.002563477,0.00494957,0,
00:03.9,-0.000411987,-0.002552032,0.00497818,0,
00:03.9,-0.000400543,-0.002557755,0.00497818,0,
00:03.9,-0.000411987,-0.002569199,0.004966736,0,
00:03.9,-0.000429153,-0.00254631,0.004961014,0,
00:03.9,-0.000349045,-0.002540588,0.004961014,0,
00:03.9,-0.000354767,-0.00254631,0.004961014,0,
00:04.0,-0.000417709,-0.002557755,0.004955292,0,
00:04.0,-0.000440598,-0.002563477,0.004932404,0,
00:04.0,-0.000406265,-0.002529144,0.004966736,0,
00:04.0,-0.000360489,-0.00254631,0.004943848,0,
00:04.0,-0.000326157,-0.00254631,0.004920959,0,
00:04.0,-0.000366211,-0.002563477,0.004926682,0,
00:04.0,-0.000394821,-0.002557755,0.004966736,0,
00:04.0,-0.000383377,-0.002540588,0.004938126,0,
00:04.0,-0.000383377,-0.002557755,0.004966736,0,
00:04.0,-0.000417709,-0.002563477,0.004955292,0,
00:04.0,-0.000417709,-0.002563477,0.004955292,0,
00:04.0,-0.000366211,-0.002529144,0.004943848,0,
00:00:04,-0.000371933,-0.002540588,0.004966736,0,
00:04.0,-0.000394821,-0.002580643,0.004989624,0,
00:04.0,-0.000411987,-0.002569199,0.00497818,0,
00:04.0,-0.000371933,-0.00254631,0.004972458,0,
00:04.0,-0.000366211,-0.002540588,0.004955292,0,
00:04.0,-0.000394821,-0.00254631,0.004938126,0,
00:04.0,-0.000434875,-0.002557755,0.004961014,0,
00:04.0,-0.000366211,-0.002529144,0.00497818,0,
00:04.0,-0.000314713,-0.002540588,0.004938126,0,
00:04.0,-0.000349045,-0.002534866,0.004938126,0,
00:04.0,-0.000411987,-0.00254631,0.00494957,0,
00:04.0,-0.000400543,-0.002569199,0.004966736,0,
00:04.0,-0.000371933,-0.002563477,0.004972458,0,
00:04.1,-0.000411987,-0.002557755,0.004961014,0,
00:04.1,-0.000417709,-0.002523422,0.004932404,0,
00:04.1,-0.000349045,-0.002523422,0.00497818,0,
00:04.1,-0.000394821,-0.002563477,0.004961014,0,
00:04.1,-0.000400543,-0.002563477,0.004983902,0,
00:04.1,-0.000394821,-0.002540588,0.00497818,0,
00:04.1,-0.000411987,-0.002534866,0.004966736,0,
00:04.1,-0.000366211,-0.002529144,0.004961014,0,
00:04.1,-0.000331879,-0.002500534,0.00494957,0,
00:04.1,-0.000383377,-0.002574921,0.004955292,0,
00:04.1,-0.000406265,-0.002603531,0.004966736,0,
00:04.1,-0.000371933,-0.002569199,0.00497818,0,
00:04.1,-0.000383377,-0.00254631,0.00494957,0,
00:04.1,-0.000389099,-0.002529144,0.004955292,0,
00:04.1,-0.000354767,-0.002534866,0.004961014,0,
00:04.1,-0.000337601,-0.002552032,0.004955292,0,
00:04.1,-0.000389099,-0.00254631,0.004932404,0,
00:04.1,-0.000400543,-0.002540588,0.004966736,0,
00:04.1,-0.000349045,-0.002523422,0.00494957,0,
00:04.1,-0.000400543,-0.002534866,0.004926682,0,
00:04.1,-0.000389099,-0.002534866,0.004972458,0,
00:04.1,-0.000389099,-0.002557755,0.004955292,0,
00:04.1,-0.000383377,-0.002540588,0.004972458,0,
00:04.1,-0.000411987,-0.002540588,0.004989624,0,
00:04.1,-0.000423431,-0.002529144,0.00497818,0,
00:04.2,-0.000360489,-0.002529144,0.004966736,0,
00:04.2,-0.000406265,-0.002569199,0.004966736,0,
00:04.2,-0.000354767,-0.002563477,0.004966736,0,
00:04.2,-0.000326157,-0.002523422,0.004943848,0,
00:04.2,-0.000366211,-0.00254631,0.004915237,0,
00:04.2,-0.000371933,-0.002534866,0.004966736,0,
00:04.2,-0.000394821,-0.00254631,0.004983902,0,
00:04.2,-0.000326157,-0.002540588,0.00494957,0,
00:04.2,-0.000268936,-0.002534866,0.004972458,0,
00:04.2,-0.000349045,-0.002540588,0.00494957,0,
00:04.2,-0.000457764,-0.002557755,0.004961014,0,
00:04.2,-0.000423431,-0.002540588,0.00494957,0,
00:04.2,-0.000383377,-0.002529144,0.004983902,0,
00:04.2,-0.000411987,-0.002534866,0.00497818,0,
00:04.2,-0.000343323,-0.00254631,0.004955292,0,
00:04.2,-0.000371933,-0.002540588,0.004966736,0,
00:04.2,-0.000366211,-0.002529144,0.004961014,0,
00:04.2,-0.000411987,-0.002534866,0.00494957,0,
00:04.2,-0.000343323,-0.002534866,0.00494957,0,
00:04.2,-0.000326157,-0.002529144,0.00497818,0,
00:04.2,-0.000371933,-0.002523422,0.004966736,0,
00:04.2,-0.000383377,-0.002534866,0.004961014,0,
00:04.2,-0.000411987,-0.002557755,0.004961014,0,
00:04.2,-0.000383377,-0.002557755,0.004966736,0,
00:04.2,-0.000343323,-0.002534866,0.004961014,0,
00:04.3,-0.000394821,-0.002540588,0.004955292,0,
00:04.3,-0.000354767,-0.002534866,0.004926682,0,
00:04.3,-0.000337601,-0.00254631,0.00497818,0,
00:04.3,-0.000394821,-0.002540588,0.004972458,0,
00:04.3,-0.000389099,-0.002534866,0.004938126,0,
00:04.3,-0.000417709,-0.002557755,0.004989624,0,
00:04.3,-0.000360489,-0.002540588,0.004972458,0,
00:04.3,-0.000383377,-0.002552032,0.004961014,0,
00:04.3,-0.000394821,-0.002511978,0.00494957,0,
00:04.3,-0.000349045,-0.002523422,0.004966736,0,
00:04.3,-0.000326157,-0.002534866,0.004961014,0,
00:04.3,-0.000377655,-0.002540588,0.004966736,0,
00:04.3,-0.000377655,-0.00254631,0.004972458,0,
00:04.3,-0.000360489,-0.002529144,0.004938126,0,
00:04.3,-0.000360489,-0.00254631,0.004972458,0,
00:04.3,-0.000371933,-0.002540588,0.004983902,0,
00:04.3,-0.000366211,-0.002534866,0.00497818,0,
00:04.3,-0.000377655,-0.002529144,0.004966736,0,
00:04.3,-0.000360489,-0.002529144,0.004932404,0,
00:04.3,-0.000377655,-0.002540588,0.004972458,0,
00:04.3,-0.000360489,-0.002540588,0.004995346,0,
00:04.3,-0.000303268,-0.002534866,0.004961014,0,
00:04.3,-0.000366211,-0.002557755,0.004926682,0,
00:04.3,-0.000389099,-0.002540588,0.004943848,0,
00:04.3,-0.000354767,-0.002523422,0.004995346,0,
00:04.4,-0.000377655,-0.0025177,0.004989624,0,
00:04.4,-0.000394821,-0.0025177,0.004961014,0,
00:04.4,-0.000400543,-0.002534866,0.004943848,0,
00:04.4,-0.00044632,-0.00254631,0.004938126,0,
00:04.4,-0.000434875,-0.002592087,0.005001068,0,
00:04.4,-0.000371933,-0.002574921,0.005023956,0,
00:04.4,-0.000314713,-0.002534866,0.00497818,0,
00:04.4,-0.000320435,-0.002540588,0.004983902,0,
00:04.4,-0.000383377,-0.002534866,0.004995346,0,
00:04.4,-0.000337601,-0.002534866,0.00497818,0,
00:04.4,-0.000349045,-0.002523422,0.004943848,0,
00:04.4,-0.000343323,-0.002523422,0.004955292,0,
00:04.4,-0.000360489,-0.002540588,0.00497818,0,
00:04.4,-0.000343323,-0.00254631,0.00497818,0,
00:04.4,-0.000320435,-0.002540588,0.00494957,0,
00:04.4,-0.000360489,-0.002511978,0.00494957,0,
00:04.4,-0.000389099,-0.002563477,0.004983902,0,
00:04.4,-0.000366211,-0.002540588,0.004983902,0,
00:04.4,-0.000331879,-0.002529144,0.004995346,0,
00:04.4,-0.000303268,-0.002540588,0.004938126,0,
00:04.4,-0.000377655,-0.002534866,0.004972458,0,
00:04.4,-0.000417709,-0.002529144,0.004995346,0,
00:04.4,-0.000389099,-0.002540588,0.004966736,0,
00:04.4,-0.000371933,-0.002563477,0.004995346,0,
00:04.4,-0.000389099,-0.002529144,0.004989624,0,
00:04.5,-0.000417709,-0.002511978,0.004983902,0,
00:04.5,-0.000320435,-0.002523422,0.004995346,0,
00:04.5,-0.000314713,-0.002529144,0.004972458,0,
00:04.5,-0.000343323,-0.002534866,0.004972458,0,
00:04.5,-0.000371933,-0.002540588,0.004983902,0,
00:04.5,-0.000389099,-0.002552032,0.004995346,0,
00:04.5,-0.000343323,-0.002529144,0.004983902,0,
00:04.5,-0.000343323,-0.002523422,0.00497818,0,
00:04.5,-0.000371933,-0.002529144,0.00497818,0,
00:04.5,-0.00028038,-0.002534866,0.004966736,0,
00:04.5,-0.000240326,-0.002529144,0.004989624,0,
00:04.5,-0.000349045,-0.002500534,0.00497818,0,
00:04.5,-0.000377655,-0.002523422,0.004932404,0,
00:04.5,-0.000383377,-0.002523422,0.005012512,0,
00:04.5,-0.000343323,-0.002523422,0.005012512,0,
00:04.5,-0.000326157,-0.002523422,0.00500679,0,
00:04.5,-0.000349045,-0.002523422,0.004995346,0,
00:04.5,-0.000360489,-0.002523422,0.005018234,0,
00:04.5,-0.000394821,-0.002540588,0.00500679,0,
00:04.5,-0.000366211,-0.002540588,0.004989624,0,
00:04.5,-0.000314713,-0.002529144,0.00500679,0,
00:04.5,-0.000366211,-0.002540588,0.004995346,0,
00:04.5,-0.000337601,-0.002540588,0.005012512,0,
00:04.5,-0.000320435,-0.002534866,0.004983902,0,
00:04.5,-0.000320435,-0.002529144,0.004955292,0,
00:04.6,-0.000354767,-0.0025177,0.004989624,0,
00:04.6,-0.000366211,-0.002511978,0.00500679,0,
00:04.6,-0.000406265,-0.00254631,0.00500679,0,
00:04.6,-0.000377655,-0.002552032,0.004989624,0,
00:04.6,-0.000297546,-0.002529144,0.004983902,0,
00:04.6,-0.00028038,-0.002506256,0.004983902,0,
00:04.6,-0.000274658,-0.002506256,0.004966736,0,
00:04.6,-0.000303268,-0.002540588,0.004961014,0,
00:04.6,-0.000354767,-0.00254631,0.005012512,0,
00:04.6,-0.000377655,-0.002534866,0.005012512,0,
00:04.6,-0.000371933,-0.002534866,0.004995346,0,
00:04.6,-0.000354767,-0.002534866,0.004995346,0,
00:04.6,-0.000349045,-0.002534866,0.004989624,0,
00:04.6,-0.000343323,-0.002523422,0.00497818,0,
00:04.6,-0.000343323,-0.002506256,0.005001068,0,
00:04.6,-0.000286102,-0.002500534,0.00494957,0,
00:04.6,-0.000320435,-0.002511978,0.004961014,0,
00:04.6,-0.000383377,-0.002534866,0.005012512,0,
00:04.6,-0.000343323,-0.00254631,0.00500679,0,
00:04.6,-0.000349045,-0.0025177,0.00497818,0,
00:04.6,-0.000337601,-0.002494812,0.00497818,0,
00:04.6,-0.000354767,-0.002511978,0.005001068,0,
00:04.6,-0.000411987,-0.002552032,0.005001068,0,
00:04.6,-0.00028038,-0.002529144,0.004961014,0,
00:04.6,-0.000268936,-0.0025177,0.004943848,0,
00:04.7,-0.000326157,-0.00254631,0.004966736,0,
00:04.7,-0.000331879,-0.002540588,0.005001068,0,
00:04.7,-0.000331879,-0.002529144,0.00500679,0,
00:04.7,-0.000337601,-0.002523422,0.004989624,0,
00:04.7,-0.000337601,-0.0025177,0.004983902,0,
00:04.7,-0.000337601,-0.00254631,0.004983902,0,
00:04.7,-0.000297546,-0.002523422,0.004989624,0,
00:04.7,-0.000286102,-0.002529144,0.004972458,0,
00:04.7,-0.000320435,-0.002534866,0.004961014,0,
00:04.7,-0.000377655,-0.002540588,0.005001068,0,
00:04.7,-0.000349045,-0.0025177,0.005023956,0,
00:04.7,-0.000383377,-0.0025177,0.004989624,0,
00:04.7,-0.000354767,-0.002534866,0.004955292,0,
00:04.7,-0.000360489,-0.002540588,0.004955292,0,
00:04.7,-0.000354767,-0.002529144,0.00494957,0,
00:04.7,-0.000331879,-0.002552032,0.004989624,0,
00:04.7,-0.000326157,-0.00254631,0.00500679,0,
00:04.7,-0.00030899,-0.002523422,0.00497818,0,
00:04.7,-0.000303268,-0.002529144,0.004966736,0,
00:04.7,-0.000274658,-0.002534866,0.004972458,0,
00:04.7,-0.000331879,-0.0025177,0.004961014,0,
00:04.7,-0.000343323,-0.002500534,0.00497818,0,
00:04.7,-0.000320435,-0.002500534,0.004989624,0,
00:04.7,-0.000326157,-0.002534866,0.00497818,0,
00:04.7,-0.000314713,-0.002540588,0.00497818,0,
00:04.8,-0.000354767,-0.002563477,0.004989624,0,
00:04.8,-0.000366211,-0.002523422,0.004961014,0,
00:04.8,-0.000377655,-0.0025177,0.00494957,0,
00:04.8,-0.000360489,-0.002529144,0.004983902,0,
00:04.8,-0.000303268,-0.002523422,0.004989624,0,
00:04.8,-0.000349045,-0.002529144,0.004972458,0,
00:04.8,-0.000337601,-0.002534866,0.004966736,0,
00:04.8,-0.000337601,-0.002534866,0.004983902,0,
00:04.8,-0.000360489,-0.00254631,0.00497818,0,
00:04.8,-0.000314713,-0.002540588,0.004989624,0,
00:04.8,-0.00030899,-0.002523422,0.004961014,0,
00:04.8,-0.000360489,-0.002534866,0.004972458,0,
00:04.8,-0.000337601,-0.0025177,0.004966736,0,
00:04.8,-0.000331879,-0.002534866,0.004961014,0,
00:04.8,-0.000377655,-0.002540588,0.00497818,0,
00:04.8,-0.000297546,-0.002506256,0.004955292,0,
00:04.8,-0.000320435,-0.002523422,0.00494957,0,
00:04.8,-0.000371933,-0.002552032,0.00497818,0,
00:04.8,-0.000360489,-0.00254631,0.004983902,0,
00:04.8,-0.000331879,-0.002529144,0.004938126,0,
00:04.8,-0.000337601,-0.002523422,0.00497818,0,
00:04.8,-0.000343323,-0.002523422,0.005001068,0,
00:04.8,-0.000366211,-0.002523422,0.004989624,0,
00:04.8,-0.000343323,-0.002529144,0.00497818,0,
00:04.8,-0.000366211,-0.0025177,0.004972458,0,
00:04.9,-0.000354767,-0.002534866,0.004966736,0,
00:04.9,-0.000326157,-0.002540588,0.00497818,0,
00:04.9,-0.000349045,-0.002529144,0.004972458,0,
00:04.9,-0.000349045,-0.002534866,0.00497818,0,
00:04.9,-0.000349045,-0.002529144,0.004983902,0,
00:04.9,-0.000349045,-0.002534866,0.004972458,0,
00:04.9,-0.000366211,-0.002529144,0.004943848,0,
00:04.9,-0.000343323,-0.002511978,0.004943848,0,
00:04.9,-0.000326157,-0.002529144,0.004955292,0,
00:04.9,-0.000343323,-0.002552032,0.00497818,0,
00:04.9,-0.000331879,-0.002523422,0.004938126,0,
00:04.9,-0.000337601,-0.002511978,0.004932404,0,
00:04.9,-0.000331879,-0.002506256,0.004966736,0,
00:04.9,-0.000366211,-0.002523422,0.00494957,0,
00:04.9,-0.000377655,-0.00254631,0.004938126,0,
00:04.9,-0.000331879,-0.00254631,0.004983902,0,
00:04.9,-0.000331879,-0.002534866,0.004989624,0,
00:04.9,-0.000371933,-0.002529144,0.00497818,0,
00:04.9,-0.000297546,-0.002529144,0.00497818,0,
00:04.9,-0.00030899,-0.002523422,0.004955292,0,
00:04.9,-0.000371933,-0.002529144,0.004926682,0,
00:04.9,-0.000371933,-0.002540588,0.004961014,0,
00:04.9,-0.000366211,-0.002534866,0.004966736,0,
00:04.9,-0.000331879,-0.002529144,0.004983902,0,
00:04.9,-0.000377655,-0.002506256,0.004961014,0,
00:05.0,-0.000394821,-0.002529144,0.00497818,0,
00:05.0,-0.000366211,-0.002534866,0.004989624,0,
00:05.0,-0.000394821,-0.002534866,0.004955292,0,
00:05.0,-0.000314713,-0.002534866,0.004961014,0,
00:05.0,-0.000331879,-0.002523422,0.004983902,0,
00:05.0,-0.000354767,-0.002523422,0.004966736,0,
00:05.0,-0.000349045,-0.002523422,0.004926682,0,
00:05.0,-0.000371933,-0.002494812,0.00494957,0,
00:05.0,-0.000406265,-0.002523422,0.004955292,0,
00:05.0,-0.000349045,-0.002540588,0.004961014,0,
00:05.0,-0.000331879,-0.002534866,0.004966736,0,
00:05.0,-0.000389099,-0.002534866,0.004972458,0,
00:00:05,-0.000337601,-0.002534866,0.00494957,0,
00:05.0,-0.000331879,-0.002506256,0.004955292,0,
00:05.0,-0.000354767,-0.0025177,0.004983902,0,
00:05.0,-0.000320435,-0.002523422,0.004955292,0,
00:05.0,-0.000331879,-0.002540588,0.004955292,0,
00:05.0,-0.000377655,-0.002511978,0.004961014,0,
00:05.0,-0.000360489,-0.0025177,0.004961014,0,
00:05.0,-0.000349045,-0.002534866,0.004961014,0,
00:05.0,-0.000389099,-0.002534866,0.004972458,0,
00:05.0,-0.000371933,-0.002511978,0.004966736,0,
00:05.0,-0.000349045,-0.002511978,0.00497818,0,
00:05.0,-0.000377655,-0.0025177,0.004966736,0,
00:05.0,-0.000400543,-0.002529144,0.004955292,0,
00:05.1,-0.000371933,-0.002523422,0.00494957,0,
00:05.1,-0.000360489,-0.002534866,0.004961014,0,
00:05.1,-0.000394821,-0.002552032,0.00494957,0,
00:05.1,-0.000331879,-0.002523422,0.004943848,0,
00:05.1,-0.000360489,-0.002511978,0.00494957,0,
00:05.1,-0.000349045,-0.0025177,0.004995346,0,
00:05.1,-0.000331879,-0.002534866,0.004972458,0,
00:05.1,-0.000331879,-0.002534866,0.004972458,0,
00:05.1,-0.000354767,-0.002534866,0.004961014,0,
00:05.1,-0.000383377,-0.002534866,0.004972458,0,
00:05.1,-0.000377655,-0.002529144,0.004966736,0,
00:05.1,-0.000366211,-0.002523422,0.004955292,0,
00:05.1,-0.000371933,-0.002529144,0.004961014,0,
00:05.1,-0.000354767,-0.002529144,0.004983902,0,
00:05.1,-0.000326157,-0.002523422,0.00497818,0,
00:05.1,-0.000331879,-0.002511978,0.00497818,0,
00:05.1,-0.000400543,-0.002500534,0.004955292,0,
00:05.1,-0.000383377,-0.002534866,0.004926682,0,
00:05.1,-0.000354767,-0.002534866,0.004943848,0,
00:05.1,-0.000377655,-0.002529144,0.004966736,0,
00:05.1,-0.000383377,-0.002529144,0.004983902,0,
00:05.1,-0.000366211,-0.002540588,0.00497818,0,
00:05.1,-0.00030899,-0.0025177,0.004966736,0,
00:05.1,-0.000349045,-0.002529144,0.004943848,0,
00:05.1,-0.000326157,-0.002506256,0.004966736,0,
00:05.2,-0.000349045,-0.002534866,0.00494957,0,
00:05.2,-0.000452042,-0.00254631,0.004972458,0,
00:05.2,-0.000383377,-0.002534866,0.004989624,0,
00:05.2,-0.000303268,-0.002529144,0.004972458,0,
00:05.2,-0.000331879,-0.002523422,0.00494957,0,
00:05.2,-0.000354767,-0.0025177,0.00494957,0,
00:05.2,-0.000371933,-0.002523422,0.004966736,0,
00:05.2,-0.000389099,-0.002529144,0.004943848,0,
00:05.2,-0.000377655,-0.002534866,0.00494957,0,
00:05.2,-0.000331879,-0.002506256,0.004966736,0,
00:05.2,-0.000360489,-0.002500534,0.004966736,0,
00:05.2,-0.000371933,-0.002540588,0.004972458,0,
00:05.2,-0.000303268,-0.0025177,0.004972458,0,
00:05.2,-0.000383377,-0.002540588,0.004966736,0,
00:05.2,-0.000417709,-0.002540588,0.004961014,0,
00:05.2,-0.000314713,-0.002511978,0.004966736,0,
00:05.2,-0.000343323,-0.002523422,0.004961014,0,
00:05.2,-0.000400543,-0.002529144,0.004943848,0,
00:05.2,-0.000354767,-0.00254631,0.00494957,0,
00:05.2,-0.000331879,-0.002540588,0.004989624,0,
00:05.2,-0.000337601,-0.002506256,0.004989624,0,
00:05.2,-0.000349045,-0.002506256,0.004989624,0,
00:05.2,-0.000360489,-0.00248909,0.004955292,0,
00:05.2,-0.000434875,-0.002534866,0.004886627,0,
00:05.2,-0.000349045,-0.002552032,0.004972458,0,
00:05.3,-0.000343323,-0.002534866,0.005001068,0,
00:05.3,-0.000349045,-0.002534866,0.004995346,0,
00:05.3,-0.000331879,-0.0025177,0.004961014,0,
00:05.3,-0.00030899,-0.00248909,0.00494957,0,
00:05.3,-0.000366211,-0.002523422,0.004972458,0,
00:05.3,-0.000389099,-0.002523422,0.004983902,0,
00:05.3,-0.000354767,-0.0025177,0.004966736,0,
00:05.3,-0.000366211,-0.002534866,0.00494957,0,
00:05.3,-0.000354767,-0.002540588,0.004972458,0,
00:05.3,-0.000349045,-0.002529144,0.004972458,0,
00:05.3,-0.000354767,-0.002511978,0.004943848,0,
00:05.3,-0.000377655,-0.002523422,0.004961014,0,
00:05.3,-0.000343323,-0.0025177,0.00497818,0,
00:05.3,-0.000331879,-0.002523422,0.004966736,0,
00:05.3,-0.000326157,-0.002511978,0.004955292,0,
00:05.3,-0.000354767,-0.0025177,0.004943848,0,
00:05.3,-0.000423431,-0.002552032,0.004961014,0,
00:05.3,-0.000389099,-0.00254631,0.004943848,0,
00:05.3,-0.000337601,-0.002500534,0.004966736,0,
00:05.3,-0.000389099,-0.002500534,0.004972458,0,
00:05.3,-0.000394821,-0.002529144,0.004972458,0,
00:05.3,-0.000291824,-0.002529144,0.004966736,0,
00:05.3,-0.000303268,-0.002529144,0.004972458,0,
00:05.3,-0.000263214,-0.0025177,0.004943848,0,
00:05.3,-0.000337601,-0.002506256,0.004955292,0,
00:05.4,-0.000423431,-0.002511978,0.00497818,0,
00:05.4,-0.000406265,-0.002534866,0.004972458,0,
00:05.4,-0.000371933,-0.002529144,0.004955292,0,
00:05.4,-0.000366211,-0.002523422,0.004961014,0,
00:05.4,-0.000326157,-0.0025177,0.00497818,0,
00:05.4,-0.000337601,-0.002506256,0.004983902,0,
00:05.4,-0.000343323,-0.0025177,0.004972458,0,
00:05.4,-0.000349045,-0.002511978,0.004972458,0,
00:05.4,-0.000349045,-0.002523422,0.004972458,0,
00:05.4,-0.000303268,-0.002506256,0.004972458,0,
00:05.4,-0.000354767,-0.00248909,0.004955292,0,
00:05.4,-0.000354767,-0.002483368,0.004920959,0,
00:05.4,-0.000349045,-0.002534866,0.004972458,0,
00:05.4,-0.000417709,-0.002534866,0.00494957,0,
00:05.4,-0.000389099,-0.002540588,0.00497818,0,
00:05.4,-0.000354767,-0.002552032,0.005029678,0,
00:05.4,-0.000337601,-0.002506256,0.00497818,0,
00:05.4,-0.000314713,-0.002506256,0.004955292,0,
00:05.4,-0.000337601,-0.002511978,0.004961014,0,
00:05.4,-0.000349045,-0.002523422,0.004972458,0,
00:05.4,-0.000331879,-0.002523422,0.004961014,0,
00:05.4,-0.000337601,-0.002500534,0.004966736,0,
00:05.4,-0.000349045,-0.002506256,0.00497818,0,
00:05.4,-0.000343323,-0.002523422,0.00497818,0,
00:05.4,-0.000326157,-0.002523422,0.00497818,0,
00:05.5,-0.000337601,-0.002494812,0.004989624,0,
00:05.5,-0.000343323,-0.002471924,0.004966736,0,
00:05.5,-0.000331879,-0.002529144,0.00494957,0,
00:05.5,-0.00030899,-0.002529144,0.004961014,0,
00:05.5,-0.000360489,-0.002523422,0.004932404,0,
00:05.5,-0.000349045,-0.002523422,0.004955292,0,
00:05.5,-0.000343323,-0.002523422,0.004983902,0,
00:05.5,-0.000371933,-0.002523422,0.004989624,0,
00:05.5,-0.000366211,-0.002529144,0.00497818,0,
00:05.5,-0.000343323,-0.002523422,0.004995346,0,
00:05.5,-0.000331879,-0.002511978,0.004995346,0,
00:05.5,-0.000417709,-0.002534866,0.004966736,0,
00:05.5,-0.000469208,-0.002534866,0.004972458,0,
00:05.5,-0.000274658,-0.002500534,0.004955292,0,
00:05.5,-0.000263214,-0.00248909,0.004972458,0,
00:05.5,-0.00030899,-0.002506256,0.004983902,0,
00:05.5,-0.000320435,-0.002483368,0.004972458,0,
00:05.5,-0.000343323,-0.002529144,0.004955292,0,
00:05.5,-0.000349045,-0.002529144,0.004966736,0,
00:05.5,-0.000331879,-0.002506256,0.004966736,0,
00:05.5,-0.00030899,-0.002506256,0.00497818,0,
00:05.5,-0.000320435,-0.002506256,0.00497818,0,
00:05.5,-0.000349045,-0.0025177,0.004983902,0,
00:05.5,-0.000349045,-0.002506256,0.004983902,0,
00:05.5,-0.000331879,-0.002523422,0.004915237,0,
00:05.6,-0.000354767,-0.0025177,0.004966736,0,
00:05.6,-0.000366211,-0.002506256,0.005001068,0,
00:05.6,-0.000360489,-0.002540588,0.004989624,0,
00:05.6,-0.000343323,-0.002529144,0.004995346,0,
00:05.6,-0.000331879,-0.002506256,0.004972458,0,
00:05.6,-0.000360489,-0.002511978,0.00497818,0,
00:05.6,-0.000440598,-0.002500534,0.004966736,0,
00:05.6,-0.000366211,-0.002494812,0.004966736,0,
00:05.6,-0.000314713,-0.002506256,0.004961014,0,
00:05.6,-0.000343323,-0.002529144,0.004995346,0,
00:05.6,-0.000326157,-0.0025177,0.004995346,0,
00:05.6,-0.000337601,-0.002494812,0.004955292,0,
00:05.6,-0.000343323,-0.002511978,0.004961014,0,
00:05.6,-0.000354767,-0.002529144,0.004983902,0,
00:05.6,-0.000331879,-0.002529144,0.004972458,0,
00:05.6,-0.00030899,-0.002523422,0.004983902,0,
00:05.6,-0.00030899,-0.0025177,0.004966736,0,
00:05.6,-0.000349045,-0.002511978,0.004920959,0,
00:05.6,-0.000314713,-0.002511978,0.004915237,0,
00:05.6,-0.000326157,-0.00248909,0.00500679,0,
00:05.6,-0.000343323,-0.00248909,0.005012512,0,
00:05.6,-0.000343323,-0.002529144,0.004989624,0,
00:05.6,-0.000366211,-0.002540588,0.00497818,0,
00:05.6,-0.000337601,-0.002500534,0.004972458,0,
00:05.6,-0.000337601,-0.002511978,0.004983902,0,
00:05.7,-0.000337601,-0.002523422,0.004961014,0,
00:05.7,-0.000314713,-0.0025177,0.00494957,0,
00:05.7,-0.000366211,-0.002494812,0.00494957,0,
00:05.7,-0.000383377,-0.002523422,0.004989624,0,
00:05.7,-0.000383377,-0.002506256,0.004989624,0,
00:05.7,-0.000371933,-0.002506256,0.004972458,0,
00:05.7,-0.000337601,-0.0025177,0.004966736,0,
00:05.7,-0.000366211,-0.0025177,0.004966736,0,
00:05.7,-0.000383377,-0.002506256,0.004972458,0,
00:05.7,-0.000240326,-0.002506256,0.004966736,0,
00:05.7,-0.000246048,-0.002500534,0.004961014,0,
00:05.7,-0.000343323,-0.002506256,0.004938126,0,
00:05.7,-0.000326157,-0.0025177,0.004932404,0,
00:05.7,-0.00030899,-0.002523422,0.004966736,0,
00:05.7,-0.000331879,-0.002494812,0.004983902,0,
00:05.7,-0.000354767,-0.002494812,0.005012512,0,
00:05.7,-0.000360489,-0.002529144,0.004995346,0,
00:05.7,-0.000349045,-0.0025177,0.004961014,0,
00:05.7,-0.000366211,-0.0025177,0.004983902,0,
00:05.7,-0.000331879,-0.0025177,0.00497818,0,
00:05.7,-0.000331879,-0.0025177,0.004972458,0,
00:05.7,-0.000320435,-0.002500534,0.004966736,0,
00:05.7,-0.000354767,-0.002511978,0.004966736,0,
00:05.7,-0.000349045,-0.002506256,0.00494957,0,
00:05.7,-0.000371933,-0.002511978,0.004966736,0,
00:05.8,-0.000377655,-0.002506256,0.004995346,0,
00:05.8,-0.000314713,-0.00246048,0.004972458,0,
00:05.8,-0.000286102,-0.002477646,0.004926682,0,
00:05.8,-0.000371933,-0.002529144,0.004943848,0,
00:05.8,-0.000354767,-0.002523422,0.004972458,0,
00:05.8,-0.000360489,-0.002534866,0.005001068,0,
00:05.8,-0.000371933,-0.002511978,0.004989624,0,
00:05.8,-0.000366211,-0.0025177,0.004972458,0,
00:05.8,-0.00030899,-0.002511978,0.00494957,0,
00:05.8,-0.000326157,-0.002500534,0.00497818,0,
00:05.8,-0.000326157,-0.002500534,0.00497818,0,
00:05.8,-0.000326157,-0.002500534,0.004972458,0,
00:05.8,-0.000331879,-0.002511978,0.004972458,0,
00:05.8,-0.000274658,-0.002511978,0.00497818,0,
00:05.8,-0.000337601,-0.0025177,0.004955292,0,
00:05.8,-0.000406265,-0.002500534,0.004932404,0,
00:05.8,-0.000337601,-0.002477646,0.004943848,0,
00:05.8,-0.00030899,-0.002466202,0.004955292,0,
00:05.8,-0.000343323,-0.002494812,0.004966736,0,
00:05.8,-0.000354767,-0.002511978,0.00494957,0,
00:05.8,-0.00030899,-0.002506256,0.00494957,0,
00:05.8,-0.000331879,-0.002506256,0.004943848,0,
00:05.8,-0.000377655,-0.002529144,0.004955292,0,
00:05.8,-0.000354767,-0.0025177,0.004955292,0,
00:05.8,-0.000377655,-0.002523422,0.004983902,0,
00:05.9,-0.000394821,-0.002529144,0.005001068,0,
00:05.9,-0.000366211,-0.002529144,0.004961014,0,
00:05.9,-0.000337601,-0.002511978,0.004938126,0,
00:05.9,-0.000354767,-0.002500534,0.004943848,0,
00:05.9,-0.000297546,-0.002483368,0.004961014,0,
00:05.9,-0.000274658,-0.002483368,0.004966736,0,
00:05.9,-0.000286102,-0.002500534,0.004961014,0,
00:05.9,-0.000268936,-0.002500534,0.004915237,0,
00:05.9,-0.000337601,-0.002494812,0.004926682,0,
00:05.9,-0.000366211,-0.002523422,0.00497818,0,
00:05.9,-0.000320435,-0.002506256,0.00497818,0,
00:05.9,-0.000320435,-0.002506256,0.004961014,0,
00:05.9,-0.000349045,-0.002534866,0.004938126,0,
00:05.9,-0.000337601,-0.0025177,0.004961014,0,
00:05.9,-0.000366211,-0.002500534,0.004961014,0,
00:05.9,-0.000349045,-0.002523422,0.004943848,0,
00:05.9,-0.000343323,-0.002529144,0.004932404,0,
00:05.9,-0.000354767,-0.002506256,0.004943848,0,
00:05.9,-0.000360489,-0.002500534,0.004972458,0,
00:05.9,-0.000349045,-0.002506256,0.004972458,0,
00:05.9,-0.000314713,-0.002500534,0.00494957,0,
00:05.9,-0.000314713,-0.002506256,0.00494957,0,
00:05.9,-0.000303268,-0.0025177,0.004955292,0,
00:05.9,-0.000354767,-0.0025177,0.004961014,0,
00:05.9,-0.000349045,-0.002506256,0.004938126,0,
00:06.0,-0.000360489,-0.002494812,0.004926682,0,
00:06.0,-0.000343323,-0.002471924,0.004943848,0,
00:06.0,-0.00025177,-0.002500534,0.004961014,0,
00:06.0,-0.00028038,-0.002523422,0.004926682,0,
00:06.0,-0.000389099,-0.002511978,0.004938126,0,
00:06.0,-0.000337601,-0.002506256,0.004955292,0,
00:06.0,-0.000286102,-0.002506256,0.00494957,0,
00:06.0,-0.000320435,-0.002511978,0.004932404,0,
00:06.0,-0.000343323,-0.002494812,0.004955292,0,
00:06.0,-0.000371933,-0.002500534,0.004955292,0,
00:06.0,-0.000337601,-0.00248909,0.004938126,0,
00:06.0,-0.000326157,-0.0025177,0.004972458,0,
00:00:06,-0.000331879,-0.002511978,0.004966736,0,
00:06.0,-0.000326157,-0.002506256,0.004961014,0,
00:06.0,-0.000303268,-0.002506256,0.004938126,0,
00:06.0,-0.000320435,-0.002511978,0.004955292,0,
00:06.0,-0.000349045,-0.002500534,0.004966736,0,
00:06.0,-0.000331879,-0.002500534,0.004943848,0,
00:06.0,-0.000326157,-0.002483368,0.004961014,0,
00:06.0,-0.000314713,-0.002511978,0.004972458,0,
00:06.0,-0.00030899,-0.002500534,0.004932404,0,
00:06.0,-0.000337601,-0.00248909,0.00494957,0,
00:06.0,-0.000326157,-0.002511978,0.00494957,0,
00:06.0,-0.000349045,-0.002529144,0.004955292,0,
00:06.0,-0.000303268,-0.002494812,0.004943848,0,
00:06.1,-0.000314713,-0.002471924,0.004938126,0,
00:06.1,-0.000314713,-0.002494812,0.004943848,0,
00:06.1,-0.000337601,-0.002523422,0.004961014,0,
00:06.1,-0.000354767,-0.002511978,0.004966736,0,
00:06.1,-0.000320435,-0.0025177,0.004966736,0,
00:06.1,-0.000354767,-0.002500534,0.004943848,0,
00:06.1,-0.00030899,-0.002494812,0.004972458,0,
00:06.1,-0.000274658,-0.00248909,0.004989624,0,
00:06.1,-0.000326157,-0.00248909,0.00494957,0,
00:06.1,-0.000343323,-0.002483368,0.004926682,0,
00:06.1,-0.000326157,-0.00248909,0.004938126,0,
00:06.1,-0.00028038,-0.002506256,0.004972458,0,
00:06.1,-0.000326157,-0.002529144,0.004961014,0,
00:06.1,-0.000343323,-0.002506256,0.004989624,0,
00:06.1,-0.000314713,-0.00248909,0.004972458,0,
00:06.1,-0.000314713,-0.002483368,0.004961014,0,
00:06.1,-0.000303268,-0.002483368,0.004955292,0,
00:06.1,-0.000326157,-0.002506256,0.004938126,0,
00:06.1,-0.000337601,-0.00254631,0.004966736,0,
00:06.1,-0.000320435,-0.002529144,0.004926682,0,
00:06.1,-0.000366211,-0.002511978,0.004943848,0,
00:06.1,-0.000268936,-0.002500534,0.004972458,0,
00:06.1,-0.000286102,-0.00248909,0.00494957,0,
00:06.1,-0.000314713,-0.002494812,0.004966736,0,
00:06.1,-0.000320435,-0.002483368,0.004955292,0,
00:06.2,-0.000349045,-0.002500534,0.004955292,0,
00:06.2,-0.000366211,-0.002500534,0.004989624,0,
00:06.2,-0.000314713,-0.002494812,0.00494957,0,
00:06.2,-0.000303268,-0.002506256,0.004926682,0,
00:06.2,-0.000320435,-0.0025177,0.004966736,0,
00:06.2,-0.000349045,-0.002500534,0.004972458,0,
00:06.2,-0.000320435,-0.002494812,0.004961014,0,
00:06.2,-0.000331879,-0.002500534,0.004961014,0,
00:06.2,-0.000371933,-0.002477646,0.004966736,0,
00:06.2,-0.000331879,-0.002494812,0.004961014,0,
00:06.2,-0.000274658,-0.002483368,0.004926682,0,
00:06.2,-0.000303268,-0.002529144,0.004943848,0,
00:06.2,-0.000320435,-0.002523422,0.004955292,0,
00:06.2,-0.000303268,-0.002506256,0.004966736,0,
00:06.2,-0.00030899,-0.00248909,0.004961014,0,
00:06.2,-0.00028038,-0.002511978,0.004943848,0,
00:06.2,-0.000303268,-0.002500534,0.004983902,0,
00:06.2,-0.000354767,-0.002483368,0.004943848,0,
00:06.2,-0.000354767,-0.002506256,0.004932404,0,
00:06.2,-0.000337601,-0.002529144,0.00494957,0,
00:06.2,-0.000343323,-0.002500534,0.004955292,0,
00:06.2,-0.000297546,-0.002500534,0.004972458,0,
00:06.2,-0.000331879,-0.002483368,0.004961014,0,
00:06.2,-0.000366211,-0.002506256,0.004955292,0,
00:06.2,-0.000320435,-0.00248909,0.004972458,0,
00:06.3,-0.00028038,-0.002466202,0.004932404,0,
00:06.3,-0.000303268,-0.002500534,0.004926682,0,
00:06.3,-0.000314713,-0.00248909,0.004972458,0,
00:06.3,-0.00030899,-0.002500534,0.004966736,0,
00:06.3,-0.00030899,-0.00248909,0.004961014,0,
00:06.3,-0.000349045,-0.002494812,0.004938126,0,
00:06.3,-0.000331879,-0.002511978,0.004955292,0,
00:06.3,-0.000314713,-0.002511978,0.004955292,0,
00:06.3,-0.00030899,-0.002500534,0.004943848,0,
00:06.3,-0.000314713,-0.002494812,0.004966736,0,
00:06.3,-0.000314713,-0.002494812,0.004955292,0,
00:06.3,-0.000314713,-0.002511978,0.00494957,0,
00:06.3,-0.00030899,-0.002500534,0.004972458,0,
00:06.3,-0.000297546,-0.002494812,0.004955292,0,
00:06.3,-0.000354767,-0.00248909,0.004938126,0,
00:06.3,-0.000411987,-0.00248909,0.004926682,0,
00:06.3,-0.00030899,-0.00248909,0.004972458,0,
00:06.3,-0.000286102,-0.002466202,0.004961014,0,
00:06.3,-0.000349045,-0.002529144,0.004966736,0,
00:06.3,-0.000303268,-0.002506256,0.004972458,0,
00:06.3,-0.000291824,-0.002500534,0.004961014,0,
00:06.3,-0.000297546,-0.002500534,0.004955292,0,
00:06.3,-0.000314713,-0.002511978,0.004966736,0,
00:06.3,-0.00028038,-0.002494812,0.004966736,0,
00:06.3,-0.00030899,-0.002483368,0.004943848,0,
00:06.4,-0.000377655,-0.00248909,0.004938126,0,
00:06.4,-0.000349045,-0.002506256,0.004966736,0,
00:06.4,-0.000286102,-0.002511978,0.004966736,0,
00:06.4,-0.00030899,-0.002506256,0.00494957,0,
00:06.4,-0.000337601,-0.002500534,0.004932404,0,
00:06.4,-0.00028038,-0.002483368,0.004943848,0,
00:06.4,-0.000314713,-0.002494812,0.00497818,0,
00:06.4,-0.000337601,-0.002466202,0.004961014,0,
00:06.4,-0.000331879,-0.002477646,0.004926682,0,
00:06.4,-0.000331879,-0.002500534,0.004926682,0,
00:06.4,-0.000314713,-0.002506256,0.004938126,0,
00:06.4,-0.000360489,-0.002523422,0.004989624,0,
00:06.4,-0.000320435,-0.002523422,0.005001068,0,
00:06.4,-0.000286102,-0.002500534,0.004966736,0,
00:06.4,-0.000291824,-0.002483368,0.004961014,0,
00:06.4,-0.000331879,-0.002494812,0.00497818,0,
00:06.4,-0.000354767,-0.002523422,0.004943848,0,
00:06.4,-0.000291824,-0.002506256,0.004955292,0,
00:06.4,-0.00030899,-0.002523422,0.004966736,0,
00:06.4,-0.000349045,-0.002511978,0.004966736,0,
00:06.4,-0.000360489,-0.002500534,0.004943848,0,
00:06.4,-0.00030899,-0.002494812,0.004966736,0,
00:06.4,-0.000274658,-0.002449036,0.004955292,0,
00:06.4,-0.000320435,-0.002471924,0.004926682,0,
00:06.4,-0.000343323,-0.002534866,0.00494957,0,
00:06.5,-0.000331879,-0.002534866,0.00500679,0,
00:06.5,-0.000303268,-0.002494812,0.00497818,0,
00:06.5,-0.00030899,-0.002506256,0.004915237,0,
00:06.5,-0.000320435,-0.002529144,0.004938126,0,
00:06.5,-0.000343323,-0.002506256,0.00497818,0,
00:06.5,-0.000326157,-0.002506256,0.004983902,0,
00:06.5,-0.000326157,-0.002506256,0.004989624,0,
00:06.5,-0.000320435,-0.002511978,0.00497818,0,
00:06.5,-0.000303268,-0.002506256,0.00494957,0,
00:06.5,-0.000314713,-0.002529144,0.004972458,0,
00:06.5,-0.000320435,-0.002511978,0.004972458,0,
00:06.5,-0.000314713,-0.002506256,0.00494957,0,
00:06.5,-0.000337601,-0.002523422,0.004943848,0,
00:06.5,-0.000349045,-0.002523422,0.004966736,0,
00:06.5,-0.000331879,-0.002506256,0.00494957,0,
00:06.5,-0.000394821,-0.002500534,0.004955292,0,
00:06.5,-0.000337601,-0.002534866,0.004983902,0,
00:06.5,-0.000326157,-0.002552032,0.004961014,0,
00:06.5,-0.000303268,-0.0025177,0.004966736,0,
00:06.5,-0.000291824,-0.002506256,0.004966736,0,
00:06.5,-0.000320435,-0.002506256,0.004955292,0,
00:06.5,-0.00030899,-0.002511978,0.004961014,0,
00:06.5,-0.000291824,-0.002506256,0.004898071,0,
00:06.5,-0.000371933,-0.002506256,0.004903793,0,
00:06.5,-0.000349045,-0.002506256,0.004995346,0,
00:06.6,-0.000320435,-0.002506256,0.004972458,0,
00:06.6,-0.000320435,-0.0025177,0.004972458,0,
00:06.6,-0.000303268,-0.002534866,0.004972458,0,
00:06.6,-0.000297546,-0.002534866,0.004983902,0,
00:06.6,-0.000320435,-0.002523422,0.004966736,0,
00:06.6,-0.000291824,-0.0025177,0.00497818,0,
00:06.6,-0.000291824,-0.002511978,0.00494957,0,
00:06.6,-0.000320435,-0.002511978,0.004943848,0,
00:06.6,-0.000343323,-0.002552032,0.004955292,0,
00:06.6,-0.000343323,-0.00254631,0.004943848,0,
00:06.6,-0.000303268,-0.002523422,0.004983902,0,
00:06.6,-0.000274658,-0.0025177,0.004989624,0,
00:06.6,-0.000343323,-0.002529144,0.004961014,0,
00:06.6,-0.000377655,-0.002540588,0.004961014,0,
00:06.6,-0.000377655,-0.002540588,0.004955292,0,
00:06.6,-0.000366211,-0.00254631,0.004966736,0,
00:06.6,-0.000331879,-0.0025177,0.004938126,0,
00:06.6,-0.000303268,-0.002511978,0.004943848,0,
00:06.6,-0.000314713,-0.002523422,0.004961014,0,
00:06.6,-0.000303268,-0.002511978,0.00497818,0,
00:06.6,-0.000349045,-0.0025177,0.004966736,0,
00:06.6,-0.000291824,-0.002523422,0.004932404,0,
00:06.6,-0.000326157,-0.002529144,0.004932404,0,
00:06.6,-0.000303268,-0.002529144,0.004955292,0,
00:06.6,-0.000246048,-0.002494812,0.00497818,0,
00:06.7,-0.00030899,-0.00254631,0.00494957,0,
00:06.7,-0.000326157,-0.002552032,0.004972458,0,
00:06.7,-0.000291824,-0.002534866,0.005001068,0,
00:06.7,-0.000331879,-0.002534866,0.004943848,0,
00:06.7,-0.000343323,-0.002534866,0.004983902,0,
00:06.7,-0.000349045,-0.00254631,0.00497818,0,
00:06.7,-0.000343323,-0.002529144,0.004966736,0,
00:06.7,-0.000343323,-0.002523422,0.004966736,0,
00:06.7,-0.000366211,-0.002523422,0.004938126,0,
00:06.7,-0.000331879,-0.002540588,0.004966736,0,
00:06.7,-0.000326157,-0.002563477,0.00497818,0,
00:06.7,-0.000320435,-0.002529144,0.00494957,0,
00:06.7,-0.000286102,-0.002500534,0.004926682,0,
00:06.7,-0.000320435,-0.002523422,0.004938126,0,
00:06.7,-0.000320435,-0.002563477,0.004983902,0,
00:06.7,-0.00028038,-0.002563477,0.004972458,0,
00:06.7,-0.000326157,-0.002557755,0.00494957,0,
00:06.7,-0.000360489,-0.002569199,0.004989624,0,
00:06.7,-0.000377655,-0.002563477,0.004983902,0,
00:06.7,-0.000400543,-0.00254631,0.004955292,0,
00:06.7,-0.00022316,-0.002511978,0.004943848,0,
00:06.7,-0.00030899,-0.002540588,0.004972458,0,
00:06.7,-0.000349045,-0.00254631,0.00494957,0,
00:06.7,-0.000326157,-0.002523422,0.004961014,0,
00:06.7,-0.000331879,-0.002540588,0.004955292,0,
00:06.8,-0.00030899,-0.002534866,0.004972458,0,
00:06.8,-0.000314713,-0.002529144,0.004972458,0,
00:06.8,-0.000371933,-0.002552032,0.004955292,0,
00:06.8,-0.000354767,-0.002569199,0.00494957,0,
00:06.8,-0.000314713,-0.002563477,0.004938126,0,
00:06.8,-0.000326157,-0.002534866,0.004961014,0,
00:06.8,-0.000326157,-0.00254631,0.00497818,0,
00:06.8,-0.000326157,-0.00254631,0.004966736,0,
00:06.8,-0.000326157,-0.002552032,0.004955292,0,
00:06.8,-0.000343323,-0.002557755,0.004955292,0,
00:06.8,-0.000349045,-0.002534866,0.004961014,0,
00:06.8,-0.000314713,-0.002540588,0.004966736,0,
00:06.8,-0.000331879,-0.002534866,0.004961014,0,
00:06.8,-0.000349045,-0.002540588,0.004943848,0,
00:06.8,-0.000326157,-0.002563477,0.00494957,0,
00:06.8,-0.000377655,-0.002569199,0.004961014,0,
00:06.8,-0.000383377,-0.002563477,0.00497818,0,
00:06.8,-0.000349045,-0.00254631,0.004961014,0,
00:06.8,-0.000337601,-0.002540588,0.004955292,0,
00:06.8,-0.000268936,-0.00254631,0.004920959,0,
00:06.8,-0.000343323,-0.002563477,0.004983902,0,
00:06.8,-0.000360489,-0.002540588,0.004995346,0,
00:06.8,-0.000411987,-0.002563477,0.00494957,0,
00:06.8,-0.000274658,-0.002552032,0.004943848,0,
00:06.8,-0.000291824,-0.002529144,0.004955292,0,
00:06.9,-0.000360489,-0.002540588,0.004961014,0,
00:06.9,-0.000349045,-0.002580643,0.004995346,0,
00:06.9,-0.000320435,-0.002557755,0.004989624,0,
00:06.9,-0.000320435,-0.00254631,0.004972458,0,
00:06.9,-0.000360489,-0.00254631,0.004966736,0,
00:06.9,-0.000354767,-0.002563477,0.004983902,0,
00:06.9,-0.000354767,-0.002563477,0.004983902,0,
00:06.9,-0.000366211,-0.002569199,0.00497818,0,
00:06.9,-0.000349045,-0.002563477,0.004983902,0,
00:06.9,-0.000303268,-0.002563477,0.004972458,0,
00:06.9,-0.000343323,-0.002563477,0.00497818,0,
00:06.9,-0.000371933,-0.002563477,0.004972458,0,
00:06.9,-0.000326157,-0.002563477,0.004983902,0,
00:06.9,-0.000297546,-0.002563477,0.00497818,0,
00:06.9,-0.000383377,-0.002574921,0.004961014,0,
00:06.9,-0.000394821,-0.002552032,0.004983902,0,
00:06.9,-0.000360489,-0.002557755,0.004983902,0,
00:06.9,-0.000383377,-0.002580643,0.00497818,0,
00:06.9,-0.000400543,-0.002597809,0.004983902,0,
00:06.9,-0.000411987,-0.002592087,0.004972458,0,
00:06.9,-0.000411987,-0.00254631,0.004943848,0,
00:06.9,-0.000303268,-0.002569199,0.004983902,0,
00:06.9,-0.00030899,-0.002569199,0.004966736,0,
00:06.9,-0.000337601,-0.002552032,0.004972458,0,
00:06.9,-0.000354767,-0.002580643,0.004995346,0,
00:07.0,-0.000354767,-0.002586365,0.004972458,0,
00:07.0,-0.00030899,-0.002534866,0.004938126,0,
00:07.0,-0.000297546,-0.002540588,0.004932404,0,
00:07.0,-0.000343323,-0.002574921,0.004966736,0,
00:07.0,-0.000400543,-0.002597809,0.00500679,0,
00:07.0,-0.000394821,-0.002586365,0.004983902,0,
00:07.0,-0.000326157,-0.002557755,0.004955292,0,
00:07.0,-0.000360489,-0.002569199,0.004961014,0,
00:07.0,-0.000400543,-0.002586365,0.004938126,0,
00:07.0,-0.000406265,-0.002563477,0.004961014,0,
00:07.0,-0.000383377,-0.002580643,0.004983902,0,
00:07.0,-0.000371933,-0.002580643,0.005012512,0,
00:00:07,-0.000377655,-0.002574921,0.00497818,0,
00:07.0,-0.000377655,-0.002586365,0.004966736,0,
00:07.0,-0.000383377,-0.002580643,0.004995346,0,
00:07.0,-0.000394821,-0.002580643,0.00497818,0,
00:07.0,-0.000360489,-0.002614975,0.004966736,0,
00:07.0,-0.000423431,-0.002597809,0.004955292,0,
00:07.0,-0.000343323,-0.002557755,0.004926682,0,
00:07.0,-0.000343323,-0.002557755,0.004938126,0,
00:07.0,-0.000389099,-0.002563477,0.00494957,0,
00:07.0,-0.000354767,-0.002563477,0.00494957,0,
00:07.0,-0.000349045,-0.002580643,0.004932404,0,
00:07.0,-0.000360489,-0.002592087,0.004955292,0,
00:07.0,-0.000360489,-0.002580643,0.004972458,0,
00:07.1,-0.000360489,-0.002580643,0.004938126,0,
00:07.1,-0.000400543,-0.002592087,0.004938126,0,
00:07.1,-0.000389099,-0.002552032,0.004966736,0,
00:07.1,-0.000406265,-0.002580643,0.004955292,0,
00:07.1,-0.000417709,-0.002597809,0.004909515,0,
00:07.1,-0.000366211,-0.002592087,0.004943848,0,
00:07.1,-0.000389099,-0.002603531,0.004983902,0,
00:07.1,-0.000394821,-0.002609253,0.004966736,0,
00:07.1,-0.000411987,-0.002597809,0.004961014,0,
00:07.1,-0.000417709,-0.002586365,0.00494957,0,
00:07.1,-0.000440598,-0.002609253,0.004961014,0,
00:07.1,-0.000360489,-0.002569199,0.00494957,0,
00:07.1,-0.000343323,-0.002574921,0.004961014,0,
00:07.1,-0.000411987,-0.002597809,0.004943848,0,
00:07.1,-0.000457764,-0.002603531,0.00494957,0,
00:07.1,-0.000343323,-0.002586365,0.004915237,0,
00:07.1,-0.000383377,-0.002603531,0.004932404,0,
00:07.1,-0.000377655,-0.002597809,0.004943848,0,
00:07.1,-0.000371933,-0.002586365,0.004955292,0,
00:07.1,-0.000383377,-0.002574921,0.004932404,0,
00:07.1,-0.000377655,-0.002563477,0.004903793,0,
00:07.1,-0.000389099,-0.002592087,0.004955292,0,
00:07.1,-0.000423431,-0.002614975,0.004961014,0,
00:07.1,-0.000423431,-0.002592087,0.004909515,0,
00:07.1,-0.000389099,-0.002580643,0.004938126,0,
00:07.2,-0.000389099,-0.002597809,0.004955292,0,
00:07.2,-0.000366211,-0.002586365,0.004966736,0,
00:07.2,-0.000394821,-0.002592087,0.004932404,0,
00:07.2,-0.000423431,-0.002609253,0.00494957,0,
00:07.2,-0.000463486,-0.002614975,0.00494957,0,
00:07.2,-0.000486374,-0.002637863,0.004955292,0,
00:07.2,-0.000411987,-0.002620697,0.00494957,0,
00:07.2,-0.000371933,-0.002580643,0.004915237,0,
00:07.2,-0.000314713,-0.002586365,0.004926682,0,
00:07.2,-0.000331879,-0.002574921,0.004920959,0,
00:07.2,-0.000383377,-0.002603531,0.004926682,0,
00:07.2,-0.000463486,-0.002609253,0.004869461,0,
00:07.2,-0.00044632,-0.002586365,0.004920959,0,
00:07.2,-0.000394821,-0.002580643,0.004972458,0,
00:07.2,-0.000349045,-0.002580643,0.004995346,0,
00:07.2,-0.000354767,-0.002614975,0.00494957,0,
00:07.2,-0.000383377,-0.002609253,0.00494957,0,
00:07.2,-0.000400543,-0.002592087,0.004926682,0,
00:07.2,-0.000411987,-0.002592087,0.004938126,0,
00:07.2,-0.000434875,-0.002632141,0.004961014,0,
00:07.2,-0.000440598,-0.002620697,0.004955292,0,
00:07.2,-0.000400543,-0.002603531,0.004938126,0,
00:07.2,-0.000400543,-0.002609253,0.004920959,0,
00:07.2,-0.000400543,-0.002609253,0.004932404,0,
00:07.2,-0.000463486,-0.002609253,0.00494957,0,
00:07.3,-0.000452042,-0.002603531,0.004943848,0,
00:07.3,-0.000377655,-0.002586365,0.004938126,0,
00:07.3,-0.000417709,-0.002603531,0.004938126,0,
00:07.3,-0.000423431,-0.002609253,0.004938126,0,
00:07.3,-0.000417709,-0.002597809,0.004961014,0,
00:07.3,-0.000411987,-0.002592087,0.004920959,0,
00:07.3,-0.000411987,-0.002580643,0.004880905,0,
00:07.3,-0.000400543,-0.002614975,0.004983902,0,
00:07.3,-0.000383377,-0.002620697,0.004938126,0,
00:07.3,-0.000411987,-0.002620697,0.004932404,0,
00:07.3,-0.000417709,-0.002626419,0.004955292,0,
00:07.3,-0.000434875,-0.002609253,0.004938126,0,
00:07.3,-0.000423431,-0.002603531,0.004926682,0,
00:07.3,-0.000360489,-0.002592087,0.004920959,0,
00:07.3,-0.000406265,-0.002597809,0.004932404,0,
00:07.3,-0.000434875,-0.002603531,0.004920959,0,
00:07.3,-0.000440598,-0.002597809,0.004926682,0,
00:07.3,-0.000406265,-0.002609253,0.004932404,0,
00:07.3,-0.000371933,-0.002609253,0.004932404,0,
00:07.3,-0.000417709,-0.002620697,0.004915237,0,
00:07.3,-0.00044632,-0.002626419,0.004932404,0,
00:07.3,-0.000452042,-0.002580643,0.004920959,0,
00:07.3,-0.00044632,-0.002597809,0.004938126,0,
00:07.3,-0.00044632,-0.002632141,0.004972458,0,
00:07.3,-0.000400543,-0.002649307,0.004961014,0,
00:07.4,-0.000400543,-0.002620697,0.004932404,0,
00:07.4,-0.000423431,-0.002603531,0.004915237,0,
00:07.4,-0.000417709,-0.002603531,0.004961014,0,
00:07.4,-0.00050354,-0.002597809,0.004955292,0,
00:07.4,-0.000480652,-0.002603531,0.004966736,0,
00:07.4,-0.000377655,-0.002609253,0.004955292,0,
00:07.4,-0.000389099,-0.002597809,0.004938126,0,
00:07.4,-0.000423431,-0.002609253,0.004938126,0,
00:07.4,-0.000383377,-0.002609253,0.00494957,0,
00:07.4,-0.000440598,-0.002620697,0.004943848,0,
00:07.4,-0.000463486,-0.002603531,0.004932404,0,
00:07.4,-0.000423431,-0.002574921,0.004943848,0,
00:07.4,-0.000389099,-0.002603531,0.004926682,0,
00:07.4,-0.000423431,-0.002637863,0.004903793,0,
00:07.4,-0.000463486,-0.002626419,0.004961014,0,
00:07.4,-0.000440598,-0.002603531,0.004966736,0,
00:07.4,-0.000457764,-0.002614975,0.00494957,0,
00:07.4,-0.000463486,-0.002609253,0.004961014,0,
00:07.4,-0.000411987,-0.002574921,0.004943848,0,
00:07.4,-0.000429153,-0.002614975,0.004932404,0,
00:07.4,-0.000457764,-0.002626419,0.004966736,0,
00:07.4,-0.00044632,-0.002626419,0.004966736,0,
00:07.4,-0.000452042,-0.002609253,0.00494957,0,
00:07.4,-0.000406265,-0.002603531,0.004955292,0,
00:07.4,-0.000423431,-0.002603531,0.004966736,0,
00:07.5,-0.000497818,-0.002632141,0.004955292,0,
00:07.5,-0.000463486,-0.002643585,0.004961014,0,
00:07.5,-0.000497818,-0.002586365,0.004943848,0,
00:07.5,-0.000469208,-0.002597809,0.004943848,0,
00:07.5,-0.000417709,-0.002614975,0.004955292,0,
00:07.5,-0.000440598,-0.002609253,0.004943848,0,
00:07.5,-0.000360489,-0.002603531,0.00494957,0,
00:07.5,-0.000394821,-0.002620697,0.004898071,0,
00:07.5,-0.000452042,-0.002609253,0.00494957,0,
00:07.5,-0.000434875,-0.002597809,0.004995346,0,
00:07.5,-0.000434875,-0.002592087,0.004943848,0,
00:07.5,-0.000440598,-0.002626419,0.004932404,0,
00:07.5,-0.000434875,-0.002637863,0.004961014,0,
00:07.5,-0.000423431,-0.002620697,0.004955292,0,
00:07.5,-0.000417709,-0.002597809,0.00497818,0,
00:07.5,-0.000452042,-0.002614975,0.004966736,0,
00:07.5,-0.00047493,-0.002643585,0.004961014,0,
00:07.5,-0.000463486,-0.002637863,0.004961014,0,
00:07.5,-0.000434875,-0.002580643,0.004961014,0,
00:07.5,-0.000440598,-0.002586365,0.004961014,0,
00:07.5,-0.000463486,-0.002614975,0.00494957,0,
00:07.5,-0.000480652,-0.002637863,0.00494957,0,
00:07.5,-0.000486374,-0.002632141,0.004938126,0,
00:07.5,-0.00044632,-0.002620697,0.004961014,0,
00:07.5,-0.000469208,-0.002620697,0.00494957,0,
00:07.6,-0.000452042,-0.002614975,0.00494957,0,
00:07.6,-0.000429153,-0.002592087,0.004983902,0,
00:07.6,-0.000423431,-0.002597809,0.00494957,0,
00:07.6,-0.000440598,-0.002637863,0.004932404,0,
00:07.6,-0.000480652,-0.002620697,0.00494957,0,
00:07.6,-0.000486374,-0.002626419,0.004938126,0,
00:07.6,-0.00047493,-0.002614975,0.004961014,0,
00:07.6,-0.00044632,-0.002620697,0.004943848,0,
00:07.6,-0.000429153,-0.002626419,0.004938126,0,
00:07.6,-0.000411987,-0.002626419,0.004983902,0,
00:07.6,-0.00050354,-0.002626419,0.004989624,0,
00:07.6,-0.000492096,-0.002614975,0.004966736,0,
00:07.6,-0.000469208,-0.002609253,0.004955292,0,
00:07.6,-0.00047493,-0.002614975,0.004961014,0,
00:07.6,-0.000440598,-0.002614975,0.004983902,0,
00:07.6,-0.000469208,-0.002620697,0.004966736,0,
00:07.6,-0.00050354,-0.002620697,0.004955292,0,
00:07.6,-0.000497818,-0.002592087,0.004955292,0,
00:07.6,-0.000480652,-0.002597809,0.004943848,0,
00:07.6,-0.000463486,-0.002626419,0.004915237,0,
00:07.6,-0.000434875,-0.002614975,0.004972458,0,
00:07.6,-0.000434875,-0.002597809,0.004972458,0,
00:07.6,-0.000434875,-0.002586365,0.004955292,0,
00:07.6,-0.000440598,-0.002597809,0.004909515,0,
00:07.6,-0.000492096,-0.002614975,0.004932404,0,
00:07.7,-0.000480652,-0.002620697,0.004989624,0,
00:07.7,-0.000457764,-0.002626419,0.004983902,0,
00:07.7,-0.000452042,-0.002626419,0.004943848,0,
00:07.7,-0.000480652,-0.002626419,0.00497818,0,
00:07.7,-0.000486374,-0.002614975,0.004989624,0,
00:07.7,-0.000469208,-0.002620697,0.004989624,0,
00:07.7,-0.000463486,-0.002626419,0.00497818,0,
00:07.7,-0.000452042,-0.002614975,0.00494957,0,
00:07.7,-0.000434875,-0.002614975,0.004966736,0,
00:07.7,-0.00050354,-0.002586365,0.00497818,0,
00:07.7,-0.000480652,-0.002597809,0.004989624,0,
00:07.7,-0.00047493,-0.002569199,0.00494957,0,
00:07.7,-0.000566483,-0.002614975,0.004961014,0,
00:07.7,-0.000537872,-0.002660751,0.004995346,0,
00:07.7,-0.000429153,-0.002637863,0.00494957,0,
00:07.7,-0.000463486,-0.002620697,0.004943848,0,
00:07.7,-0.000463486,-0.002614975,0.00494957,0,
00:07.7,-0.000434875,-0.002609253,0.004961014,0,
00:07.7,-0.000411987,-0.002609253,0.004932404,0,
00:07.7,-0.000440598,-0.002603531,0.004943848,0,
00:07.7,-0.00047493,-0.002597809,0.004989624,0,
00:07.7,-0.000486374,-0.002620697,0.004995346,0,
00:07.7,-0.000492096,-0.002632141,0.00497818,0,
00:07.7,-0.00047493,-0.002609253,0.00497818,0,
00:07.7,-0.00050354,-0.002614975,0.00497818,0,
00:07.8,-0.000509262,-0.002620697,0.00497818,0,
00:07.8,-0.000480652,-0.002609253,0.004966736,0,
00:07.8,-0.000417709,-0.002597809,0.00494957,0,
00:07.8,-0.000434875,-0.002597809,0.00494957,0,
00:07.8,-0.000514984,-0.002603531,0.004983902,0,
00:07.8,-0.00053215,-0.002632141,0.004955292,0,
00:07.8,-0.000486374,-0.002626419,0.00494957,0,
00:07.8,-0.000463486,-0.002609253,0.004955292,0,
00:07.8,-0.000469208,-0.002569199,0.004938126,0,
00:07.8,-0.000480652,-0.002603531,0.004926682,0,
00:07.8,-0.000480652,-0.002626419,0.004938126,0,
00:07.8,-0.000480652,-0.002620697,0.004983902,0,
00:07.8,-0.000537872,-0.002637863,0.004966736,0,
00:07.8,-0.000514984,-0.002632141,0.004966736,0,
00:07.8,-0.000457764,-0.002597809,0.004966736,0,
00:07.8,-0.000429153,-0.002609253,0.004966736,0,
00:07.8,-0.00050354,-0.002637863,0.004966736,0,
00:07.8,-0.000492096,-0.002626419,0.00497818,0,
00:07.8,-0.000457764,-0.002620697,0.00497818,0,
00:07.8,-0.000469208,-0.002603531,0.004966736,0,
00:07.8,-0.000469208,-0.002597809,0.004966736,0,
00:07.8,-0.000463486,-0.002586365,0.004972458,0,
00:07.8,-0.000480652,-0.002603531,0.004966736,0,
00:07.8,-0.000509262,-0.002603531,0.00494957,0,
00:07.8,-0.000492096,-0.002620697,0.00494957,0,
00:07.9,-0.00047493,-0.002626419,0.004972458,0,
00:07.9,-0.000492096,-0.002626419,0.004955292,0,
00:07.9,-0.000469208,-0.002603531,0.004955292,0,
00:07.9,-0.000463486,-0.002580643,0.00494957,0,
00:07.9,-0.000469208,-0.002609253,0.004938126,0,
00:07.9,-0.000537872,-0.002620697,0.004955292,0,
00:07.9,-0.000555038,-0.002609253,0.00497818,0,
00:07.9,-0.000486374,-0.002614975,0.004972458,0,
00:07.9,-0.000440598,-0.002614975,0.004926682,0,
00:07.9,-0.000457764,-0.002632141,0.004932404,0,
00:07.9,-0.000480652,-0.002620697,0.004938126,0,
00:07.9,-0.000492096,-0.002603531,0.004966736,0,
00:07.9,-0.000497818,-0.002614975,0.005001068,0,
00:07.9,-0.000469208,-0.002620697,0.00497818,0,
00:07.9,-0.000514984,-0.002609253,0.004995346,0,
00:07.9,-0.000492096,-0.002603531,0.004966736,0,
00:07.9,-0.000469208,-0.002609253,0.004943848,0,
00:07.9,-0.000469208,-0.002609253,0.004961014,0,
00:07.9,-0.000434875,-0.002603531,0.004966736,0,
00:07.9,-0.000469208,-0.002586365,0.004943848,0,
00:07.9,-0.000486374,-0.002592087,0.004938126,0,
00:07.9,-0.000480652,-0.002597809,0.004961014,0,
00:07.9,-0.00044632,-0.002609253,0.004966736,0,
00:07.9,-0.000457764,-0.002603531,0.004943848,0,
00:07.9,-0.000514984,-0.002614975,0.004938126,0,
00:08.0,-0.000520706,-0.002580643,0.00497818,0,
00:08.0,-0.000537872,-0.002592087,0.004972458,0,
00:08.0,-0.000492096,-0.002632141,0.004983902,0,
00:08.0,-0.000469208,-0.002626419,0.004955292,0,
00:08.0,-0.00050354,-0.002614975,0.00494957,0,
00:08.0,-0.00050354,-0.002592087,0.004961014,0,
00:08.0,-0.000526428,-0.002603531,0.004932404,0,
00:08.0,-0.000572205,-0.002637863,0.004989624,0,
00:08.0,-0.000463486,-0.002603531,0.00500679,0,
00:08.0,-0.000457764,-0.002569199,0.004966736,0,
00:08.0,-0.000497818,-0.002603531,0.004955292,0,
00:08.0,-0.000457764,-0.002620697,0.004983902,0,
00:00:08,-0.000423431,-0.002597809,0.004961014,0,
00:08.0,-0.000452042,-0.002603531,0.004961014,0,
00:08.0,-0.000492096,-0.002603531,0.004955292,0,
00:08.0,-0.000486374,-0.002597809,0.004972458,0,
00:08.0,-0.000486374,-0.002592087,0.004966736,0,
00:08.0,-0.000497818,-0.002586365,0.004972458,0,
00:08.0,-0.000497818,-0.002586365,0.00494957,0,
00:08.0,-0.00050354,-0.002597809,0.004961014,0,
00:08.0,-0.000514984,-0.002614975,0.004955292,0,
00:08.0,-0.000509262,-0.002586365,0.004915237,0,
00:08.0,-0.000492096,-0.002580643,0.004972458,0,
00:08.0,-0.00044632,-0.002609253,0.005001068,0,
00:08.0,-0.000486374,-0.002632141,0.004972458,0,
00:08.1,-0.000577927,-0.002614975,0.004966736,0,
00:08.1,-0.000583649,-0.002609253,0.00497818,0,
00:08.1,-0.00053215,-0.002586365,0.004943848,0,
00:08.1,-0.000497818,-0.002592087,0.004892349,0,
00:08.1,-0.000497818,-0.002597809,0.004920959,0,
00:08.1,-0.000423431,-0.002603531,0.005023956,0,
00:08.1,-0.000480652,-0.002614975,0.005018234,0,
00:08.1,-0.000463486,-0.002592087,0.004972458,0,
00:08.1,-0.000486374,-0.002552032,0.004966736,0,
00:08.1,-0.000514984,-0.002580643,0.004966736,0,
00:08.1,-0.000514984,-0.002614975,0.004972458,0,
00:08.1,-0.00044632,-0.002592087,0.004966736,0,
00:08.1,-0.000463486,-0.002603531,0.004955292,0,
00:08.1,-0.00047493,-0.002586365,0.004955292,0,
00:08.1,-0.000497818,-0.002586365,0.004966736,0,
00:08.1,-0.000514984,-0.002597809,0.004955292,0,
00:08.1,-0.000549316,-0.002603531,0.004943848,0,
00:08.1,-0.000509262,-0.002614975,0.004983902,0,
00:08.1,-0.00047493,-0.002603531,0.004972458,0,
00:08.1,-0.000509262,-0.002586365,0.004966736,0,
00:08.1,-0.000480652,-0.002580643,0.004966736,0,
00:08.1,-0.000526428,-0.002597809,0.004966736,0,
00:08.1,-0.00056076,-0.002597809,0.004955292,0,
00:08.1,-0.000492096,-0.002592087,0.004909515,0,
00:08.1,-0.00050354,-0.002580643,0.004943848,0,
00:08.2,-0.00044632,-0.002597809,0.004989624,0,
00:08.2,-0.000423431,-0.002597809,0.005001068,0,
00:08.2,-0.000463486,-0.002603531,0.00497818,0,
00:08.2,-0.000486374,-0.002586365,0.004961014,0,
00:08.2,-0.000514984,-0.002557755,0.004943848,0,
00:08.2,-0.000537872,-0.002597809,0.004938126,0,
00:08.2,-0.000486374,-0.002603531,0.004961014,0,
00:08.2,-0.000486374,-0.002592087,0.004961014,0,
00:08.2,-0.000452042,-0.002597809,0.004961014,0,
00:08.2,-0.000469208,-0.002597809,0.004966736,0,
00:08.2,-0.000497818,-0.002586365,0.004955292,0,
00:08.2,-0.000480652,-0.002580643,0.004966736,0,
00:08.2,-0.000480652,-0.002574921,0.004966736,0,
00:08.2,-0.000452042,-0.002563477,0.004961014,0,
00:08.2,-0.000486374,-0.002574921,0.004943848,0,
00:08.2,-0.000526428,-0.002620697,0.004972458,0,
00:08.2,-0.000497818,-0.002586365,0.004943848,0,
00:08.2,-0.000514984,-0.002580643,0.004943848,0,
00:08.2,-0.000497818,-0.002586365,0.004972458,0,
00:08.2,-0.000497818,-0.002592087,0.004955292,0,
00:08.2,-0.000492096,-0.002597809,0.004955292,0,
00:08.2,-0.000457764,-0.002574921,0.004989624,0,
00:08.2,-0.000452042,-0.002586365,0.004961014,0,
00:08.2,-0.000452042,-0.002580643,0.004938126,0,
00:08.2,-0.000463486,-0.002597809,0.004955292,0,
00:08.3,-0.000480652,-0.002563477,0.004943848,0,
00:08.3,-0.000486374,-0.00254631,0.004932404,0,
00:08.3,-0.000486374,-0.002592087,0.004943848,0,
00:08.3,-0.000463486,-0.002603531,0.004972458,0,
00:08.3,-0.000463486,-0.002574921,0.004983902,0,
00:08.3,-0.000457764,-0.002574921,0.004961014,0,
00:08.3,-0.00044632,-0.002597809,0.004932404,0,
00:08.3,-0.000469208,-0.002586365,0.004920959,0,
00:08.3,-0.00053215,-0.002597809,0.004966736,0,
00:08.3,-0.000492096,-0.002580643,0.004961014,0,
00:08.3,-0.000497818,-0.002563477,0.004943848,0,
00:08.3,-0.000492096,-0.002574921,0.004966736,0,
00:08.3,-0.00050354,-0.002592087,0.004972458,0,
00:08.3,-0.000497818,-0.002592087,0.004961014,0,
00:08.3,-0.00047493,-0.002569199,0.004943848,0,
00:08.3,-0.000492096,-0.002597809,0.004955292,0,
00:08.3,-0.000469208,-0.002580643,0.00494957,0,
00:08.3,-0.00047493,-0.002552032,0.004903793,0,
00:08.3,-0.000469208,-0.002569199,0.004915237,0,
00:08.3,-0.000440598,-0.002580643,0.00497818,0,
00:08.3,-0.000457764,-0.002563477,0.004972458,0,
00:08.3,-0.000497818,-0.002569199,0.004961014,0,
00:08.3,-0.00050354,-0.002563477,0.00494957,0,
00:08.3,-0.000480652,-0.002580643,0.004943848,0,
00:08.3,-0.000492096,-0.002586365,0.004961014,0,
00:08.4,-0.000543594,-0.002580643,0.004983902,0,
00:08.4,-0.000457764,-0.002563477,0.004938126,0,
00:08.4,-0.000434875,-0.002574921,0.004932404,0,
00:08.4,-0.000440598,-0.002563477,0.004903793,0,
00:08.4,-0.00047493,-0.002580643,0.004892349,0,
00:08.4,-0.000492096,-0.002569199,0.005001068,0,
00:08.4,-0.000526428,-0.002586365,0.004972458,0,
00:08.4,-0.000555038,-0.002586365,0.004955292,0,
00:08.4,-0.000492096,-0.002574921,0.00494957,0,
00:08.4,-0.000463486,-0.002580643,0.004983902,0,
00:08.4,-0.000469208,-0.002563477,0.004955292,0,
00:08.4,-0.000469208,-0.002574921,0.00494957,0,
00:08.4,-0.000486374,-0.002586365,0.004943848,0,
00:08.4,-0.000486374,-0.002603531,0.004961014,0,
00:08.4,-0.000452042,-0.00254631,0.004961014,0,
00:08.4,-0.000429153,-0.002557755,0.004966736,0,
00:08.4,-0.000469208,-0.002563477,0.00497818,0,
00:08.4,-0.000526428,-0.002563477,0.00497818,0,
00:08.4,-0.000469208,-0.002574921,0.004955292,0,
00:08.4,-0.000469208,-0.002563477,0.004938126,0,
00:08.4,-0.000486374,-0.002557755,0.00494957,0,
00:08.4,-0.000480652,-0.002563477,0.00494957,0,
00:08.4,-0.000486374,-0.00254631,0.004903793,0,
00:08.4,-0.000486374,-0.002540588,0.004915237,0,
00:08.4,-0.000492096,-0.002569199,0.004961014,0,
00:08.5,-0.000492096,-0.002574921,0.004961014,0,
00:08.5,-0.00050354,-0.002592087,0.004983902,0,
00:08.5,-0.000440598,-0.002569199,0.004972458,0,
00:08.5,-0.000452042,-0.002563477,0.00494957,0,
00:08.5,-0.000509262,-0.002563477,0.004966736,0,
00:08.5,-0.000480652,-0.002569199,0.004938126,0,
00:08.5,-0.000497818,-0.002580643,0.004955292,0,
00:08.5,-0.000434875,-0.002580643,0.004972458,0,
00:08.5,-0.000400543,-0.002563477,0.004966736,0,
00:08.5,-0.000509262,-0.002557755,0.004920959,0,
00:08.5,-0.000509262,-0.002523422,0.004938126,0,
00:08.5,-0.000492096,-0.002563477,0.004955292,0,
00:08.5,-0.000509262,-0.002569199,0.00494957,0,
00:08.5,-0.000486374,-0.002574921,0.00494957,0,
00:08.5,-0.000457764,-0.002563477,0.004955292,0,
00:08.5,-0.000457764,-0.002552032,0.004955292,0,
00:08.5,-0.000457764,-0.002552032,0.00494957,0,
00:08.5,-0.000457764,-0.002523422,0.004920959,0,
00:08.5,-0.00044632,-0.002523422,0.004898071,0,
00:08.5,-0.000457764,-0.002574921,0.004920959,0,
00:08.5,-0.000492096,-0.002557755,0.00497818,0,
00:08.5,-0.000463486,-0.002574921,0.00497818,0,
00:08.5,-0.000452042,-0.002563477,0.004955292,0,
00:08.5,-0.000434875,-0.002540588,0.004943848,0,
00:08.5,-0.000423431,-0.002529144,0.004943848,0,
00:08.6,-0.00044632,-0.00254631,0.004961014,0,
00:08.6,-0.000497818,-0.002557755,0.004943848,0,
00:08.6,-0.000497818,-0.002569199,0.004915237,0,
00:08.6,-0.000492096,-0.002563477,0.004932404,0,
00:08.6,-0.00047493,-0.002529144,0.004961014,0,
00:08.6,-0.00050354,-0.002569199,0.004972458,0,
00:08.6,-0.000434875,-0.002563477,0.00494957,0,
00:08.6,-0.000457764,-0.002523422,0.004909515,0,
00:08.6,-0.00050354,-0.002552032,0.004926682,0,
00:08.6,-0.000469208,-0.002557755,0.004938126,0,
00:08.6,-0.000452042,-0.002552032,0.004926682,0,
00:08.6,-0.000463486,-0.002540588,0.004915237,0,
00:08.6,-0.000457764,-0.002540588,0.004892349,0,
00:08.6,-0.000457764,-0.002563477,0.004892349,0,
00:08.6,-0.000417709,-0.002557755,0.00494957,0,
00:08.6,-0.000434875,-0.00254631,0.004932404,0,
00:08.6,-0.000492096,-0.002552032,0.004938126,0,
00:08.6,-0.000486374,-0.002540588,0.004943848,0,
00:08.6,-0.000452042,-0.002552032,0.004920959,0,
00:08.6,-0.000423431,-0.002563477,0.004909515,0,
00:08.6,-0.000440598,-0.00254631,0.004915237,0,
00:08.6,-0.000423431,-0.0025177,0.004932404,0,
00:08.6,-0.000492096,-0.002592087,0.004926682,0,
00:08.6,-0.000492096,-0.002552032,0.004943848,0,
00:08.6,-0.000440598,-0.002529144,0.004932404,0,
00:08.7,-0.000480652,-0.002540588,0.004943848,0,
00:08.7,-0.000555038,-0.002563477,0.004932404,0,
00:08.7,-0.000457764,-0.002552032,0.004915237,0,
00:08.7,-0.000429153,-0.002540588,0.004898071,0,
00:08.7,-0.000452042,-0.00254631,0.004909515,0,
00:08.7,-0.000440598,-0.002540588,0.004909515,0,
00:08.7,-0.000434875,-0.002563477,0.004926682,0,
00:08.7,-0.000452042,-0.002540588,0.004926682,0,
00:08.7,-0.00047493,-0.002511978,0.004909515,0,
00:08.7,-0.000429153,-0.002523422,0.004892349,0,
00:08.7,-0.000434875,-0.002534866,0.004909515,0,
00:08.7,-0.000486374,-0.00254631,0.004938126,0,
00:08.7,-0.00053215,-0.002540588,0.004875183,0,
00:08.7,-0.000452042,-0.002552032,0.004909515,0,
00:08.7,-0.000406265,-0.002563477,0.004961014,0,
00:08.7,-0.000469208,-0.002563477,0.004938126,0,
00:08.7,-0.00047493,-0.00254631,0.004938126,0,
00:08.7,-0.000469208,-0.002529144,0.004909515,0,
00:08.7,-0.000463486,-0.002534866,0.004892349,0,
00:08.7,-0.000452042,-0.002540588,0.004909515,0,
00:08.7,-0.000463486,-0.00254631,0.004938126,0,
00:08.7,-0.000463486,-0.002523422,0.004903793,0,
00:08.7,-0.000452042,-0.002552032,0.004909515,0,
00:08.7,-0.000486374,-0.002563477,0.004915237,0,
00:08.7,-0.000537872,-0.002569199,0.004898071,0,
00:08.8,-0.000452042,-0.002529144,0.004909515,0,
00:08.8,-0.000394821,-0.00248909,0.004898071,0,
00:08.8,-0.000434875,-0.002540588,0.004898071,0,
00:08.8,-0.000463486,-0.002574921,0.004920959,0,
00:08.8,-0.000457764,-0.002552032,0.004926682,0,
00:08.8,-0.000457764,-0.002534866,0.004932404,0,
00:08.8,-0.000457764,-0.00254631,0.004903793,0,
00:08.8,-0.000463486,-0.00254631,0.004903793,0,
00:08.8,-0.000480652,-0.002569199,0.004920959,0,
00:08.8,-0.000480652,-0.002552032,0.004915237,0,
00:08.8,-0.000457764,-0.002529144,0.004920959,0,
00:08.8,-0.000452042,-0.00254631,0.004932404,0,
00:08.8,-0.000463486,-0.002557755,0.004920959,0,
00:08.8,-0.000429153,-0.002557755,0.004903793,0,
00:08.8,-0.00047493,-0.002552032,0.004903793,0,
00:08.8,-0.000492096,-0.00254631,0.004926682,0,
00:08.8,-0.000429153,-0.002523422,0.004903793,0,
00:08.8,-0.000394821,-0.002511978,0.004875183,0,
00:08.8,-0.000440598,-0.002552032,0.004915237,0,
00:08.8,-0.000526428,-0.002534866,0.004903793,0,
00:08.8,-0.000469208,-0.00254631,0.004898071,0,
00:08.8,-0.000514984,-0.002540588,0.004909515,0,
00:08.8,-0.000463486,-0.0025177,0.004886627,0,
00:08.8,-0.000429153,-0.002540588,0.004898071,0,
00:08.8,-0.000423431,-0.002563477,0.004920959,0,
00:08.9,-0.000429153,-0.002557755,0.004926682,0,
00:08.9,-0.000423431,-0.00254631,0.004892349,0,
00:08.9,-0.000463486,-0.002529144,0.004880905,0,
00:08.9,-0.000452042,-0.002552032,0.004909515,0,
00:08.9,-0.000457764,-0.002540588,0.004938126,0,
00:08.9,-0.000492096,-0.00254631,0.004938126,0,
00:08.9,-0.00047493,-0.002552032,0.004932404,0,
00:08.9,-0.00044632,-0.002534866,0.004920959,0,
00:08.9,-0.000400543,-0.002534866,0.004892349,0,
00:08.9,-0.000377655,-0.002540588,0.004909515,0,
00:08.9,-0.000457764,-0.002523422,0.004932404,0,
00:08.9,-0.00047493,-0.002506256,0.004903793,0,
00:08.9,-0.000480652,-0.002540588,0.004915237,0,
00:08.9,-0.000480652,-0.002557755,0.004909515,0,
00:08.9,-0.000486374,-0.002534866,0.004903793,0,
00:08.9,-0.000480652,-0.002569199,0.004915237,0,
00:08.9,-0.000469208,-0.002540588,0.004909515,0,
00:08.9,-0.000423431,-0.002511978,0.004903793,0,
00:08.9,-0.000423431,-0.002529144,0.004909515,0,
00:08.9,-0.000492096,-0.002563477,0.004932404,0,
00:08.9,-0.000463486,-0.002529144,0.004926682,0,
00:08.9,-0.000371933,-0.002523422,0.004909515,0,
00:08.9,-0.000394821,-0.002529144,0.004903793,0,
00:08.9,-0.000429153,-0.002523422,0.004909515,0,
00:08.9,-0.000452042,-0.0025177,0.004938126,0,
00:09.0,-0.000463486,-0.002534866,0.004943848,0,
00:09.0,-0.000457764,-0.00254631,0.004926682,0,
00:09.0,-0.000492096,-0.002563477,0.004909515,0,
00:09.0,-0.000411987,-0.002552032,0.004875183,0,
00:09.0,-0.000383377,-0.002534866,0.004920959,0,
00:09.0,-0.000452042,-0.002529144,0.004961014,0,
00:09.0,-0.000497818,-0.002540588,0.004932404,0,
00:09.0,-0.000486374,-0.0025177,0.004875183,0,
00:09.0,-0.00047493,-0.002523422,0.004875183,0,
00:09.0,-0.000452042,-0.002557755,0.00494957,0,
00:09.0,-0.000429153,-0.00254631,0.004932404,0,
00:09.0,-0.000452042,-0.002534866,0.004938126,0,
00:00:09,-0.000452042,-0.00254631,0.004920959,0,
00:09.0,-0.000440598,-0.002540588,0.004903793,0,
00:09.0,-0.00044632,-0.002552032,0.004926682,0,
00:09.0,-0.000463486,-0.002534866,0.004932404,0,
00:09.0,-0.000434875,-0.002529144,0.004915237,0,
00:09.0,-0.000417709,-0.002500534,0.004920959,0,
00:09.0,-0.000434875,-0.002534866,0.004920959,0,
00:09.0,-0.000480652,-0.002552032,0.004898071,0,
00:09.0,-0.000526428,-0.002557755,0.004920959,0,
00:09.0,-0.00044632,-0.00254631,0.004926682,0,
00:09.0,-0.00047493,-0.002540588,0.004915237,0,
00:09.0,-0.000469208,-0.00254631,0.004932404,0,
00:09.0,-0.000360489,-0.0025177,0.004926682,0,
00:09.1,-0.000429153,-0.002534866,0.004926682,0,
00:09.1,-0.00044632,-0.002529144,0.004932404,0,
00:09.1,-0.000452042,-0.002534866,0.004926682,0,
00:09.1,-0.00044632,-0.002529144,0.004909515,0,
00:09.1,-0.000434875,-0.002506256,0.004898071,0,
00:09.1,-0.000480652,-0.002529144,0.004903793,0,
00:09.1,-0.000486374,-0.002540588,0.004938126,0,
00:09.1,-0.000452042,-0.002552032,0.004938126,0,
00:09.1,-0.000440598,-0.00254631,0.004938126,0,
00:09.1,-0.000469208,-0.002529144,0.004943848,0,
00:09.1,-0.000469208,-0.002534866,0.004898071,0,
00:09.1,-0.000452042,-0.002534866,0.004926682,0,
00:09.1,-0.000452042,-0.00254631,0.004955292,0,
00:09.1,-0.000452042,-0.00254631,0.004926682,0,
00:09.1,-0.000486374,-0.002552032,0.004886627,0,
00:09.1,-0.000497818,-0.00254631,0.004932404,0,
00:09.1,-0.00053215,-0.00254631,0.004961014,0,
00:09.1,-0.000457764,-0.0025177,0.004926682,0,
00:09.1,-0.000411987,-0.00254631,0.004920959,0,
00:09.1,-0.000417709,-0.002523422,0.004909515,0,
00:09.1,-0.000469208,-0.002523422,0.004909515,0,
00:09.1,-0.000492096,-0.002534866,0.004920959,0,
00:09.1,-0.000463486,-0.002529144,0.004909515,0,
00:09.1,-0.000440598,-0.00254631,0.004909515,0,
00:09.1,-0.000417709,-0.002529144,0.004926682,0,
00:09.2,-0.000452042,-0.00254631,0.004938126,0,
00:09.2,-0.000429153,-0.002552032,0.004943848,0,
00:09.2,-0.000434875,-0.002540588,0.004915237,0,
00:09.2,-0.000492096,-0.0025177,0.004898071,0,
00:09.2,-0.00047493,-0.002523422,0.004938126,0,
00:09.2,-0.000469208,-0.002540588,0.004932404,0,
00:09.2,-0.000480652,-0.002540588,0.004926682,0,
00:09.2,-0.000509262,-0.00254631,0.004926682,0,
00:09.2,-0.000492096,-0.00254631,0.004920959,0,
00:09.2,-0.000423431,-0.002523422,0.004886627,0,
00:09.2,-0.000429153,-0.0025177,0.004915237,0,
00:09.2,-0.000486374,-0.002523422,0.004926682,0,
00:09.2,-0.000486374,-0.00254631,0.004920959,0,
00:09.2,-0.000469208,-0.002534866,0.004920959,0,
00:09.2,-0.000492096,-0.002534866,0.004920959,0,
00:09.2,-0.000486374,-0.002569199,0.004926682,0,
00:09.2,-0.000492096,-0.002540588,0.004892349,0,
00:09.2,-0.000463486,-0.002534866,0.004909515,0,
00:09.2,-0.000452042,-0.002552032,0.004909515,0,
00:09.2,-0.000429153,-0.002529144,0.004892349,0,
00:09.2,-0.000452042,-0.0025177,0.004909515,0,
00:09.2,-0.000417709,-0.002529144,0.004909515,0,
00:09.2,-0.000440598,-0.00254631,0.004892349,0,
00:09.2,-0.000440598,-0.002534866,0.004903793,0,
00:09.2,-0.000452042,-0.002529144,0.004926682,0,
00:09.3,-0.000457764,-0.002523422,0.004926682,0,
00:09.3,-0.000457764,-0.002529144,0.004926682,0,
00:09.3,-0.000457764,-0.002523422,0.004920959,0,
00:09.3,-0.000480652,-0.00254631,0.004898071,0,
00:09.3,-0.000492096,-0.002540588,0.004909515,0,
00:09.3,-0.000463486,-0.002552032,0.004909515,0,
00:09.3,-0.000452042,-0.002534866,0.004898071,0,
00:09.3,-0.000452042,-0.00254631,0.004903793,0,
00:09.3,-0.00047493,-0.002557755,0.00494957,0,
00:09.3,-0.00047493,-0.002557755,0.004926682,0,
00:09.3,-0.00050354,-0.002574921,0.004938126,0,
00:09.3,-0.00044632,-0.002552032,0.004926682,0,
00:09.3,-0.00044632,-0.0025177,0.004898071,0,
00:09.3,-0.000486374,-0.002506256,0.004880905,0,
00:09.3,-0.000452042,-0.0025177,0.004880905,0,
00:09.3,-0.000429153,-0.00254631,0.004926682,0,
00:09.3,-0.000469208,-0.002563477,0.004955292,0,
00:09.3,-0.000480652,-0.002540588,0.004943848,0,
00:09.3,-0.000457764,-0.00254631,0.004915237,0,
00:09.3,-0.000457764,-0.002552032,0.004920959,0,
00:09.3,-0.000457764,-0.002534866,0.004915237,0,
00:09.3,-0.000480652,-0.002557755,0.004915237,0,
00:09.3,-0.000469208,-0.002552032,0.004903793,0,
00:09.3,-0.000452042,-0.002540588,0.004886627,0,
00:09.3,-0.00047493,-0.002552032,0.004926682,0,
00:09.4,-0.000463486,-0.002540588,0.004909515,0,
00:09.4,-0.000457764,-0.002523422,0.004915237,0,
00:09.4,-0.00044632,-0.002529144,0.004909515,0,
00:09.4,-0.00044632,-0.00254631,0.004932404,0,
00:09.4,-0.000452042,-0.002557755,0.004926682,0,
00:09.4,-0.000463486,-0.002557755,0.004920959,0,
00:09.4,-0.00050354,-0.00254631,0.004932404,0,
00:09.4,-0.000492096,-0.002534866,0.004903793,0,
00:09.4,-0.00050354,-0.002552032,0.004909515,0,
00:09.4,-0.00047493,-0.00254631,0.004898071,0,
00:09.4,-0.000469208,-0.00254631,0.004898071,0,
00:09.4,-0.000423431,-0.00254631,0.004915237,0,
00:09.4,-0.000440598,-0.00254631,0.004926682,0,
00:09.4,-0.000463486,-0.002523422,0.004915237,0,
00:09.4,-0.000492096,-0.002563477,0.004926682,0,
00:09.4,-0.000520706,-0.002569199,0.004903793,0,
00:09.4,-0.000452042,-0.002552032,0.004886627,0,
00:09.4,-0.00044632,-0.002552032,0.004932404,0,
00:09.4,-0.000452042,-0.002557755,0.004966736,0,
00:09.4,-0.000463486,-0.00254631,0.004932404,0,
00:09.4,-0.000486374,-0.002540588,0.004920959,0,
00:09.4,-0.00050354,-0.002540588,0.004938126,0,
00:09.4,-0.000440598,-0.002529144,0.004920959,0,
00:09.4,-0.000469208,-0.002534866,0.004926682,0,
00:09.4,-0.000463486,-0.002523422,0.004920959,0,
00:09.5,-0.000452042,-0.002569199,0.004915237,0,
00:09.5,-0.000480652,-0.002563477,0.004932404,0,
00:09.5,-0.000497818,-0.002557755,0.004903793,0,
00:09.5,-0.000480652,-0.002557755,0.004898071,0,
00:09.5,-0.000497818,-0.00254631,0.00494957,0,
00:09.5,-0.00047493,-0.002552032,0.004932404,0,
00:09.5,-0.000452042,-0.00254631,0.004943848,0,
00:09.5,-0.000463486,-0.002534866,0.004926682,0,
00:09.5,-0.000492096,-0.00254631,0.004903793,0,
00:09.5,-0.000457764,-0.002534866,0.004961014,0,
00:09.5,-0.000452042,-0.00254631,0.00497818,0,
00:09.5,-0.00050354,-0.002540588,0.004955292,0,
00:09.5,-0.00053215,-0.002534866,0.004909515,0,
00:09.5,-0.000480652,-0.002552032,0.004920959,0,
00:09.5,-0.000463486,-0.002574921,0.004955292,0,
00:09.5,-0.00047493,-0.002557755,0.004926682,0,
00:09.5,-0.000514984,-0.002557755,0.004938126,0,
00:09.5,-0.000526428,-0.002569199,0.004955292,0,
00:09.5,-0.000469208,-0.002534866,0.004943848,0,
00:09.5,-0.000463486,-0.002552032,0.004943848,0,
00:09.5,-0.000492096,-0.002563477,0.004972458,0,
00:09.5,-0.000480652,-0.002540588,0.004972458,0,
00:09.5,-0.000509262,-0.00254631,0.00494957,0,
00:09.5,-0.000457764,-0.002552032,0.004955292,0,
00:09.5,-0.000486374,-0.002552032,0.004955292,0,
00:09.6,-0.000486374,-0.002563477,0.004932404,0,
00:09.6,-0.000434875,-0.002540588,0.004926682,0,
00:09.6,-0.000463486,-0.002569199,0.004961014,0,
00:09.6,-0.00050354,-0.00254631,0.004989624,0,
00:09.6,-0.000492096,-0.00254631,0.00494957,0,
00:09.6,-0.000492096,-0.00254631,0.004955292,0,
00:09.6,-0.000497818,-0.002529144,0.004943848,0,
00:09.6,-0.000492096,-0.002534866,0.004955292,0,
00:09.6,-0.000486374,-0.002534866,0.004961014,0,
00:09.6,-0.000469208,-0.002552032,0.004955292,0,
00:09.6,-0.00047493,-0.002557755,0.004938126,0,
00:09.6,-0.000520706,-0.002557755,0.004938126,0,
00:09.6,-0.000520706,-0.002563477,0.004961014,0,
00:09.6,-0.000514984,-0.002563477,0.004972458,0,
00:09.6,-0.000497818,-0.002540588,0.004966736,0,
00:09.6,-0.000520706,-0.00254631,0.004972458,0,
00:09.6,-0.000617981,-0.002557755,0.004966736,0,
00:09.6,-0.000595093,-0.002557755,0.004943848,0,
00:09.6,-0.000406265,-0.002529144,0.004920959,0,
00:09.6,-0.000411987,-0.0025177,0.004966736,0,
00:09.6,-0.000429153,-0.0025177,0.004983902,0,
00:09.6,-0.000463486,-0.002534866,0.004938126,0,
00:09.6,-0.000492096,-0.002540588,0.00494957,0,
00:09.6,-0.000492096,-0.002534866,0.00494957,0,
00:09.6,-0.000520706,-0.002557755,0.004955292,0,
00:09.7,-0.00050354,-0.002540588,0.004972458,0,
00:09.7,-0.000480652,-0.002552032,0.004966736,0,
00:09.7,-0.000469208,-0.002563477,0.00494957,0,
00:09.7,-0.000549316,-0.002552032,0.00494957,0,
00:09.7,-0.000555038,-0.002563477,0.004966736,0,
00:09.7,-0.000509262,-0.002563477,0.00497818,0,
00:09.7,-0.000514984,-0.00254631,0.004972458,0,
00:09.7,-0.000509262,-0.002540588,0.004955292,0,
00:09.7,-0.000520706,-0.00254631,0.004966736,0,
00:09.7,-0.000543594,-0.00254631,0.004966736,0,
00:09.7,-0.000577927,-0.002523422,0.004932404,0,
00:09.7,-0.000600815,-0.00254631,0.004938126,0,
00:09.7,-0.000497818,-0.002552032,0.004926682,0,
00:09.7,-0.000457764,-0.002563477,0.00497818,0,
00:09.7,-0.000463486,-0.002563477,0.004995346,0,
00:09.7,-0.000537872,-0.002557755,0.004983902,0,
00:09.7,-0.000440598,-0.002529144,0.00494957,0,
00:09.7,-0.00047493,-0.002552032,0.004943848,0,
00:09.7,-0.000469208,-0.00254631,0.004926682,0,
00:09.7,-0.000520706,-0.002529144,0.004920959,0,
00:09.7,-0.000526428,-0.002523422,0.004955292,0,
00:09.7,-0.00053215,-0.002540588,0.004955292,0,
00:09.7,-0.000543594,-0.002557755,0.004943848,0,
00:09.7,-0.00053215,-0.002552032,0.004961014,0,
00:09.7,-0.000514984,-0.002540588,0.00497818,0,
00:09.8,-0.00050354,-0.002529144,0.004961014,0,
00:09.8,-0.000514984,-0.002534866,0.004961014,0,
00:09.8,-0.000549316,-0.002557755,0.00494957,0,
00:09.8,-0.000537872,-0.002552032,0.004961014,0,
00:09.8,-0.00053215,-0.002552032,0.004909515,0,
00:09.8,-0.000537872,-0.002557755,0.004943848,0,
00:09.8,-0.000537872,-0.002563477,0.004989624,0,
00:09.8,-0.000583649,-0.002557755,0.004972458,0,
00:09.8,-0.000526428,-0.00254631,0.004938126,0,
00:09.8,-0.00047493,-0.00254631,0.004955292,0,
00:09.8,-0.000492096,-0.00254631,0.004972458,0,
00:09.8,-0.000612259,-0.002592087,0.004983902,0,
00:09.8,-0.000600815,-0.00254631,0.004961014,0,
00:09.8,-0.00047493,-0.002523422,0.004909515,0,
00:09.8,-0.000520706,-0.002529144,0.004892349,0,
00:09.8,-0.000555038,-0.002557755,0.004915237,0,
00:09.8,-0.00047493,-0.00254631,0.004989624,0,
00:09.8,-0.00047493,-0.00254631,0.004961014,0,
00:09.8,-0.000514984,-0.002529144,0.004966736,0,
00:09.8,-0.000514984,-0.002529144,0.004938126,0,
00:09.8,-0.000520706,-0.00254631,0.00494957,0,
00:09.8,-0.00053215,-0.002540588,0.004955292,0,
00:09.8,-0.00053215,-0.002552032,0.004938126,0,
00:09.8,-0.000549316,-0.002552032,0.004943848,0,
00:09.8,-0.00053215,-0.002552032,0.00494957,0,
00:09.9,-0.00047493,-0.002563477,0.004966736,0,
00:09.9,-0.000526428,-0.002552032,0.004943848,0,
00:09.9,-0.000577927,-0.002529144,0.004961014,0,
