Elapsed_Time,EMG1,EMG2,EMG3,BioRadio Event,Unnamed: 5
00:00:00,0.000492096,-0.003381729,-0.006362915,0,
00:00.0,0.000486374,-0.003404617,-0.006357193,0,
00:00.0,0.000492096,-0.003404617,-0.006340027,0,
00:00.0,0.00050354,-0.003381729,-0.006345749,0,
00:00.0,0.00050354,-0.003381729,-0.006351471,0,
00:00.0,0.000514984,-0.003370285,-0.006340027,0,
00:00.0,0.000497818,-0.003381729,-0.006351471,0,
00:00.0,0.00050354,-0.003376007,-0.006351471,0,
00:00.0,0.00050354,-0.003376007,-0.006362915,0,
00:00.0,0.000480652,-0.003410339,-0.006317139,0,
00:00.0,0.000480652,-0.003370285,-0.006299973,0,
00:00.0,0.000457764,-0.003364563,-0.006317139,0,
00:00.0,0.000497818,-0.003370285,-0.006328583,0,
00:00.1,0.000514984,-0.003364563,-0.006322861,0,
00:00.1,0.000514984,-0.003347397,-0.006328583,0,
00:00.1,0.000520706,-0.003341675,-0.006334305,0,
00:00.1,0.000480652,-0.003376007,-0.006322861,0,
00:00.1,0.000480652,-0.003358841,-0.006311417,0,
00:00.1,0.000486374,-0.003364563,-0.006311417,0,
00:00.1,0.000486374,-0.003376007,-0.006311417,0,
00:00.1,0.00047493,-0.003364563,-0.006305695,0,
00:00.1,0.000492096,-0.003358841,-0.006288528,0,
00:00.1,0.000492096,-0.003364563,-0.006299973,0,
00:00.1,0.000423431,-0.003358841,-0.006305695,0,
00:00.1,0.000480652,-0.003347397,-0.00629425,0,
00:00.1,0.000543594,-0.003335953,-0.006317139,0,
00:00.1,0.000514984,-0.003335953,-0.006311417,0,
00:00.1,0.000492096,-0.003347397,-0.006311417,0,
00:00.1,0.000492096,-0.003353119,-0.006305695,0,
00:00.1,0.000492096,-0.003335953,-0.006305695,0,
00:00.1,0.000486374,-0.003341675,-0.006311417,0,
00:00.1,0.000492096,-0.003353119,-0.006299973,0,
00:00.1,0.00050354,-0.003341675,-0.006288528,0,
00:00.1,0.000497818,-0.003347397,-0.006288528,0,
00:00.1,0.000480652,-0.003358841,-0.006277084,0,
00:00.1,0.000480652,-0.003335953,-0.006271362,0,
00:00.1,0.000486374,-0.003335953,-0.006271362,0,
00:00.1,0.000486374,-0.003341675,-0.006271362,0,
00:00.2,0.000492096,-0.003341675,-0.006277084,0,
00:00.2,0.000492096,-0.003335953,-0.006282806,0,
00:00.2,0.000486374,-0.003335953,-0.006282806,0,
00:00.2,0.000480652,-0.003335953,-0.006271362,0,
00:00.2,0.000492096,-0.003313065,-0.006271362,0,
00:00.2,0.000497818,-0.003307343,-0.00626564,0,
00:00.2,0.000492096,-0.003313065,-0.006282806,0,
00:00.2,0.00047493,-0.003307343,-0.006288528,0,
00:00.2,0.000486374,-0.00330162,-0.006271362,0,
00:00.2,0.00050354,-0.00330162,-0.00626564,0,
00:00.2,0.00050354,-0.003307343,-0.00626564,0,
00:00.2,0.000486374,-0.003307343,-0.006259918,0,
00:00.2,0.000480652,-0.00330162,-0.00626564,0,
00:00.2,0.000492096,-0.00330162,-0.00626564,0,
00:00.2,0.00050354,-0.003290176,-0.006254196,0,
00:00.2,0.000486374,-0.003284454,-0.006259918,0,
00:00.2,0.000486374,-0.003284454,-0.006242752,0,
00:00.2,0.000480652,-0.003324509,-0.00623703,0,
00:00.2,0.000469208,-0.003324509,-0.006231308,0,
00:00.2,0.000480652,-0.003313065,-0.006231308,0,
00:00.2,0.000486374,-0.003290176,-0.006231308,0,
00:00.2,0.000492096,-0.003278732,-0.006231308,0,
00:00.2,0.000486374,-0.003284454,-0.006225586,0,
00:00.2,0.000457764,-0.003290176,-0.006219864,0,
00:00.2,0.000406265,-0.003313065,-0.006214142,0,
00:00.3,0.000452042,-0.003295898,-0.006214142,0,
00:00.3,0.000514984,-0.00330162,-0.00623703,0,
00:00.3,0.00050354,-0.00330162,-0.00623703,0,
00:00.3,0.000497818,-0.003284454,-0.006214142,0,
00:00.3,0.000492096,-0.003284454,-0.006202698,0,
00:00.3,0.000469208,-0.003278732,-0.00623703,0,
00:00.3,0.000480652,-0.003278732,-0.006231308,0,
00:00.3,0.000469208,-0.003284454,-0.006225586,0,
00:00.3,0.000469208,-0.003284454,-0.006202698,0,
00:00.3,0.000463486,-0.003295898,-0.006202698,0,
00:00.3,0.000463486,-0.003290176,-0.006214142,0,
00:00.3,0.000492096,-0.0032444,-0.00620842,0,
00:00.3,0.000480652,-0.003278732,-0.006196976,0,
00:00.3,0.000457764,-0.003295898,-0.006219864,0,
00:00.3,0.000463486,-0.003290176,-0.00620842,0,
00:00.3,0.000463486,-0.003295898,-0.006202698,0,
00:00.3,0.000469208,-0.003278732,-0.006191254,0,
00:00.3,0.000469208,-0.003267288,-0.006191254,0,
00:00.3,0.000463486,-0.003284454,-0.006191254,0,
00:00.3,0.000469208,-0.003278732,-0.00617981,0,
00:00.3,0.000480652,-0.003255844,-0.006185532,0,
00:00.3,0.000492096,-0.0032444,-0.006196976,0,
00:00.3,0.000480652,-0.003250122,-0.006185532,0,
00:00.3,0.000469208,-0.003255844,-0.006168365,0,
00:00.3,0.000480652,-0.0032444,-0.006174088,0,
00:00.4,0.000480652,-0.003250122,-0.00617981,0,
00:00.4,0.000457764,-0.003255844,-0.006162643,0,
00:00.4,0.000457764,-0.003267288,-0.006156921,0,
00:00.4,0.000463486,-0.003284454,-0.006151199,0,
00:00.4,0.000463486,-0.00327301,-0.006145477,0,
00:00.4,0.000469208,-0.003255844,-0.006145477,0,
00:00.4,0.000469208,-0.003250122,-0.006151199,0,
00:00.4,0.000469208,-0.003255844,-0.006151199,0,
00:00.4,0.000469208,-0.003250122,-0.006156921,0,
00:00.4,0.000463486,-0.003255844,-0.006151199,0,
00:00.4,0.000429153,-0.003255844,-0.006151199,0,
00:00.4,0.000366211,-0.00327301,-0.006122589,0,
00:00.4,0.000406265,-0.003261566,-0.006116867,0,
00:00.4,0.00053215,-0.0032444,-0.006156921,0,
00:00.4,0.000509262,-0.003250122,-0.006162643,0,
00:00.4,0.000463486,-0.003255844,-0.006151199,0,
00:00.4,0.00044632,-0.003238678,-0.006111145,0,
00:00.4,0.00047493,-0.003250122,-0.006145477,0,
00:00.4,0.000497818,-0.003250122,-0.006145477,0,
00:00.4,0.000480652,-0.0032444,-0.006134033,0,
00:00.4,0.000492096,-0.003232956,-0.006134033,0,
00:00.4,0.000469208,-0.0032444,-0.006128311,0,
00:00.4,0.000452042,-0.003255844,-0.006105423,0,
00:00.4,0.000469208,-0.003227234,-0.006105423,0,
00:00.4,0.000463486,-0.003250122,-0.006105423,0,
00:00.5,0.000463486,-0.003232956,-0.006116867,0,
00:00.5,0.00047493,-0.003232956,-0.006122589,0,
00:00.5,0.00047493,-0.003232956,-0.006122589,0,
00:00.5,0.00047493,-0.00321579,-0.006116867,0,
00:00.5,0.000469208,-0.003238678,-0.006105423,0,
00:00.5,0.00047493,-0.003232956,-0.006105423,0,
00:00.5,0.00047493,-0.003232956,-0.006099701,0,
00:00.5,0.000480652,-0.00321579,-0.006105423,0,
00:00.5,0.000469208,-0.003210068,-0.006111145,0,
00:00.5,0.000457764,-0.003232956,-0.006088257,0,
00:00.5,0.000457764,-0.003232956,-0.006093979,0,
00:00.5,0.000457764,-0.003204346,-0.006088257,0,
00:00.5,0.000457764,-0.003192902,-0.006093979,0,
00:00.5,0.000463486,-0.003232956,-0.006076813,0,
00:00.5,0.00047493,-0.00321579,-0.006088257,0,
00:00.5,0.000452042,-0.003221512,-0.006071091,0,
00:00.5,0.000383377,-0.003210068,-0.006048203,0,
00:00.5,0.000371933,-0.003192902,-0.00604248,0,
00:00.5,0.00050354,-0.003192902,-0.006082535,0,
00:00.5,0.000537872,-0.003181458,-0.006071091,0,
00:00.5,0.000497818,-0.00318718,-0.006071091,0,
00:00.5,0.000463486,-0.003221512,-0.006071091,0,
00:00.5,0.000452042,-0.003210068,-0.006059647,0,
00:00.5,0.000469208,-0.003204346,-0.006059647,0,
00:00.5,0.000497818,-0.003170013,-0.006071091,0,
00:00.6,0.00047493,-0.003181458,-0.006065369,0,
00:00.6,0.00047493,-0.00321579,-0.006048203,0,
00:00.6,0.000469208,-0.003204346,-0.006053925,0,
00:00.6,0.000469208,-0.003192902,-0.006048203,0,
00:00.6,0.000469208,-0.003198624,-0.006048203,0,
00:00.6,0.000469208,-0.00318718,-0.00604248,0,
00:00.6,0.00047493,-0.00318718,-0.006048203,0,
00:00.6,0.000457764,-0.003204346,-0.006048203,0,
00:00.6,0.000452042,-0.00318718,-0.00604248,0,
00:00.6,0.000452042,-0.003198624,-0.006031036,0,
00:00.6,0.000463486,-0.003164291,-0.006031036,0,
00:00.6,0.000457764,-0.003170013,-0.006036758,0,
00:00.6,0.000452042,-0.003221512,-0.006025314,0,
00:00.6,0.000463486,-0.003204346,-0.006008148,0,
00:00.6,0.000452042,-0.003192902,-0.005996704,0,
00:00.6,0.000457764,-0.003181458,-0.006002426,0,
00:00.6,0.000469208,-0.00318718,-0.005996704,0,
00:00.6,0.000469208,-0.00318718,-0.006008148,0,
00:00.6,0.00044632,-0.003181458,-0.006036758,0,
00:00.6,0.000452042,-0.00318718,-0.005996704,0,
00:00.6,0.000411987,-0.003198624,-0.006008148,0,
00:00.6,0.000383377,-0.003210068,-0.006008148,0,
00:00.6,0.000480652,-0.003204346,-0.005996704,0,
00:00.6,0.00050354,-0.003181458,-0.005990982,0,
00:00.6,0.000486374,-0.003175735,-0.005990982,0,
00:00.7,0.000486374,-0.003170013,-0.00598526,0,
00:00.7,0.000469208,-0.003181458,-0.005979538,0,
00:00.7,0.00047493,-0.003164291,-0.00598526,0,
00:00.7,0.000469208,-0.003181458,-0.005973816,0,
00:00.7,0.000463486,-0.003170013,-0.005973816,0,
00:00.7,0.000463486,-0.003175735,-0.005968094,0,
00:00.7,0.000469208,-0.003175735,-0.00595665,0,
00:00.7,0.000463486,-0.003164291,-0.005962372,0,
00:00.7,0.00047493,-0.003158569,-0.005962372,0,
00:00.7,0.000457764,-0.003170013,-0.00595665,0,
00:00.7,0.000452042,-0.003170013,-0.005950928,0,
00:00.7,0.000457764,-0.003175735,-0.005945206,0,
00:00.7,0.000457764,-0.003164291,-0.005950928,0,
00:00.7,0.000463486,-0.003152847,-0.005945206,0,
00:00.7,0.000457764,-0.003158569,-0.005950928,0,
00:00.7,0.000469208,-0.003147125,-0.005950928,0,
00:00.7,0.000469208,-0.003164291,-0.005939484,0,
00:00.7,0.000457764,-0.003164291,-0.005939484,0,
00:00.7,0.000457764,-0.003164291,-0.005933762,0,
00:00.7,0.000452042,-0.003158569,-0.00592804,0,
00:00.7,0.000411987,-0.003158569,-0.005922318,0,
00:00.7,0.000400543,-0.003198624,-0.005905151,0,
00:00.7,0.000469208,-0.003181458,-0.00592804,0,
00:00.7,0.00050354,-0.003158569,-0.005939484,0,
00:00.7,0.000486374,-0.003147125,-0.00592804,0,
00:00.8,0.00047493,-0.003141403,-0.005922318,0,
00:00.8,0.00047493,-0.003124237,-0.005916595,0,
00:00.8,0.000463486,-0.003141403,-0.005916595,0,
00:00.8,0.000452042,-0.003152847,-0.005910873,0,
00:00.8,0.000457764,-0.003147125,-0.005905151,0,
00:00.8,0.000463486,-0.003147125,-0.005893707,0,
00:00.8,0.000452042,-0.003147125,-0.005887985,0,
00:00.8,0.000463486,-0.003141403,-0.005905151,0,
00:00.8,0.000469208,-0.003135681,-0.005876541,0,
00:00.8,0.000463486,-0.003164291,-0.005870819,0,
00:00.8,0.000463486,-0.003152847,-0.005876541,0,
00:00.8,0.000469208,-0.003129959,-0.005876541,0,
00:00.8,0.000463486,-0.003124237,-0.005876541,0,
00:00.8,0.000463486,-0.003124237,-0.005870819,0,
00:00.8,0.00047493,-0.003129959,-0.005865097,0,
00:00.8,0.000469208,-0.003118515,-0.005876541,0,
00:00.8,0.000429153,-0.003107071,-0.005876541,0,
00:00.8,0.000411987,-0.003084183,-0.005859375,0,
00:00.8,0.000457764,-0.003141403,-0.005865097,0,
00:00.8,0.000492096,-0.003129959,-0.005876541,0,
00:00.8,0.000480652,-0.003118515,-0.005876541,0,
00:00.8,0.000469208,-0.003124237,-0.005859375,0,
00:00.8,0.000469208,-0.003107071,-0.005847931,0,
00:00.8,0.000457764,-0.003118515,-0.005853653,0,
00:00.8,0.000452042,-0.003124237,-0.005853653,0,
00:00.9,0.000463486,-0.003124237,-0.005859375,0,
00:00.9,0.00047493,-0.003101349,-0.005853653,0,
00:00.9,0.000463486,-0.003101349,-0.005859375,0,
00:00.9,0.000457764,-0.003118515,-0.005836487,0,
00:00.9,0.000463486,-0.003112793,-0.005830765,0,
00:00.9,0.000457764,-0.003118515,-0.005825043,0,
00:00.9,0.000457764,-0.003112793,-0.005825043,0,
00:00.9,0.000457764,-0.003101349,-0.005830765,0,
00:00.9,0.000463486,-0.003095627,-0.005830765,0,
00:00.9,0.000463486,-0.003084183,-0.005830765,0,
00:00.9,0.000457764,-0.003084183,-0.005830765,0,
00:00.9,0.000463486,-0.003084183,-0.005819321,0,
00:00.9,0.000480652,-0.003072739,-0.005836487,0,
00:00.9,0.000457764,-0.003084183,-0.005847931,0,
00:00.9,0.000457764,-0.003078461,-0.005830765,0,
00:00.9,0.000452042,-0.003107071,-0.005807877,0,
00:00.9,0.000463486,-0.003089905,-0.00579071,0,
00:00.9,0.000463486,-0.003084183,-0.005802155,0,
00:00.9,0.00044632,-0.003089905,-0.00579071,0,
00:00.9,0.000429153,-0.003084183,-0.005784988,0,
00:00.9,0.000457764,-0.003089905,-0.005779266,0,
00:00.9,0.000463486,-0.003089905,-0.00579071,0,
00:00.9,0.000463486,-0.003078461,-0.005796432,0,
00:00.9,0.000457764,-0.003067017,-0.00579071,0,
00:00.9,0.00044632,-0.003038406,-0.005767822,0,
00:01.0,0.000429153,-0.003015518,-0.005784988,0,
00:01.0,0.000377655,-0.003084183,-0.00579071,0,
00:01.0,0.000371933,-0.003084183,-0.005796432,0,
00:01.0,0.00047493,-0.003095627,-0.005739212,0,
00:01.0,0.000514984,-0.003095627,-0.005796432,0,
00:01.0,0.000486374,-0.003072739,-0.005784988,0,
00:01.0,0.000480652,-0.00304985,-0.005767822,0,
00:01.0,0.000486374,-0.003061295,-0.005767822,0,
00:01.0,0.000457764,-0.003089905,-0.005767822,0,
00:01.0,0.000452042,-0.003061295,-0.005756378,0,
00:01.0,0.000440598,-0.003061295,-0.005756378,0,
00:01.0,0.000452042,-0.003061295,-0.005756378,0,
00:00:01,0.000452042,-0.003044128,-0.005756378,0,
00:01.0,0.00044632,-0.003055573,-0.005744934,0,
00:01.0,0.00044632,-0.00304985,-0.00573349,0,
00:01.0,0.000434875,-0.00304985,-0.005744934,0,
00:01.0,0.000429153,-0.003055573,-0.005744934,0,
00:01.0,0.000429153,-0.003044128,-0.005756378,0,
00:01.0,0.000417709,-0.00304985,-0.005727768,0,
00:01.0,0.000429153,-0.003061295,-0.005722046,0,
00:01.0,0.000440598,-0.00304985,-0.005722046,0,
00:01.0,0.000434875,-0.003038406,-0.005727768,0,
00:01.0,0.000423431,-0.003044128,-0.005727768,0,
00:01.0,0.000417709,-0.003061295,-0.005716324,0,
00:01.0,0.000423431,-0.003061295,-0.005716324,0,
00:01.1,0.000434875,-0.003044128,-0.005716324,0,
00:01.1,0.000452042,-0.003015518,-0.005716324,0,
00:01.1,0.000452042,-0.003015518,-0.005716324,0,
00:01.1,0.000440598,-0.00302124,-0.005710602,0,
00:01.1,0.000440598,-0.00302124,-0.005710602,0,
00:01.1,0.000423431,-0.003044128,-0.005716324,0,
00:01.1,0.000406265,-0.003072739,-0.005670547,0,
00:01.1,0.000406265,-0.003044128,-0.005659103,0,
00:01.1,0.00044632,-0.003038406,-0.00567627,0,
00:01.1,0.000463486,-0.003038406,-0.005699158,0,
00:01.1,0.000440598,-0.003026962,-0.005693436,0,
00:01.1,0.000411987,-0.003015518,-0.005687714,0,
00:01.1,0.000411987,-0.003004074,-0.005687714,0,
00:01.1,0.000440598,-0.003015518,-0.005693436,0,
00:01.1,0.000457764,-0.003009796,-0.005681992,0,
00:01.1,0.000463486,-0.003004074,-0.00567627,0,
00:01.1,0.000440598,-0.003026962,-0.00567627,0,
00:01.1,0.000440598,-0.003015518,-0.005670547,0,
00:01.1,0.00044632,-0.002998352,-0.005670547,0,
00:01.1,0.00044632,-0.00299263,-0.005664825,0,
00:01.1,0.00044632,-0.002986908,-0.005687714,0,
00:01.1,0.000423431,-0.003026962,-0.005681992,0,
00:01.1,0.000417709,-0.00299263,-0.005670547,0,
00:01.1,0.000417709,-0.00302124,-0.005641937,0,
00:01.1,0.000417709,-0.003044128,-0.005630493,0,
00:01.2,0.000417709,-0.003015518,-0.005630493,0,
00:01.2,0.000423431,-0.003009796,-0.005636215,0,
00:01.2,0.000423431,-0.003004074,-0.005647659,0,
00:01.2,0.000429153,-0.003004074,-0.005653381,0,
00:01.2,0.000440598,-0.002998352,-0.005647659,0,
00:01.2,0.000452042,-0.002981186,-0.005653381,0,
00:01.2,0.000457764,-0.002998352,-0.005647659,0,
00:01.2,0.000434875,-0.00299263,-0.005647659,0,
00:01.2,0.000423431,-0.00299263,-0.005641937,0,
00:01.2,0.000417709,-0.00302124,-0.005624771,0,
00:01.2,0.000429153,-0.003004074,-0.005619049,0,
00:01.2,0.000423431,-0.002981186,-0.005636215,0,
00:01.2,0.000411987,-0.002998352,-0.005630493,0,
00:01.2,0.000440598,-0.003015518,-0.005590439,0,
00:01.2,0.000457764,-0.002998352,-0.005624771,0,
00:01.2,0.00044632,-0.002969742,-0.005619049,0,
00:01.2,0.000366211,-0.002975464,-0.005619049,0,
00:01.2,0.000400543,-0.002986908,-0.005607605,0,
00:01.2,0.00050354,-0.002958298,-0.005613327,0,
00:01.2,0.000469208,-0.002986908,-0.005596161,0,
00:01.2,0.000434875,-0.002981186,-0.005596161,0,
00:01.2,0.000440598,-0.002946854,-0.005619049,0,
00:01.2,0.000440598,-0.002986908,-0.005590439,0,
00:01.2,0.000440598,-0.002981186,-0.005601883,0,
00:01.2,0.000411987,-0.002986908,-0.005584717,0,
00:01.3,0.000417709,-0.002986908,-0.005573273,0,
00:01.3,0.000469208,-0.002975464,-0.005596161,0,
00:01.3,0.000457764,-0.002958298,-0.005607605,0,
00:01.3,0.00044632,-0.002946854,-0.005584717,0,
00:01.3,0.00044632,-0.00296402,-0.005573273,0,
00:01.3,0.00044632,-0.002975464,-0.005567551,0,
00:01.3,0.00044632,-0.00296402,-0.005573273,0,
00:01.3,0.000429153,-0.002958298,-0.005567551,0,
00:01.3,0.000423431,-0.002958298,-0.005573273,0,
00:01.3,0.000440598,-0.002958298,-0.005561829,0,
00:01.3,0.000440598,-0.002941132,-0.005561829,0,
00:01.3,0.000429153,-0.00296402,-0.005556107,0,
00:01.3,0.000440598,-0.002952576,-0.005550385,0,
00:01.3,0.00044632,-0.002941132,-0.005561829,0,
00:01.3,0.00044632,-0.002946854,-0.005556107,0,
00:01.3,0.000434875,-0.002958298,-0.005556107,0,
00:01.3,0.000429153,-0.002975464,-0.005556107,0,
00:01.3,0.000423431,-0.002958298,-0.005550385,0,
00:01.3,0.000429153,-0.002969742,-0.005550385,0,
00:01.3,0.000423431,-0.002975464,-0.005521774,0,
00:01.3,0.000434875,-0.002946854,-0.00551033,0,
00:01.3,0.00044632,-0.002958298,-0.005544662,0,
00:01.3,0.000411987,-0.002946854,-0.005550385,0,
00:01.3,0.000366211,-0.002929688,-0.005521774,0,
00:01.3,0.000406265,-0.002918243,-0.005516052,0,
00:01.4,0.000480652,-0.002929688,-0.005527496,0,
00:01.4,0.000469208,-0.002952576,-0.00553894,0,
00:01.4,0.000452042,-0.002929688,-0.005521774,0,
00:01.4,0.000452042,-0.002929688,-0.005516052,0,
00:01.4,0.000463486,-0.002912521,-0.005516052,0,
00:01.4,0.00044632,-0.00293541,-0.005516052,0,
00:01.4,0.000429153,-0.002946854,-0.005504608,0,
00:01.4,0.000429153,-0.00293541,-0.005504608,0,
00:01.4,0.000429153,-0.00293541,-0.005504608,0,
00:01.4,0.00044632,-0.002923965,-0.005504608,0,
00:01.4,0.00044632,-0.002918243,-0.00551033,0,
00:01.4,0.000429153,-0.002941132,-0.005493164,0,
00:01.4,0.000440598,-0.00293541,-0.005493164,0,
00:01.4,0.00044632,-0.002912521,-0.005504608,0,
00:01.4,0.000440598,-0.002878189,-0.005493164,0,
00:01.4,0.000440598,-0.002929688,-0.005487442,0,
00:01.4,0.000434875,-0.002946854,-0.005487442,0,
00:01.4,0.000434875,-0.002941132,-0.005475998,0,
00:01.4,0.000440598,-0.002923965,-0.005475998,0,
00:01.4,0.000440598,-0.002918243,-0.005475998,0,
00:01.4,0.00044632,-0.002912521,-0.005475998,0,
00:01.4,0.00044632,-0.002912521,-0.005475998,0,
00:01.4,0.000434875,-0.002906799,-0.00548172,0,
00:01.4,0.000423431,-0.002901077,-0.005458832,0,
00:01.4,0.000411987,-0.002912521,-0.005441666,0,
00:01.5,0.000452042,-0.002918243,-0.005470276,0,
00:01.5,0.000452042,-0.002912521,-0.005487442,0,
00:01.5,0.000440598,-0.002901077,-0.005470276,0,
00:01.5,0.000429153,-0.002906799,-0.005458832,0,
00:01.5,0.000417709,-0.002901077,-0.005447388,0,
00:01.5,0.000429153,-0.002878189,-0.00545311,0,
00:01.5,0.000469208,-0.002923965,-0.005441666,0,
00:01.5,0.00044632,-0.002929688,-0.0054245,0,
00:01.5,0.000457764,-0.002895355,-0.005447388,0,
00:01.5,0.000463486,-0.002901077,-0.005447388,0,
00:01.5,0.00044632,-0.002906799,-0.005435944,0,
00:01.5,0.000423431,-0.002895355,-0.005430222,0,
00:01.5,0.000423431,-0.002901077,-0.005435944,0,
00:01.5,0.000457764,-0.002912521,-0.005418777,0,
00:01.5,0.00047493,-0.002901077,-0.005447388,0,
00:01.5,0.000463486,-0.002889633,-0.005435944,0,
00:01.5,0.000463486,-0.002889633,-0.005430222,0,
00:01.5,0.000457764,-0.002895355,-0.0054245,0,
00:01.5,0.00044632,-0.002912521,-0.005435944,0,
00:01.5,0.00044632,-0.002923965,-0.005430222,0,
00:01.5,0.000452042,-0.002901077,-0.0054245,0,
00:01.5,0.000463486,-0.002872467,-0.0054245,0,
00:01.5,0.000469208,-0.002855301,-0.005418777,0,
00:01.5,0.000463486,-0.002861023,-0.005418777,0,
00:01.5,0.000457764,-0.002866745,-0.005418777,0,
00:01.6,0.000452042,-0.002883911,-0.005413055,0,
00:01.6,0.000457764,-0.002866745,-0.005413055,0,
00:01.6,0.000457764,-0.002861023,-0.0054245,0,
00:01.6,0.00047493,-0.002855301,-0.005418777,0,
00:01.6,0.00044632,-0.002889633,-0.005413055,0,
00:01.6,0.00044632,-0.002889633,-0.005401611,0,
00:01.6,0.00044632,-0.002883911,-0.005401611,0,
00:01.6,0.000457764,-0.002866745,-0.005413055,0,
00:01.6,0.000452042,-0.002872467,-0.005384445,0,
00:01.6,0.00044632,-0.002872467,-0.005390167,0,
00:01.6,0.000440598,-0.002866745,-0.005401611,0,
00:01.6,0.000434875,-0.002872467,-0.005378723,0,
00:01.6,0.000434875,-0.002878189,-0.005384445,0,
00:01.6,0.000469208,-0.002872467,-0.005407333,0,
00:01.6,0.00047493,-0.002878189,-0.005395889,0,
00:01.6,0.000457764,-0.002866745,-0.005395889,0,
00:01.6,0.000452042,-0.002878189,-0.005384445,0,
00:01.6,0.000452042,-0.002855301,-0.005378723,0,
00:01.6,0.000463486,-0.002832413,-0.005395889,0,
00:01.6,0.000434875,-0.002872467,-0.005384445,0,
00:01.6,0.000417709,-0.002866745,-0.005350113,0,
00:01.6,0.000492096,-0.002855301,-0.005390167,0,
00:01.6,0.000480652,-0.002895355,-0.005407333,0,
00:01.6,0.000457764,-0.002878189,-0.005390167,0,
00:01.6,0.00047493,-0.002866745,-0.005384445,0,
00:01.7,0.000486374,-0.002849579,-0.005384445,0,
00:01.7,0.000463486,-0.002872467,-0.005390167,0,
00:01.7,0.000463486,-0.002872467,-0.005390167,0,
00:01.7,0.000497818,-0.002861023,-0.005384445,0,
00:01.7,0.000492096,-0.002843857,-0.005384445,0,
00:01.7,0.000480652,-0.002849579,-0.005378723,0,
00:01.7,0.00047493,-0.002849579,-0.005390167,0,
00:01.7,0.000469208,-0.002849579,-0.005378723,0,
00:01.7,0.000469208,-0.002861023,-0.005378723,0,
00:01.7,0.000469208,-0.002843857,-0.005384445,0,
00:01.7,0.000463486,-0.002861023,-0.005378723,0,
00:01.7,0.000463486,-0.002872467,-0.005384445,0,
00:01.7,0.00047493,-0.002843857,-0.005401611,0,
00:01.7,0.000469208,-0.002866745,-0.005395889,0,
00:01.7,0.000463486,-0.002866745,-0.005378723,0,
00:01.7,0.000469208,-0.002861023,-0.005390167,0,
00:01.7,0.000480652,-0.002843857,-0.005373001,0,
00:01.7,0.000463486,-0.002849579,-0.005390167,0,
00:01.7,0.000429153,-0.002878189,-0.005367279,0,
00:01.7,0.000463486,-0.002872467,-0.005361557,0,
00:01.7,0.000480652,-0.002861023,-0.005384445,0,
00:01.7,0.000480652,-0.002855301,-0.005373001,0,
00:01.7,0.000469208,-0.002855301,-0.005395889,0,
00:01.7,0.000457764,-0.002849579,-0.005407333,0,
00:01.7,0.00044632,-0.002861023,-0.005378723,0,
00:01.8,0.000469208,-0.002872467,-0.005384445,0,
00:01.8,0.00050354,-0.002866745,-0.005395889,0,
00:01.8,0.00050354,-0.002861023,-0.005401611,0,
00:01.8,0.000492096,-0.002838135,-0.005390167,0,
00:01.8,0.000480652,-0.002872467,-0.005384445,0,
00:01.8,0.000480652,-0.002901077,-0.005401611,0,
00:01.8,0.000497818,-0.002855301,-0.005401611,0,
00:01.8,0.000492096,-0.002855301,-0.005401611,0,
00:01.8,0.000492096,-0.002843857,-0.005401611,0,
00:01.8,0.000492096,-0.002838135,-0.005407333,0,
00:01.8,0.00047493,-0.002866745,-0.005395889,0,
00:01.8,0.000469208,-0.002889633,-0.005395889,0,
00:01.8,0.000469208,-0.002889633,-0.005401611,0,
00:01.8,0.000480652,-0.002889633,-0.005401611,0,
00:01.8,0.000492096,-0.002872467,-0.005401611,0,
00:01.8,0.000486374,-0.002866745,-0.005401611,0,
00:01.8,0.000486374,-0.002861023,-0.005407333,0,
00:01.8,0.000497818,-0.002832413,-0.0054245,0,
00:01.8,0.00050354,-0.002826691,-0.005430222,0,
00:01.8,0.000497818,-0.002849579,-0.005430222,0,
00:01.8,0.000486374,-0.002861023,-0.005435944,0,
00:01.8,0.000452042,-0.002878189,-0.005413055,0,
00:01.8,0.00044632,-0.002861023,-0.005390167,0,
00:01.8,0.000492096,-0.002849579,-0.005435944,0,
00:01.8,0.00053215,-0.002855301,-0.00545311,0,
00:01.9,0.000514984,-0.002849579,-0.005447388,0,
00:01.9,0.000497818,-0.002861023,-0.005435944,0,
00:01.9,0.000492096,-0.002866745,-0.005435944,0,
00:01.9,0.000509262,-0.002861023,-0.005447388,0,
00:01.9,0.000514984,-0.002855301,-0.005464554,0,
00:01.9,0.000520706,-0.002843857,-0.005464554,0,
00:01.9,0.00050354,-0.002861023,-0.005464554,0,
00:01.9,0.000509262,-0.002832413,-0.005464554,0,
00:01.9,0.000509262,-0.002855301,-0.005458832,0,
00:01.9,0.000509262,-0.002883911,-0.005458832,0,
00:01.9,0.000514984,-0.002855301,-0.005464554,0,
00:01.9,0.000526428,-0.002832413,-0.005475998,0,
00:01.9,0.000520706,-0.002843857,-0.005487442,0,
00:01.9,0.000526428,-0.002861023,-0.005487442,0,
00:01.9,0.000514984,-0.002872467,-0.005487442,0,
00:01.9,0.000509262,-0.002866745,-0.005487442,0,
00:01.9,0.000526428,-0.002861023,-0.005493164,0,
00:01.9,0.00053215,-0.002849579,-0.005504608,0,
00:01.9,0.00053215,-0.002849579,-0.005516052,0,
00:01.9,0.000520706,-0.002866745,-0.005521774,0,
00:01.9,0.000520706,-0.002861023,-0.005533218,0,
00:01.9,0.000509262,-0.002872467,-0.00553894,0,
00:01.9,0.000514984,-0.002883911,-0.005527496,0,
00:01.9,0.000543594,-0.002861023,-0.00553894,0,
00:01.9,0.000543594,-0.002849579,-0.00553894,0,
00:02.0,0.000526428,-0.002872467,-0.00553894,0,
00:02.0,0.000514984,-0.002883911,-0.005550385,0,
00:02.0,0.000543594,-0.002895355,-0.005573273,0,
00:02.0,0.00056076,-0.002872467,-0.005578995,0,
00:02.0,0.000555038,-0.002861023,-0.005590439,0,
00:02.0,0.000543594,-0.002866745,-0.005590439,0,
00:02.0,0.000549316,-0.002889633,-0.005596161,0,
00:02.0,0.000555038,-0.002878189,-0.005601883,0,
00:02.0,0.000555038,-0.002855301,-0.005613327,0,
00:02.0,0.000537872,-0.002878189,-0.005607605,0,
00:02.0,0.000537872,-0.002883911,-0.005607605,0,
00:02.0,0.000543594,-0.002883911,-0.005624771,0,
00:00:02,0.00056076,-0.002866745,-0.005653381,0,
00:02.0,0.00056076,-0.002872467,-0.005641937,0,
00:02.0,0.00056076,-0.002878189,-0.005641937,0,
00:02.0,0.000577927,-0.002883911,-0.005647659,0,
00:02.0,0.000572205,-0.002861023,-0.00567627,0,
00:02.0,0.000577927,-0.002866745,-0.005659103,0,
00:02.0,0.000566483,-0.002901077,-0.00567627,0,
00:02.0,0.00056076,-0.002901077,-0.005681992,0,
00:02.0,0.000555038,-0.002895355,-0.005681992,0,
00:02.0,0.000543594,-0.002878189,-0.005710602,0,
00:02.0,0.000583649,-0.002872467,-0.005716324,0,
00:02.0,0.000600815,-0.002872467,-0.00573349,0,
00:02.0,0.000577927,-0.002901077,-0.005739212,0,
00:02.1,0.000583649,-0.002889633,-0.005744934,0,
00:02.1,0.000589371,-0.002872467,-0.005756378,0,
00:02.1,0.000572205,-0.002889633,-0.005756378,0,
00:02.1,0.000589371,-0.002901077,-0.005773544,0,
00:02.1,0.000589371,-0.002889633,-0.00579071,0,
00:02.1,0.000589371,-0.002895355,-0.005796432,0,
00:02.1,0.000577927,-0.002912521,-0.005802155,0,
00:02.1,0.000577927,-0.002901077,-0.005819321,0,
00:02.1,0.000600815,-0.002872467,-0.005830765,0,
00:02.1,0.000612259,-0.002849579,-0.005836487,0,
00:02.1,0.000612259,-0.002895355,-0.005836487,0,
00:02.1,0.000606537,-0.002901077,-0.005847931,0,
00:02.1,0.000589371,-0.002901077,-0.005882263,0,
00:02.1,0.000606537,-0.002895355,-0.005887985,0,
00:02.1,0.000595093,-0.002889633,-0.005905151,0,
00:02.1,0.000595093,-0.002895355,-0.005887985,0,
00:02.1,0.000600815,-0.002901077,-0.005905151,0,
00:02.1,0.000566483,-0.002901077,-0.005916595,0,
00:02.1,0.000600815,-0.002918243,-0.00592804,0,
00:02.1,0.000635147,-0.002889633,-0.005962372,0,
00:02.1,0.000635147,-0.002878189,-0.00595665,0,
00:02.1,0.000663757,-0.002878189,-0.005968094,0,
00:02.1,0.000640869,-0.002929688,-0.005996704,0,
00:02.1,0.000612259,-0.002941132,-0.00598526,0,
00:02.1,0.000606537,-0.002923965,-0.00598526,0,
00:02.2,0.000635147,-0.002901077,-0.006008148,0,
00:02.2,0.000640869,-0.002901077,-0.00601387,0,
00:02.2,0.000623703,-0.002923965,-0.006031036,0,
00:02.2,0.000629425,-0.002923965,-0.006048203,0,
00:02.2,0.000612259,-0.002912521,-0.006071091,0,
00:02.2,0.000606537,-0.002918243,-0.006076813,0,
00:02.2,0.000617981,-0.002929688,-0.006059647,0,
00:02.2,0.000658035,-0.002912521,-0.006105423,0,
00:02.2,0.000663757,-0.002895355,-0.006122589,0,
00:02.2,0.000640869,-0.002912521,-0.006122589,0,
00:02.2,0.000629425,-0.002946854,-0.006134033,0,
00:02.2,0.000635147,-0.002941132,-0.006151199,0,
00:02.2,0.000640869,-0.002923965,-0.00617981,0,
00:02.2,0.000635147,-0.002895355,-0.006185532,0,
00:02.2,0.000629425,-0.002923965,-0.006191254,0,
00:02.2,0.000658035,-0.002946854,-0.006185532,0,
00:02.2,0.000663757,-0.002929688,-0.00620842,0,
00:02.2,0.000669479,-0.002912521,-0.00623703,0,
00:02.2,0.000663757,-0.002912521,-0.006242752,0,
00:02.2,0.000663757,-0.002918243,-0.006259918,0,
00:02.2,0.000658035,-0.002929688,-0.006271362,0,
00:02.2,0.000663757,-0.00293541,-0.006282806,0,
00:02.2,0.000629425,-0.002958298,-0.006288528,0,
00:02.2,0.000629425,-0.002958298,-0.006277084,0,
00:02.2,0.000663757,-0.00293541,-0.006305695,0,
00:02.3,0.000629425,-0.002941132,-0.006334305,0,
00:02.3,0.000663757,-0.002941132,-0.006340027,0,
00:02.3,0.000709534,-0.002929688,-0.006385803,0,
00:02.3,0.000680923,-0.002923965,-0.006397247,0,
00:02.3,0.000686646,-0.002952576,-0.006402969,0,
00:02.3,0.000686646,-0.002969742,-0.006414413,0,
00:02.3,0.000686646,-0.002958298,-0.006420135,0,
00:02.3,0.000686646,-0.002958298,-0.006437302,0,
00:02.3,0.000692368,-0.002952576,-0.006448746,0,
00:02.3,0.000692368,-0.002958298,-0.00646019,0,
00:02.3,0.00069809,-0.002952576,-0.006477356,0,
00:02.3,0.000686646,-0.002958298,-0.006494522,0,
00:02.3,0.000680923,-0.00296402,-0.00651741,0,
00:02.3,0.000680923,-0.00296402,-0.006511688,0,
00:02.3,0.000675201,-0.002986908,-0.006534576,0,
00:02.3,0.000646591,-0.002986908,-0.006546021,0,
00:02.3,0.000669479,-0.002975464,-0.006563187,0,
00:02.3,0.000692368,-0.002986908,-0.006568909,0,
00:02.3,0.00069809,-0.002981186,-0.006574631,0,
00:02.3,0.000709534,-0.002969742,-0.006591797,0,
00:02.3,0.000703812,-0.002975464,-0.006608963,0,
00:02.3,0.000692368,-0.00299263,-0.006626129,0,
00:02.3,0.000692368,-0.003004074,-0.006637573,0,
00:02.3,0.00069809,-0.002986908,-0.006660461,0,
00:02.3,0.00069809,-0.002981186,-0.006677628,0,
00:02.4,0.000692368,-0.00299263,-0.006677628,0,
00:02.4,0.000686646,-0.003004074,-0.006694794,0,
00:02.4,0.00069809,-0.003004074,-0.006723404,0,
00:02.4,0.00069809,-0.003004074,-0.00674057,0,
00:02.4,0.00069809,-0.003004074,-0.006746292,0,
00:02.4,0.000692368,-0.003015518,-0.006757736,0,
00:02.4,0.000703812,-0.003004074,-0.00676918,0,
00:02.4,0.000703812,-0.003015518,-0.006786346,0,
00:02.4,0.000692368,-0.00299263,-0.006792068,0,
00:02.4,0.000663757,-0.002998352,-0.006780624,0,
00:02.4,0.000680923,-0.003026962,-0.006780624,0,
00:02.4,0.000715256,-0.00302124,-0.006843567,0,
00:02.4,0.0007267,-0.003026962,-0.006883621,0,
00:02.4,0.000709534,-0.00304985,-0.006855011,0,
00:02.4,0.000709534,-0.003061295,-0.006855011,0,
00:02.4,0.000715256,-0.00304985,-0.006895065,0,
00:02.4,0.000709534,-0.00304985,-0.006906509,0,
00:02.4,0.000686646,-0.00304985,-0.006917953,0,
00:02.4,0.000663757,-0.003044128,-0.006946564,0,
00:02.4,0.000669479,-0.003072739,-0.00693512,0,
00:02.4,0.000715256,-0.003072739,-0.00693512,0,
00:02.4,0.0007267,-0.003067017,-0.00696373,0,
00:02.4,0.000720978,-0.003061295,-0.006969452,0,
00:02.4,0.00069809,-0.003055573,-0.006980896,0,
00:02.4,0.00069809,-0.00304985,-0.007003784,0,
00:02.5,0.000732422,-0.003038406,-0.007032394,0,
00:02.5,0.000715256,-0.003055573,-0.007032394,0,
00:02.5,0.000703812,-0.003067017,-0.007066727,0,
00:02.5,0.000720978,-0.003084183,-0.007072449,0,
00:02.5,0.0007267,-0.003067017,-0.007078171,0,
00:02.5,0.000715256,-0.003078461,-0.007112503,0,
00:02.5,0.000703812,-0.003107071,-0.007106781,0,
00:02.5,0.000703812,-0.003095627,-0.007112503,0,
00:02.5,0.000715256,-0.003095627,-0.007129669,0,
00:02.5,0.000709534,-0.003095627,-0.007141113,0,
00:02.5,0.000703812,-0.003107071,-0.007141113,0,
00:02.5,0.000715256,-0.003089905,-0.007152557,0,
00:02.5,0.000709534,-0.003089905,-0.007175446,0,
00:02.5,0.000686646,-0.003118515,-0.007169724,0,
00:02.5,0.000686646,-0.003118515,-0.00718689,0,
00:02.5,0.000692368,-0.003129959,-0.007232666,0,
00:02.5,0.000715256,-0.003112793,-0.007232666,0,
00:02.5,0.000743866,-0.003112793,-0.007226944,0,
00:02.5,0.000720978,-0.003118515,-0.007232666,0,
00:02.5,0.000703812,-0.003095627,-0.007238388,0,
00:02.5,0.000715256,-0.003118515,-0.007266998,0,
00:02.5,0.0007267,-0.003118515,-0.007307053,0,
00:02.5,0.000749588,-0.003118515,-0.007301331,0,
00:02.5,0.0007267,-0.003135681,-0.007307053,0,
00:02.5,0.00069809,-0.003135681,-0.007312775,0,
00:02.6,0.000669479,-0.003141403,-0.007324219,0,
00:02.6,0.000749588,-0.003118515,-0.007364273,0,
00:02.6,0.00075531,-0.003135681,-0.007369995,0,
00:02.6,0.000738144,-0.003112793,-0.007364273,0,
00:02.6,0.0007267,-0.003118515,-0.007364273,0,
00:02.6,0.000720978,-0.003135681,-0.007375717,0,
00:02.6,0.000715256,-0.003135681,-0.007387161,0,
00:02.6,0.000720978,-0.003124237,-0.007404327,0,
00:02.6,0.000715256,-0.003112793,-0.007421494,0,
00:02.6,0.000720978,-0.003112793,-0.007427216,0,
00:02.6,0.000732422,-0.003078461,-0.007432938,0,
00:02.6,0.000732422,-0.003118515,-0.007450104,0,
00:02.6,0.000720978,-0.003135681,-0.00746727,0,
00:02.6,0.0007267,-0.003107071,-0.00746727,0,
00:02.6,0.000715256,-0.003141403,-0.00746727,0,
00:02.6,0.000709534,-0.003181458,-0.007478714,0,
00:02.6,0.000720978,-0.003170013,-0.00749588,0,
00:02.6,0.000720978,-0.003158569,-0.00749588,0,
00:02.6,0.000720978,-0.003152847,-0.007518768,0,
00:02.6,0.000715256,-0.003147125,-0.007518768,0,
00:02.6,0.000715256,-0.003164291,-0.007513046,0,
00:02.6,0.000720978,-0.003152847,-0.007535934,0,
00:02.6,0.000715256,-0.003141403,-0.007564545,0,
00:02.6,0.000692368,-0.003141403,-0.007570267,0,
00:02.6,0.000652313,-0.003192902,-0.007553101,0,
00:02.7,0.0007267,-0.003192902,-0.007547379,0,
00:02.7,0.000743866,-0.00318718,-0.007587433,0,
00:02.7,0.000720978,-0.00318718,-0.007587433,0,
00:02.7,0.0007267,-0.003181458,-0.007598877,0,
00:02.7,0.000720978,-0.003175735,-0.007621765,0,
00:02.7,0.000709534,-0.003192902,-0.007627487,0,
00:02.7,0.000709534,-0.003198624,-0.007633209,0,
00:02.7,0.000720978,-0.003181458,-0.007644653,0,
00:02.7,0.000738144,-0.003164291,-0.007661819,0,
00:02.7,0.000732422,-0.003181458,-0.007661819,0,
00:02.7,0.000732422,-0.003158569,-0.007684708,0,
00:02.7,0.000720978,-0.003170013,-0.00769043,0,
00:02.7,0.000703812,-0.00318718,-0.007696152,0,
00:02.7,0.00069809,-0.003204346,-0.007701874,0,
00:02.7,0.000692368,-0.003210068,-0.007678986,0,
00:02.7,0.00069809,-0.003221512,-0.00769043,0,
00:02.7,0.000715256,-0.003204346,-0.007701874,0,
00:02.7,0.000715256,-0.003181458,-0.007713318,0,
00:02.7,0.000720978,-0.003181458,-0.007730484,0,
00:02.7,0.000709534,-0.00321579,-0.00774765,0,
00:02.7,0.000703812,-0.00321579,-0.007730484,0,
00:02.7,0.000715256,-0.003198624,-0.007741928,0,
00:02.7,0.000715256,-0.003192902,-0.007759094,0,
00:02.7,0.000709534,-0.003227234,-0.007770538,0,
00:02.7,0.000720978,-0.003221512,-0.00777626,0,
00:02.8,0.000720978,-0.00321579,-0.007770538,0,
00:02.8,0.0007267,-0.003210068,-0.00777626,0,
00:02.8,0.000720978,-0.003204346,-0.007804871,0,
00:02.8,0.000720978,-0.003204346,-0.007816315,0,
00:02.8,0.000703812,-0.003210068,-0.007810593,0,
00:02.8,0.000732422,-0.00318718,-0.007799149,0,
00:02.8,0.000732422,-0.00318718,-0.007822037,0,
00:02.8,0.000738144,-0.003198624,-0.007850647,0,
00:02.8,0.0007267,-0.003221512,-0.007867813,0,
00:02.8,0.000692368,-0.003267288,-0.007850647,0,
00:02.8,0.000703812,-0.003261566,-0.007833481,0,
00:02.8,0.000720978,-0.0032444,-0.007839203,0,
00:02.8,0.0007267,-0.003227234,-0.007844925,0,
00:02.8,0.0007267,-0.003210068,-0.007862091,0,
00:02.8,0.000709534,-0.0032444,-0.007862091,0,
00:02.8,0.000680923,-0.003255844,-0.007867813,0,
00:02.8,0.000680923,-0.003255844,-0.007862091,0,
00:02.8,0.000732422,-0.0032444,-0.007879257,0,
00:02.8,0.000743866,-0.003238678,-0.007896423,0,
00:02.8,0.000715256,-0.003255844,-0.007890701,0,
00:02.8,0.000686646,-0.003267288,-0.007879257,0,
00:02.8,0.000658035,-0.003267288,-0.007884979,0,
00:02.8,0.000715256,-0.003261566,-0.007907867,0,
00:02.8,0.00075531,-0.0032444,-0.007930756,0,
00:02.8,0.000749588,-0.003232956,-0.0079422,0,
00:02.9,0.0007267,-0.0032444,-0.007913589,0,
00:02.9,0.000715256,-0.003261566,-0.007936478,0,
00:02.9,0.000732422,-0.003267288,-0.007925034,0,
00:02.9,0.000738144,-0.003261566,-0.007936478,0,
00:02.9,0.000732422,-0.003261566,-0.007976532,0,
00:02.9,0.000720978,-0.003284454,-0.007953644,0,
00:02.9,0.000720978,-0.003284454,-0.007959366,0,
00:02.9,0.0007267,-0.003278732,-0.007959366,0,
00:02.9,0.000720978,-0.003278732,-0.007965088,0,
00:02.9,0.000720978,-0.003284454,-0.00797081,0,
00:02.9,0.000720978,-0.003278732,-0.007976532,0,
00:02.9,0.000709534,-0.003295898,-0.007976532,0,
00:02.9,0.000703812,-0.003307343,-0.007976532,0,
00:02.9,0.000720978,-0.00327301,-0.007987976,0,
00:02.9,0.000715256,-0.003278732,-0.007993698,0,
00:02.9,0.000692368,-0.003324509,-0.007976532,0,
00:02.9,0.000709534,-0.00330162,-0.007982254,0,
00:02.9,0.000703812,-0.003284454,-0.00799942,0,
00:02.9,0.00069809,-0.003278732,-0.008010864,0,
00:02.9,0.0007267,-0.00327301,-0.008016586,0,
00:02.9,0.000720978,-0.003284454,-0.008016586,0,
00:02.9,0.000703812,-0.003313065,-0.008022308,0,
00:02.9,0.00069809,-0.003313065,-0.00802803,0,
00:02.9,0.000669479,-0.00330162,-0.00802803,0,
00:02.9,0.000680923,-0.003295898,-0.008033752,0,
00:03.0,0.000715256,-0.003307343,-0.008033752,0,
00:03.0,0.000732422,-0.003267288,-0.008033752,0,
00:03.0,0.000709534,-0.003313065,-0.008033752,0,
00:03.0,0.00069809,-0.003330231,-0.00802803,0,
00:03.0,0.000703812,-0.003307343,-0.00802803,0,
00:03.0,0.00069809,-0.003313065,-0.008039474,0,
00:03.0,0.000680923,-0.003324509,-0.008039474,0,
00:03.0,0.00069809,-0.003295898,-0.008039474,0,
00:03.0,0.00069809,-0.00330162,-0.008050919,0,
00:03.0,0.000686646,-0.003313065,-0.008050919,0,
00:03.0,0.000692368,-0.003290176,-0.008050919,0,
00:03.0,0.000680923,-0.003307343,-0.008039474,0,
00:00:03,0.000686646,-0.003307343,-0.008045197,0,
00:03.0,0.000680923,-0.003318787,-0.008056641,0,
00:03.0,0.000680923,-0.003335953,-0.008039474,0,
00:03.0,0.000663757,-0.003335953,-0.008033752,0,
00:03.0,0.000658035,-0.003318787,-0.008062363,0,
00:03.0,0.000669479,-0.003307343,-0.008073807,0,
00:03.0,0.000692368,-0.003307343,-0.008062363,0,
00:03.0,0.000669479,-0.003307343,-0.008050919,0,
00:03.0,0.000606537,-0.003318787,-0.008056641,0,
00:03.0,0.000663757,-0.003318787,-0.008068085,0,
00:03.0,0.000680923,-0.003313065,-0.008062363,0,
00:03.0,0.000675201,-0.003313065,-0.008073807,0,
00:03.0,0.000692368,-0.003324509,-0.008090973,0,
00:03.1,0.000715256,-0.003341675,-0.008085251,0,
00:03.1,0.000680923,-0.003330231,-0.008090973,0,
00:03.1,0.000675201,-0.003335953,-0.008079529,0,
00:03.1,0.000686646,-0.003341675,-0.008079529,0,
00:03.1,0.000692368,-0.003324509,-0.008073807,0,
00:03.1,0.000686646,-0.003341675,-0.008073807,0,
00:03.1,0.000686646,-0.003341675,-0.008085251,0,
00:03.1,0.000680923,-0.003353119,-0.008085251,0,
00:03.1,0.000680923,-0.003335953,-0.008090973,0,
00:03.1,0.000669479,-0.003347397,-0.008085251,0,
00:03.1,0.000663757,-0.003370285,-0.008079529,0,
00:03.1,0.000669479,-0.003353119,-0.008090973,0,
00:03.1,0.000675201,-0.003335953,-0.008096695,0,
00:03.1,0.000669479,-0.003347397,-0.008108139,0,
00:03.1,0.000675201,-0.003335953,-0.008113861,0,
00:03.1,0.000663757,-0.003353119,-0.008102417,0,
00:03.1,0.000652313,-0.003370285,-0.008090973,0,
00:03.1,0.000669479,-0.003324509,-0.008085251,0,
00:03.1,0.000669479,-0.003341675,-0.008090973,0,
00:03.1,0.000658035,-0.003370285,-0.008079529,0,
00:03.1,0.000646591,-0.003393173,-0.008073807,0,
00:03.1,0.000646591,-0.003381729,-0.008062363,0,
00:03.1,0.000663757,-0.003376007,-0.008090973,0,
00:03.1,0.000652313,-0.003370285,-0.008090973,0,
00:03.1,0.000663757,-0.003364563,-0.008090973,0,
00:03.2,0.000669479,-0.003370285,-0.008090973,0,
00:03.2,0.000635147,-0.003381729,-0.008090973,0,
00:03.2,0.000629425,-0.003376007,-0.008090973,0,
00:03.2,0.000669479,-0.003341675,-0.008108139,0,
00:03.2,0.000663757,-0.003364563,-0.008096695,0,
00:03.2,0.000663757,-0.003370285,-0.008090973,0,
00:03.2,0.000635147,-0.003387451,-0.008096695,0,
00:03.2,0.000617981,-0.003387451,-0.008096695,0,
00:03.2,0.000629425,-0.003376007,-0.008096695,0,
00:03.2,0.000652313,-0.003381729,-0.008090973,0,
00:03.2,0.000663757,-0.003358841,-0.008085251,0,
00:03.2,0.000663757,-0.003353119,-0.008090973,0,
00:03.2,0.000658035,-0.003358841,-0.008102417,0,
00:03.2,0.000646591,-0.003381729,-0.008108139,0,
00:03.2,0.000658035,-0.003341675,-0.008102417,0,
00:03.2,0.000640869,-0.003381729,-0.008085251,0,
00:03.2,0.000623703,-0.003404617,-0.008090973,0,
00:03.2,0.000646591,-0.003381729,-0.008102417,0,
00:03.2,0.000658035,-0.003381729,-0.008068085,0,
00:03.2,0.000646591,-0.003387451,-0.008045197,0,
00:03.2,0.000635147,-0.003376007,-0.008073807,0,
00:03.2,0.000635147,-0.003376007,-0.008096695,0,
00:03.2,0.000640869,-0.003376007,-0.008113861,0,
00:03.2,0.000623703,-0.003376007,-0.008113861,0,
00:03.2,0.000629425,-0.003364563,-0.008079529,0,
00:03.3,0.000612259,-0.003376007,-0.008085251,0,
00:03.3,0.000583649,-0.003393173,-0.008090973,0,
00:03.3,0.000635147,-0.003393173,-0.008090973,0,
00:03.3,0.000652313,-0.003398895,-0.008079529,0,
00:03.3,0.000640869,-0.003387451,-0.008085251,0,
00:03.3,0.000640869,-0.003381729,-0.008079529,0,
00:03.3,0.000646591,-0.003376007,-0.008079529,0,
00:03.3,0.000623703,-0.003387451,-0.008096695,0,
00:03.3,0.000617981,-0.003416061,-0.008068085,0,
00:03.3,0.000623703,-0.003404617,-0.008062363,0,
00:03.3,0.000629425,-0.003393173,-0.008068085,0,
00:03.3,0.000623703,-0.003410339,-0.008079529,0,
00:03.3,0.000617981,-0.003404617,-0.008068085,0,
00:03.3,0.000623703,-0.003364563,-0.008079529,0,
00:03.3,0.000617981,-0.003404617,-0.008079529,0,
00:03.3,0.000617981,-0.003416061,-0.008062363,0,
00:03.3,0.000623703,-0.003410339,-0.008056641,0,
00:03.3,0.000612259,-0.003404617,-0.008073807,0,
00:03.3,0.000600815,-0.003404617,-0.008079529,0,
00:03.3,0.000606537,-0.003410339,-0.008062363,0,
00:03.3,0.000612259,-0.003410339,-0.008050919,0,
00:03.3,0.000600815,-0.003398895,-0.008050919,0,
00:03.3,0.000623703,-0.003404617,-0.008056641,0,
00:03.3,0.000629425,-0.003404617,-0.008073807,0,
00:03.3,0.000629425,-0.003416061,-0.008073807,0,
00:03.4,0.000617981,-0.003393173,-0.008050919,0,
00:03.4,0.000589371,-0.003410339,-0.008039474,0,
00:03.4,0.000617981,-0.003444672,-0.008033752,0,
00:03.4,0.000640869,-0.003398895,-0.008050919,0,
00:03.4,0.000612259,-0.003410339,-0.008056641,0,
00:03.4,0.000572205,-0.003433228,-0.008045197,0,
00:03.4,0.000606537,-0.003427505,-0.008033752,0,
00:03.4,0.000629425,-0.003398895,-0.008039474,0,
00:03.4,0.000595093,-0.003427505,-0.00802803,0,
00:03.4,0.000612259,-0.00343895,-0.00802803,0,
00:03.4,0.000617981,-0.00343895,-0.008022308,0,
00:03.4,0.000617981,-0.003427505,-0.00802803,0,
00:03.4,0.000617981,-0.003404617,-0.008022308,0,
00:03.4,0.000612259,-0.003393173,-0.00802803,0,
00:03.4,0.000595093,-0.003421783,-0.008010864,0,
00:03.4,0.000600815,-0.003410339,-0.008022308,0,
00:03.4,0.000566483,-0.003416061,-0.00802803,0,
00:03.4,0.000600815,-0.003421783,-0.008010864,0,
00:03.4,0.000612259,-0.003421783,-0.008016586,0,
00:03.4,0.000606537,-0.003410339,-0.00799942,0,
00:03.4,0.000612259,-0.003398895,-0.008005142,0,
00:03.4,0.000595093,-0.003416061,-0.008016586,0,
00:03.4,0.000595093,-0.003450394,-0.008005142,0,
00:03.4,0.000606537,-0.003416061,-0.008016586,0,
00:03.4,0.000606537,-0.003404617,-0.008010864,0,
00:03.5,0.000583649,-0.00343895,-0.00799942,0,
00:03.5,0.000595093,-0.003427505,-0.008005142,0,
00:03.5,0.000595093,-0.003416061,-0.007993698,0,
00:03.5,0.000595093,-0.003416061,-0.007982254,0,
00:03.5,0.000589371,-0.003433228,-0.007987976,0,
00:03.5,0.000583649,-0.003450394,-0.007982254,0,
00:03.5,0.000577927,-0.003444672,-0.007982254,0,
00:03.5,0.000577927,-0.003444672,-0.007976532,0,
00:03.5,0.000589371,-0.003433228,-0.007965088,0,
00:03.5,0.000600815,-0.003410339,-0.007953644,0,
00:03.5,0.000583649,-0.003416061,-0.007953644,0,
00:03.5,0.000555038,-0.003421783,-0.007953644,0,
00:03.5,0.000572205,-0.003416061,-0.007947922,0,
00:03.5,0.000606537,-0.003433228,-0.007959366,0,
00:03.5,0.000595093,-0.003450394,-0.00797081,0,
00:03.5,0.000583649,-0.00346756,-0.007953644,0,
00:03.5,0.000566483,-0.003444672,-0.007965088,0,
00:03.5,0.000595093,-0.003421783,-0.0079422,0,
00:03.5,0.000612259,-0.003416061,-0.0079422,0,
00:03.5,0.000589371,-0.00343895,-0.007965088,0,
00:03.5,0.000577927,-0.003456116,-0.007936478,0,
00:03.5,0.000555038,-0.003473282,-0.007913589,0,
00:03.5,0.000549316,-0.003456116,-0.007919312,0,
00:03.5,0.000600815,-0.003433228,-0.007913589,0,
00:03.5,0.000617981,-0.003416061,-0.007930756,0,
00:03.6,0.000583649,-0.00346756,-0.007925034,0,
00:03.6,0.000583649,-0.003461838,-0.007907867,0,
00:03.6,0.000577927,-0.003444672,-0.007919312,0,
00:03.6,0.000572205,-0.003450394,-0.007925034,0,
00:03.6,0.000572205,-0.003444672,-0.007907867,0,
00:03.6,0.000583649,-0.003456116,-0.007919312,0,
00:03.6,0.000572205,-0.003479004,-0.007907867,0,
00:03.6,0.000566483,-0.003473282,-0.007896423,0,
00:03.6,0.000572205,-0.003461838,-0.007902145,0,
00:03.6,0.000589371,-0.003450394,-0.007907867,0,
00:03.6,0.000577927,-0.003444672,-0.007884979,0,
00:03.6,0.000572205,-0.003433228,-0.007879257,0,
00:03.6,0.000589371,-0.003456116,-0.007896423,0,
00:03.6,0.000566483,-0.003461838,-0.007879257,0,
00:03.6,0.000526428,-0.003433228,-0.007862091,0,
00:03.6,0.000555038,-0.003433228,-0.007867813,0,
00:03.6,0.00056076,-0.00349617,-0.007879257,0,
00:03.6,0.000572205,-0.003490448,-0.007873535,0,
00:03.6,0.000595093,-0.003473282,-0.007879257,0,
00:03.6,0.000589371,-0.00346756,-0.007879257,0,
00:03.6,0.000583649,-0.003484726,-0.007862091,0,
00:03.6,0.000572205,-0.003479004,-0.007862091,0,
00:03.6,0.00056076,-0.003484726,-0.007850647,0,
00:03.6,0.00056076,-0.003490448,-0.007844925,0,
00:03.6,0.000566483,-0.003473282,-0.007839203,0,
00:03.7,0.00056076,-0.003484726,-0.007844925,0,
00:03.7,0.000555038,-0.003484726,-0.007822037,0,
00:03.7,0.00056076,-0.003461838,-0.007822037,0,
00:03.7,0.000577927,-0.003461838,-0.007827759,0,
00:03.7,0.000549316,-0.00349617,-0.007822037,0,
00:03.7,0.000537872,-0.003513336,-0.007816315,0,
00:03.7,0.000543594,-0.003490448,-0.007827759,0,
00:03.7,0.00056076,-0.00346756,-0.007833481,0,
00:03.7,0.000566483,-0.003461838,-0.007816315,0,
00:03.7,0.000572205,-0.003456116,-0.007816315,0,
00:03.7,0.000555038,-0.003479004,-0.007804871,0,
00:03.7,0.000537872,-0.003507614,-0.007793427,0,
00:03.7,0.000566483,-0.003490448,-0.007787704,0,
00:03.7,0.00056076,-0.003484726,-0.007787704,0,
00:03.7,0.000549316,-0.003473282,-0.007787704,0,
00:03.7,0.000566483,-0.003490448,-0.007781982,0,
00:03.7,0.00056076,-0.003490448,-0.007770538,0,
00:03.7,0.000555038,-0.003479004,-0.00777626,0,
00:03.7,0.00056076,-0.003456116,-0.00777626,0,
00:03.7,0.00056076,-0.00346756,-0.007770538,0,
00:03.7,0.000537872,-0.003473282,-0.00774765,0,
00:03.7,0.000537872,-0.003473282,-0.00774765,0,
00:03.7,0.000543594,-0.003479004,-0.007759094,0,
00:03.7,0.000549316,-0.003461838,-0.007759094,0,
00:03.7,0.000566483,-0.003456116,-0.00774765,0,
00:03.8,0.000566483,-0.003484726,-0.007753372,0,
00:03.8,0.000566483,-0.003479004,-0.007753372,0,
00:03.8,0.00056076,-0.003473282,-0.007741928,0,
00:03.8,0.000543594,-0.003484726,-0.007736206,0,
00:03.8,0.000537872,-0.003490448,-0.007724762,0,
00:03.8,0.000537872,-0.00349617,-0.00771904,0,
00:03.8,0.000543594,-0.003501892,-0.007713318,0,
00:03.8,0.000543594,-0.003490448,-0.00771904,0,
00:03.8,0.000549316,-0.003484726,-0.007696152,0,
00:03.8,0.000543594,-0.00346756,-0.007696152,0,
00:03.8,0.000537872,-0.003484726,-0.007707596,0,
00:03.8,0.000537872,-0.003484726,-0.007713318,0,
00:03.8,0.000526428,-0.003484726,-0.007696152,0,
00:03.8,0.000520706,-0.003479004,-0.007696152,0,
00:03.8,0.00053215,-0.003461838,-0.007684708,0,
00:03.8,0.000509262,-0.003513336,-0.007673264,0,
00:03.8,0.000486374,-0.003519058,-0.007656097,0,
00:03.8,0.00053215,-0.003490448,-0.007684708,0,
00:03.8,0.00056076,-0.003473282,-0.007684708,0,
00:03.8,0.00050354,-0.003484726,-0.007661819,0,
00:03.8,0.000537872,-0.003484726,-0.007667542,0,
00:03.8,0.00056076,-0.003473282,-0.007667542,0,
00:03.8,0.000543594,-0.003479004,-0.007684708,0,
00:03.8,0.000537872,-0.003490448,-0.007650375,0,
00:03.8,0.000537872,-0.003484726,-0.007627487,0,
00:03.9,0.000543594,-0.003479004,-0.007627487,0,
00:03.9,0.000543594,-0.003473282,-0.007627487,0,
00:03.9,0.000543594,-0.003473282,-0.007633209,0,
00:03.9,0.000537872,-0.003479004,-0.007621765,0,
00:03.9,0.000537872,-0.003479004,-0.007627487,0,
00:03.9,0.000537872,-0.003473282,-0.007610321,0,
00:03.9,0.000537872,-0.003456116,-0.007616043,0,
00:03.9,0.000537872,-0.003479004,-0.007616043,0,
00:03.9,0.000543594,-0.003479004,-0.007604599,0,
00:03.9,0.000526428,-0.003484726,-0.007616043,0,
00:03.9,0.000526428,-0.003484726,-0.007593155,0,
00:03.9,0.000526428,-0.003507614,-0.007575989,0,
00:03.9,0.000526428,-0.003484726,-0.007575989,0,
00:03.9,0.00053215,-0.00346756,-0.007570267,0,
00:03.9,0.00053215,-0.003461838,-0.007575989,0,
00:03.9,0.00053215,-0.003473282,-0.007570267,0,
00:03.9,0.000526428,-0.003473282,-0.007564545,0,
00:03.9,0.000526428,-0.003473282,-0.007564545,0,
00:03.9,0.000520706,-0.003444672,-0.007575989,0,
00:03.9,0.00053215,-0.003433228,-0.007570267,0,
00:03.9,0.000520706,-0.003461838,-0.007541656,0,
00:03.9,0.00053215,-0.003490448,-0.007530212,0,
00:03.9,0.000520706,-0.003490448,-0.007547379,0,
00:03.9,0.00050354,-0.003484726,-0.007530212,0,
00:03.9,0.000497818,-0.003479004,-0.007490158,0,
00:04.0,0.000463486,-0.00346756,-0.007478714,0,
00:04.0,0.000492096,-0.00346756,-0.00749588,0,
00:04.0,0.000577927,-0.003473282,-0.007547379,0,
00:04.0,0.000577927,-0.003461838,-0.007541656,0,
00:04.0,0.000549316,-0.003456116,-0.007507324,0,
00:04.0,0.000537872,-0.003450394,-0.007490158,0,
00:04.0,0.000549316,-0.003433228,-0.007501602,0,
00:04.0,0.000543594,-0.003456116,-0.007501602,0,
00:04.0,0.000526428,-0.003484726,-0.007478714,0,
00:04.0,0.000526428,-0.00346756,-0.007472992,0,
00:04.0,0.000526428,-0.003450394,-0.007472992,0,
00:04.0,0.00053215,-0.003461838,-0.007472992,0,
00:00:04,0.00053215,-0.003456116,-0.00746727,0,
00:04.0,0.000526428,-0.003473282,-0.007461548,0,
00:04.0,0.000526428,-0.00346756,-0.007455826,0,
00:04.0,0.000526428,-0.003461838,-0.007444382,0,
00:04.0,0.000526428,-0.003456116,-0.00743866,0,
00:04.0,0.000526428,-0.003444672,-0.00743866,0,
00:04.0,0.000526428,-0.003450394,-0.007444382,0,
00:04.0,0.000514984,-0.003456116,-0.007427216,0,
00:04.0,0.000514984,-0.003450394,-0.007421494,0,
00:04.0,0.000537872,-0.003421783,-0.007427216,0,
00:04.0,0.000520706,-0.003461838,-0.007415771,0,
00:04.0,0.000509262,-0.003461838,-0.007398605,0,
00:04.0,0.00050354,-0.00346756,-0.007387161,0,
00:04.1,0.000514984,-0.003444672,-0.007381439,0,
00:04.1,0.000514984,-0.00343895,-0.007392883,0,
00:04.1,0.000514984,-0.003444672,-0.007381439,0,
00:04.1,0.000520706,-0.00346756,-0.007364273,0,
00:04.1,0.000514984,-0.003456116,-0.007358551,0,
00:04.1,0.000497818,-0.003450394,-0.007352829,0,
00:04.1,0.00047493,-0.00343895,-0.007347107,0,
00:04.1,0.000520706,-0.003444672,-0.007364273,0,
00:04.1,0.000520706,-0.003456116,-0.007347107,0,
00:04.1,0.000509262,-0.003450394,-0.007329941,0,
00:04.1,0.000469208,-0.00343895,-0.007335663,0,
00:04.1,0.000463486,-0.003450394,-0.007335663,0,
00:04.1,0.000543594,-0.003433228,-0.007335663,0,
00:04.1,0.000543594,-0.003433228,-0.007318497,0,
00:04.1,0.000520706,-0.00343895,-0.007324219,0,
00:04.1,0.000520706,-0.003410339,-0.007335663,0,
00:04.1,0.00050354,-0.003421783,-0.007312775,0,
00:04.1,0.000497818,-0.003444672,-0.007295609,0,
00:04.1,0.000514984,-0.003421783,-0.007312775,0,
00:04.1,0.000509262,-0.003433228,-0.007318497,0,
00:04.1,0.000509262,-0.003433228,-0.007278442,0,
00:04.1,0.000509262,-0.003433228,-0.00727272,0,
00:04.1,0.000509262,-0.003427505,-0.007278442,0,
00:04.1,0.000514984,-0.003416061,-0.007284164,0,
00:04.1,0.000514984,-0.003410339,-0.007278442,0,
00:04.2,0.00050354,-0.003404617,-0.007284164,0,
00:04.2,0.000497818,-0.00343895,-0.007261276,0,
00:04.2,0.000509262,-0.003427505,-0.007249832,0,
00:04.2,0.000497818,-0.003427505,-0.00724411,0,
00:04.2,0.000509262,-0.003427505,-0.007255554,0,
00:04.2,0.00050354,-0.003427505,-0.007238388,0,
00:04.2,0.000497818,-0.003427505,-0.007221222,0,
00:04.2,0.000497818,-0.003421783,-0.007221222,0,
00:04.2,0.000497818,-0.003416061,-0.007226944,0,
00:04.2,0.00050354,-0.003404617,-0.007198334,0,
00:04.2,0.000497818,-0.003404617,-0.0072155,0,
00:04.2,0.000497818,-0.003404617,-0.007221222,0,
00:04.2,0.000497818,-0.003421783,-0.00718689,0,
00:04.2,0.00044632,-0.003433228,-0.007192612,0,
00:04.2,0.000434875,-0.003410339,-0.007169724,0,
00:04.2,0.000526428,-0.003376007,-0.00718689,0,
00:04.2,0.000543594,-0.003404617,-0.007198334,0,
00:04.2,0.000520706,-0.003421783,-0.007158279,0,
00:04.2,0.000514984,-0.003404617,-0.007158279,0,
00:04.2,0.000509262,-0.003387451,-0.007198334,0,
00:04.2,0.00050354,-0.003387451,-0.007164001,0,
00:04.2,0.00050354,-0.003410339,-0.007146835,0,
00:04.2,0.00050354,-0.003404617,-0.007158279,0,
00:04.2,0.000497818,-0.003404617,-0.007146835,0,
00:04.2,0.000492096,-0.003387451,-0.007135391,0,
00:04.3,0.000486374,-0.003393173,-0.007123947,0,
00:04.3,0.000486374,-0.003381729,-0.007123947,0,
00:04.3,0.000486374,-0.003381729,-0.007129669,0,
00:04.3,0.000486374,-0.003393173,-0.007123947,0,
00:04.3,0.000492096,-0.003393173,-0.007118225,0,
00:04.3,0.000486374,-0.003381729,-0.007112503,0,
00:04.3,0.000492096,-0.003393173,-0.007112503,0,
00:04.3,0.000492096,-0.003376007,-0.007101059,0,
00:04.3,0.000492096,-0.003376007,-0.007083893,0,
00:04.3,0.000486374,-0.003364563,-0.007089615,0,
00:04.3,0.000492096,-0.003364563,-0.007083893,0,
00:04.3,0.000492096,-0.003370285,-0.007078171,0,
00:04.3,0.000469208,-0.003387451,-0.007061005,0,
00:04.3,0.000469208,-0.003387451,-0.007061005,0,
00:04.3,0.000486374,-0.003393173,-0.007049561,0,
00:04.3,0.000497818,-0.003381729,-0.007049561,0,
00:04.3,0.000509262,-0.003353119,-0.007055283,0,
00:04.3,0.000497818,-0.003381729,-0.007038116,0,
00:04.3,0.000497818,-0.003387451,-0.007026672,0,
00:04.3,0.000486374,-0.003398895,-0.00702095,0,
00:04.3,0.000480652,-0.003387451,-0.007032394,0,
00:04.3,0.000480652,-0.003387451,-0.006998062,0,
00:04.3,0.000480652,-0.003387451,-0.006980896,0,
00:04.3,0.00047493,-0.003381729,-0.00702095,0,
00:04.3,0.00047493,-0.003370285,-0.007032394,0,
00:04.4,0.000514984,-0.003353119,-0.007032394,0,
00:04.4,0.000514984,-0.003341675,-0.006998062,0,
00:04.4,0.00047493,-0.003387451,-0.00699234,0,
00:04.4,0.000480652,-0.003381729,-0.006980896,0,
00:04.4,0.000497818,-0.003341675,-0.006986618,0,
00:04.4,0.000497818,-0.003353119,-0.006980896,0,
00:04.4,0.000492096,-0.003364563,-0.00696373,0,
00:04.4,0.000492096,-0.003358841,-0.006969452,0,
00:04.4,0.000492096,-0.003353119,-0.00696373,0,
00:04.4,0.000497818,-0.003353119,-0.006958008,0,
00:04.4,0.000492096,-0.003358841,-0.006940842,0,
00:04.4,0.000486374,-0.003358841,-0.006952286,0,
00:04.4,0.000497818,-0.003347397,-0.006929398,0,
00:04.4,0.000492096,-0.003330231,-0.006923676,0,
00:04.4,0.000486374,-0.003347397,-0.00693512,0,
00:04.4,0.000480652,-0.003364563,-0.006923676,0,
00:04.4,0.00047493,-0.003358841,-0.006917953,0,
00:04.4,0.000469208,-0.003347397,-0.006923676,0,
00:04.4,0.00047493,-0.003330231,-0.006923676,0,
00:04.4,0.000492096,-0.003313065,-0.006900787,0,
00:04.4,0.000480652,-0.003324509,-0.006883621,0,
00:04.4,0.000469208,-0.003324509,-0.006877899,0,
00:04.4,0.000469208,-0.003324509,-0.006866455,0,
00:04.4,0.000480652,-0.003341675,-0.006866455,0,
00:04.4,0.000492096,-0.003347397,-0.006883621,0,
00:04.5,0.000497818,-0.003318787,-0.006872177,0,
00:04.5,0.00050354,-0.003330231,-0.006860733,0,
00:04.5,0.000509262,-0.003341675,-0.006866455,0,
00:04.5,0.000497818,-0.003330231,-0.006866455,0,
00:04.5,0.000492096,-0.003307343,-0.006855011,0,
00:04.5,0.000480652,-0.003353119,-0.006837845,0,
00:04.5,0.000480652,-0.003358841,-0.006832123,0,
00:04.5,0.000492096,-0.003313065,-0.006837845,0,
00:04.5,0.000486374,-0.003341675,-0.006832123,0,
00:04.5,0.000480652,-0.003347397,-0.006820679,0,
00:04.5,0.000497818,-0.003318787,-0.006814957,0,
00:04.5,0.000486374,-0.003324509,-0.006809235,0,
00:04.5,0.000480652,-0.003330231,-0.006809235,0,
00:04.5,0.00047493,-0.003330231,-0.006809235,0,
00:04.5,0.000457764,-0.003341675,-0.006803513,0,
00:04.5,0.00047493,-0.003330231,-0.006780624,0,
00:04.5,0.000497818,-0.003313065,-0.006780624,0,
00:04.5,0.000492096,-0.003295898,-0.006786346,0,
00:04.5,0.000492096,-0.003284454,-0.006792068,0,
00:04.5,0.000486374,-0.00330162,-0.006780624,0,
00:04.5,0.000480652,-0.003307343,-0.006763458,0,
00:04.5,0.000469208,-0.003318787,-0.006757736,0,
00:04.5,0.00047493,-0.003318787,-0.006757736,0,
00:04.5,0.000480652,-0.003278732,-0.006752014,0,
00:04.5,0.00047493,-0.003284454,-0.006757736,0,
00:04.6,0.000486374,-0.003307343,-0.006734848,0,
00:04.6,0.000480652,-0.003295898,-0.006723404,0,
00:04.6,0.000480652,-0.003284454,-0.00671196,0,
00:04.6,0.000480652,-0.003278732,-0.006717682,0,
00:04.6,0.000469208,-0.003295898,-0.006717682,0,
00:04.6,0.00047493,-0.003278732,-0.006717682,0,
00:04.6,0.000486374,-0.003261566,-0.006723404,0,
00:04.6,0.000480652,-0.003267288,-0.006717682,0,
00:04.6,0.00044632,-0.003318787,-0.006677628,0,
00:04.6,0.000434875,-0.00330162,-0.00668335,0,
00:04.6,0.000492096,-0.003284454,-0.006700516,0,
00:04.6,0.000486374,-0.003290176,-0.006689072,0,
00:04.6,0.00047493,-0.003290176,-0.00668335,0,
00:04.6,0.00047493,-0.003284454,-0.006689072,0,
00:04.6,0.00047493,-0.00327301,-0.006666183,0,
00:04.6,0.000452042,-0.00327301,-0.006654739,0,
00:04.6,0.000480652,-0.003261566,-0.006666183,0,
00:04.6,0.000509262,-0.003261566,-0.006671906,0,
00:04.6,0.000492096,-0.003267288,-0.006654739,0,
00:04.6,0.000480652,-0.003284454,-0.006637573,0,
00:04.6,0.000480652,-0.00327301,-0.006649017,0,
00:04.6,0.000480652,-0.003255844,-0.006649017,0,
00:04.6,0.000486374,-0.003267288,-0.006620407,0,
00:04.6,0.000486374,-0.003267288,-0.006626129,0,
00:04.6,0.000480652,-0.00327301,-0.006620407,0,
00:04.7,0.000457764,-0.003278732,-0.006620407,0,
00:04.7,0.00047493,-0.003278732,-0.006614685,0,
00:04.7,0.000492096,-0.003232956,-0.006626129,0,
00:04.7,0.000480652,-0.003261566,-0.006614685,0,
00:04.7,0.000480652,-0.003267288,-0.006597519,0,
00:04.7,0.000486374,-0.00321579,-0.006603241,0,
00:04.7,0.000480652,-0.003232956,-0.006586075,0,
00:04.7,0.000486374,-0.003221512,-0.006586075,0,
00:04.7,0.00047493,-0.0032444,-0.006586075,0,
00:04.7,0.000469208,-0.003232956,-0.006586075,0,
00:04.7,0.000480652,-0.003221512,-0.006574631,0,
00:04.7,0.000480652,-0.003204346,-0.006586075,0,
00:04.7,0.000486374,-0.003221512,-0.006574631,0,
00:04.7,0.000480652,-0.003238678,-0.006551743,0,
00:04.7,0.00047493,-0.003238678,-0.006551743,0,
00:04.7,0.000480652,-0.00321579,-0.006551743,0,
00:04.7,0.000486374,-0.003198624,-0.006557465,0,
00:04.7,0.000492096,-0.003221512,-0.006540298,0,
00:04.7,0.00047493,-0.003227234,-0.006540298,0,
00:04.7,0.000486374,-0.003198624,-0.006546021,0,
00:04.7,0.000463486,-0.003221512,-0.006528854,0,
00:04.7,0.000463486,-0.003227234,-0.006511688,0,
00:04.7,0.000492096,-0.003198624,-0.00651741,0,
00:04.7,0.000486374,-0.003204346,-0.006528854,0,
00:04.7,0.000486374,-0.003210068,-0.006511688,0,
00:04.8,0.000480652,-0.003198624,-0.006500244,0,
00:04.8,0.00047493,-0.003204346,-0.006494522,0,
00:04.8,0.000480652,-0.003198624,-0.006511688,0,
00:04.8,0.00047493,-0.003198624,-0.00651741,0,
00:04.8,0.000434875,-0.003204346,-0.0064888,0,
00:04.8,0.000452042,-0.003210068,-0.006471634,0,
00:04.8,0.000497818,-0.003181458,-0.006448746,0,
00:04.8,0.000469208,-0.00318718,-0.006454468,0,
00:04.8,0.000480652,-0.00318718,-0.0064888,0,
00:04.8,0.000514984,-0.00318718,-0.006511688,0,
00:04.8,0.000497818,-0.003181458,-0.006483078,0,
00:04.8,0.000492096,-0.00318718,-0.006471634,0,
00:04.8,0.00047493,-0.003210068,-0.00646019,0,
00:04.8,0.000469208,-0.003175735,-0.006448746,0,
00:04.8,0.000480652,-0.003175735,-0.00643158,0,
00:04.8,0.000486374,-0.003152847,-0.006437302,0,
00:04.8,0.000469208,-0.003158569,-0.00643158,0,
00:04.8,0.000457764,-0.003181458,-0.006425858,0,
00:04.8,0.000457764,-0.003181458,-0.006414413,0,
00:04.8,0.000469208,-0.00318718,-0.006402969,0,
00:04.8,0.000480652,-0.003181458,-0.006402969,0,
00:04.8,0.000480652,-0.003170013,-0.006402969,0,
00:04.8,0.000480652,-0.003158569,-0.006402969,0,
00:04.8,0.000480652,-0.003164291,-0.006408691,0,
00:04.8,0.000492096,-0.003170013,-0.006402969,0,
00:04.9,0.000469208,-0.003175735,-0.006397247,0,
00:04.9,0.000469208,-0.003170013,-0.006391525,0,
00:04.9,0.000497818,-0.003147125,-0.006391525,0,
00:04.9,0.000492096,-0.003152847,-0.006408691,0,
00:04.9,0.00047493,-0.003158569,-0.006368637,0,
00:04.9,0.00047493,-0.003152847,-0.006368637,0,
00:04.9,0.000463486,-0.003158569,-0.006351471,0,
00:04.9,0.000452042,-0.003170013,-0.006340027,0,
00:04.9,0.000480652,-0.003158569,-0.006374359,0,
00:04.9,0.000497818,-0.003129959,-0.006374359,0,
00:04.9,0.000480652,-0.003152847,-0.006357193,0,
00:04.9,0.00047493,-0.003164291,-0.006351471,0,
00:04.9,0.00047493,-0.003158569,-0.006351471,0,
00:04.9,0.000486374,-0.003129959,-0.006362915,0,
00:04.9,0.000480652,-0.003147125,-0.006345749,0,
00:04.9,0.00047493,-0.003147125,-0.006351471,0,
00:04.9,0.00047493,-0.003135681,-0.006340027,0,
00:04.9,0.000469208,-0.003129959,-0.006328583,0,
00:04.9,0.000463486,-0.003124237,-0.006322861,0,
00:04.9,0.000452042,-0.003118515,-0.006317139,0,
00:04.9,0.000452042,-0.003112793,-0.006322861,0,
00:04.9,0.000497818,-0.003124237,-0.006317139,0,
00:04.9,0.000492096,-0.003124237,-0.006322861,0,
00:04.9,0.000486374,-0.003107071,-0.006317139,0,
00:04.9,0.00050354,-0.003112793,-0.006317139,0,
00:05.0,0.000486374,-0.003135681,-0.006317139,0,
00:05.0,0.00047493,-0.003147125,-0.006299973,0,
00:05.0,0.000480652,-0.003112793,-0.00629425,0,
00:05.0,0.00047493,-0.003112793,-0.006299973,0,
00:05.0,0.000480652,-0.003101349,-0.00629425,0,
00:05.0,0.00047493,-0.003095627,-0.006282806,0,
00:05.0,0.000469208,-0.003101349,-0.006277084,0,
00:05.0,0.000463486,-0.003135681,-0.006271362,0,
00:05.0,0.000457764,-0.003135681,-0.00626564,0,
00:05.0,0.000463486,-0.003112793,-0.006248474,0,
00:05.0,0.000469208,-0.003101349,-0.006254196,0,
00:05.0,0.00047493,-0.003101349,-0.006248474,0,
00:00:05,0.000486374,-0.003084183,-0.006248474,0,
00:05.0,0.00047493,-0.003095627,-0.006248474,0,
00:05.0,0.000457764,-0.003112793,-0.006248474,0,
00:05.0,0.000457764,-0.003107071,-0.006242752,0,
00:05.0,0.000457764,-0.003112793,-0.006219864,0,
00:05.0,0.000463486,-0.003089905,-0.006225586,0,
00:05.0,0.000492096,-0.003078461,-0.00626564,0,
00:05.0,0.000469208,-0.003101349,-0.006259918,0,
00:05.0,0.000452042,-0.003095627,-0.00623703,0,
00:05.0,0.000480652,-0.003072739,-0.00623703,0,
00:05.0,0.00050354,-0.003061295,-0.006242752,0,
00:05.0,0.00047493,-0.003095627,-0.006231308,0,
00:05.0,0.00047493,-0.003089905,-0.006225586,0,
00:05.1,0.00047493,-0.003078461,-0.006214142,0,
00:05.1,0.00047493,-0.003055573,-0.006219864,0,
00:05.1,0.000463486,-0.003061295,-0.00620842,0,
00:05.1,0.00047493,-0.003061295,-0.00620842,0,
00:05.1,0.000486374,-0.003044128,-0.006214142,0,
00:05.1,0.000469208,-0.003078461,-0.006196976,0,
00:05.1,0.000469208,-0.003078461,-0.006196976,0,
00:05.1,0.000463486,-0.003084183,-0.006191254,0,
00:05.1,0.000469208,-0.003055573,-0.006185532,0,
00:05.1,0.000469208,-0.00304985,-0.006191254,0,
00:05.1,0.000480652,-0.003032684,-0.006191254,0,
00:05.1,0.00047493,-0.003026962,-0.00617981,0,
00:05.1,0.000463486,-0.003044128,-0.006185532,0,
00:05.1,0.000463486,-0.003055573,-0.00617981,0,
00:05.1,0.000452042,-0.00304985,-0.00617981,0,
00:05.1,0.000452042,-0.00302124,-0.006185532,0,
00:05.1,0.000463486,-0.003061295,-0.006162643,0,
00:05.1,0.000469208,-0.00304985,-0.006156921,0,
00:05.1,0.000486374,-0.003032684,-0.00617981,0,
00:05.1,0.000480652,-0.003038406,-0.006174088,0,
00:05.1,0.000469208,-0.003044128,-0.006168365,0,
00:05.1,0.000457764,-0.00304985,-0.006168365,0,
00:05.1,0.000469208,-0.003026962,-0.006156921,0,
00:05.1,0.00047493,-0.00302124,-0.006151199,0,
00:05.1,0.00047493,-0.00304985,-0.006162643,0,
00:05.2,0.000463486,-0.003026962,-0.006162643,0,
00:05.2,0.000457764,-0.002998352,-0.006162643,0,
00:05.2,0.000463486,-0.003015518,-0.006139755,0,
00:05.2,0.000457764,-0.003032684,-0.006122589,0,
00:05.2,0.000463486,-0.00302124,-0.006122589,0,
00:05.2,0.000463486,-0.003015518,-0.006134033,0,
00:05.2,0.000457764,-0.003009796,-0.006116867,0,
00:05.2,0.000469208,-0.002998352,-0.006122589,0,
00:05.2,0.000469208,-0.003004074,-0.006134033,0,
00:05.2,0.000469208,-0.002998352,-0.006128311,0,
00:05.2,0.000469208,-0.00299263,-0.006134033,0,
00:05.2,0.000463486,-0.003032684,-0.006122589,0,
00:05.2,0.000463486,-0.003026962,-0.006093979,0,
00:05.2,0.000469208,-0.003009796,-0.006099701,0,
00:05.2,0.000469208,-0.003004074,-0.006099701,0,
00:05.2,0.000463486,-0.002998352,-0.006105423,0,
00:05.2,0.000463486,-0.002986908,-0.006099701,0,
00:05.2,0.00047493,-0.002969742,-0.006111145,0,
00:05.2,0.000480652,-0.002969742,-0.006088257,0,
00:05.2,0.000486374,-0.003004074,-0.006093979,0,
00:05.2,0.000469208,-0.003026962,-0.006088257,0,
00:05.2,0.000452042,-0.003015518,-0.006076813,0,
00:05.2,0.000463486,-0.003004074,-0.006065369,0,
00:05.2,0.000480652,-0.002975464,-0.006076813,0,
00:05.2,0.00047493,-0.00296402,-0.006088257,0,
00:05.3,0.00047493,-0.002969742,-0.006076813,0,
00:05.3,0.000486374,-0.002969742,-0.006048203,0,
00:05.3,0.00047493,-0.00299263,-0.006048203,0,
00:05.3,0.00047493,-0.002975464,-0.006065369,0,
00:05.3,0.000457764,-0.002986908,-0.006082535,0,
00:05.3,0.00044632,-0.003004074,-0.006059647,0,
00:05.3,0.000457764,-0.003004074,-0.006025314,0,
00:05.3,0.000486374,-0.002952576,-0.006025314,0,
00:05.3,0.000497818,-0.002941132,-0.006053925,0,
00:05.3,0.00047493,-0.002958298,-0.006036758,0,
00:05.3,0.000463486,-0.002975464,-0.006031036,0,
00:05.3,0.000457764,-0.002986908,-0.006019592,0,
00:05.3,0.000463486,-0.002981186,-0.00601387,0,
00:05.3,0.000469208,-0.00296402,-0.006019592,0,
00:05.3,0.000469208,-0.00296402,-0.006019592,0,
00:05.3,0.000463486,-0.002958298,-0.006025314,0,
00:05.3,0.000457764,-0.002969742,-0.006019592,0,
00:05.3,0.000452042,-0.002975464,-0.006019592,0,
00:05.3,0.000469208,-0.00296402,-0.00601387,0,
00:05.3,0.00047493,-0.002941132,-0.006008148,0,
00:05.3,0.00047493,-0.002952576,-0.005996704,0,
00:05.3,0.000480652,-0.00293541,-0.005996704,0,
00:05.3,0.000469208,-0.002946854,-0.005996704,0,
00:05.3,0.000463486,-0.002969742,-0.005990982,0,
00:05.3,0.000486374,-0.002952576,-0.006002426,0,
00:05.4,0.00047493,-0.002952576,-0.006008148,0,
00:05.4,0.000463486,-0.002958298,-0.00598526,0,
00:05.4,0.000457764,-0.002952576,-0.005990982,0,
00:05.4,0.000452042,-0.002952576,-0.005990982,0,
00:05.4,0.000457764,-0.002941132,-0.005979538,0,
00:05.4,0.000457764,-0.002929688,-0.005979538,0,
00:05.4,0.00044632,-0.002952576,-0.00592804,0,
00:05.4,0.000452042,-0.002981186,-0.005939484,0,
00:05.4,0.000434875,-0.00296402,-0.005950928,0,
00:05.4,0.000457764,-0.002923965,-0.005950928,0,
00:05.4,0.00047493,-0.002906799,-0.005950928,0,
00:05.4,0.00044632,-0.002923965,-0.005962372,0,
00:05.4,0.000452042,-0.002923965,-0.00598526,0,
00:05.4,0.00047493,-0.002929688,-0.005973816,0,
00:05.4,0.000492096,-0.002918243,-0.005962372,0,
00:05.4,0.000457764,-0.002941132,-0.00595665,0,
00:05.4,0.000463486,-0.002923965,-0.005950928,0,
00:05.4,0.00047493,-0.002929688,-0.00595665,0,
00:05.4,0.000463486,-0.002941132,-0.005945206,0,
00:05.4,0.000469208,-0.002901077,-0.005945206,0,
00:05.4,0.00047493,-0.002901077,-0.005945206,0,
00:05.4,0.000457764,-0.002918243,-0.005945206,0,
00:05.4,0.00044632,-0.002929688,-0.005939484,0,
00:05.4,0.000469208,-0.002912521,-0.005939484,0,
00:05.4,0.000469208,-0.002918243,-0.005933762,0,
00:05.5,0.000463486,-0.002906799,-0.005916595,0,
00:05.5,0.000457764,-0.002941132,-0.005905151,0,
00:05.5,0.000457764,-0.002941132,-0.005910873,0,
00:05.5,0.000457764,-0.002912521,-0.005916595,0,
00:05.5,0.000469208,-0.002901077,-0.005916595,0,
00:05.5,0.000463486,-0.002923965,-0.005910873,0,
00:05.5,0.000457764,-0.002923965,-0.005899429,0,
00:05.5,0.000463486,-0.002901077,-0.005899429,0,
00:05.5,0.000457764,-0.002889633,-0.005882263,0,
00:05.5,0.000452042,-0.002889633,-0.005893707,0,
00:05.5,0.000463486,-0.002878189,-0.00592804,0,
00:05.5,0.000463486,-0.002878189,-0.005893707,0,
00:05.5,0.000417709,-0.002918243,-0.005853653,0,
00:05.5,0.000440598,-0.002901077,-0.005842209,0,
00:05.5,0.000457764,-0.002883911,-0.005899429,0,
00:05.5,0.000463486,-0.002895355,-0.005893707,0,
00:05.5,0.000457764,-0.002889633,-0.005887985,0,
00:05.5,0.00044632,-0.002883911,-0.005865097,0,
00:05.5,0.000423431,-0.002889633,-0.005870819,0,
00:05.5,0.000463486,-0.002906799,-0.005887985,0,
00:05.5,0.000480652,-0.002883911,-0.005865097,0,
00:05.5,0.00047493,-0.002906799,-0.005870819,0,
00:05.5,0.000480652,-0.002912521,-0.005876541,0,
00:05.5,0.00047493,-0.002895355,-0.005865097,0,
00:05.5,0.000463486,-0.002878189,-0.005859375,0,
00:05.6,0.000469208,-0.002872467,-0.005842209,0,
00:05.6,0.00044632,-0.002878189,-0.005842209,0,
00:05.6,0.000440598,-0.002889633,-0.005842209,0,
00:05.6,0.000469208,-0.002872467,-0.005842209,0,
00:05.6,0.00047493,-0.002855301,-0.005847931,0,
00:05.6,0.000480652,-0.002872467,-0.005865097,0,
00:05.6,0.000463486,-0.002883911,-0.005847931,0,
00:05.6,0.000469208,-0.002872467,-0.005836487,0,
00:05.6,0.000463486,-0.002872467,-0.005847931,0,
00:05.6,0.000440598,-0.002872467,-0.005847931,0,
00:05.6,0.000452042,-0.002861023,-0.005825043,0,
00:05.6,0.000463486,-0.002855301,-0.005819321,0,
00:05.6,0.000457764,-0.002866745,-0.005819321,0,
00:05.6,0.000457764,-0.002861023,-0.005825043,0,
00:05.6,0.000457764,-0.002843857,-0.005830765,0,
00:05.6,0.000457764,-0.002820969,-0.005842209,0,
00:05.6,0.000429153,-0.002843857,-0.005842209,0,
00:05.6,0.000434875,-0.002878189,-0.005813599,0,
00:05.6,0.00047493,-0.002843857,-0.005813599,0,
00:05.6,0.000463486,-0.002861023,-0.005819321,0,
00:05.6,0.000440598,-0.002861023,-0.005819321,0,
00:05.6,0.000417709,-0.002843857,-0.005779266,0,
00:05.6,0.000457764,-0.002838135,-0.0057621,0,
00:05.6,0.000480652,-0.002838135,-0.005796432,0,
00:05.6,0.000457764,-0.002849579,-0.005813599,0,
00:05.7,0.00044632,-0.002861023,-0.005802155,0,
00:05.7,0.000463486,-0.002843857,-0.005796432,0,
00:05.7,0.000457764,-0.002838135,-0.00579071,0,
00:05.7,0.000463486,-0.002838135,-0.005802155,0,
00:05.7,0.000463486,-0.002832413,-0.005784988,0,
00:05.7,0.000457764,-0.002820969,-0.005784988,0,
00:05.7,0.00044632,-0.002820969,-0.005773544,0,
00:05.7,0.000434875,-0.002843857,-0.005767822,0,
00:05.7,0.000452042,-0.002838135,-0.005767822,0,
00:05.7,0.000457764,-0.002815247,-0.005779266,0,
00:05.7,0.000469208,-0.002815247,-0.0057621,0,
00:05.7,0.000463486,-0.00279808,-0.005756378,0,
00:05.7,0.000469208,-0.00279808,-0.0057621,0,
00:05.7,0.000457764,-0.002832413,-0.005756378,0,
00:05.7,0.000452042,-0.002832413,-0.005756378,0,
00:05.7,0.000440598,-0.002832413,-0.005750656,0,
00:05.7,0.000440598,-0.002838135,-0.005739212,0,
00:05.7,0.000452042,-0.002832413,-0.00573349,0,
00:05.7,0.000457764,-0.002809525,-0.005744934,0,
00:05.7,0.000457764,-0.00279808,-0.005750656,0,
00:05.7,0.000457764,-0.00279808,-0.005739212,0,
00:05.7,0.000457764,-0.00279808,-0.005727768,0,
00:05.7,0.000463486,-0.002815247,-0.005727768,0,
00:05.7,0.000440598,-0.002809525,-0.005722046,0,
00:05.7,0.000423431,-0.002815247,-0.005710602,0,
00:05.8,0.000469208,-0.002809525,-0.005722046,0,
00:05.8,0.000457764,-0.002803802,-0.005727768,0,
00:05.8,0.000406265,-0.002809525,-0.00573349,0,
00:05.8,0.000452042,-0.00276947,-0.005722046,0,
00:05.8,0.000480652,-0.002786636,-0.005722046,0,
00:05.8,0.000452042,-0.002786636,-0.005722046,0,
00:05.8,0.000440598,-0.00279808,-0.005710602,0,
00:05.8,0.000463486,-0.002780914,-0.00570488,0,
00:05.8,0.000486374,-0.00276947,-0.00570488,0,
00:05.8,0.000469208,-0.002792358,-0.00570488,0,
00:05.8,0.000457764,-0.002809525,-0.005699158,0,
00:05.8,0.000457764,-0.002792358,-0.005699158,0,
00:05.8,0.000469208,-0.00276947,-0.005693436,0,
00:05.8,0.00044632,-0.002803802,-0.005699158,0,
00:05.8,0.00044632,-0.002803802,-0.005699158,0,
00:05.8,0.000452042,-0.002780914,-0.005693436,0,
00:05.8,0.000452042,-0.002780914,-0.005687714,0,
00:05.8,0.000457764,-0.00276947,-0.005687714,0,
00:05.8,0.000457764,-0.002780914,-0.005687714,0,
00:05.8,0.000457764,-0.002786636,-0.005687714,0,
00:05.8,0.000452042,-0.002775192,-0.005693436,0,
00:05.8,0.000463486,-0.002763748,-0.005687714,0,
00:05.8,0.000463486,-0.00276947,-0.005681992,0,
00:05.8,0.000440598,-0.002775192,-0.005693436,0,
00:05.8,0.000440598,-0.002786636,-0.005670547,0,
00:05.9,0.00044632,-0.002786636,-0.005664825,0,
00:05.9,0.000457764,-0.002758026,-0.005659103,0,
00:05.9,0.000463486,-0.002746582,-0.005664825,0,
00:05.9,0.000457764,-0.002752304,-0.005647659,0,
00:05.9,0.00044632,-0.002763748,-0.005653381,0,
00:05.9,0.000452042,-0.002746582,-0.005636215,0,
00:05.9,0.000457764,-0.002717972,-0.005659103,0,
00:05.9,0.000417709,-0.002780914,-0.005636215,0,
00:05.9,0.000417709,-0.002792358,-0.005624771,0,
00:05.9,0.000452042,-0.002775192,-0.005647659,0,
00:05.9,0.000452042,-0.002746582,-0.005636215,0,
00:05.9,0.000457764,-0.002729416,-0.005659103,0,
00:05.9,0.000423431,-0.002758026,-0.005630493,0,
00:05.9,0.000394821,-0.002763748,-0.005596161,0,
00:05.9,0.000434875,-0.002735138,-0.005590439,0,
00:05.9,0.00047493,-0.002723694,-0.005641937,0,
00:05.9,0.000457764,-0.002723694,-0.005636215,0,
00:05.9,0.000429153,-0.002758026,-0.005619049,0,
00:05.9,0.000423431,-0.00276947,-0.005624771,0,
00:05.9,0.000434875,-0.002752304,-0.005624771,0,
00:05.9,0.000452042,-0.002729416,-0.005590439,0,
00:05.9,0.000457764,-0.002717972,-0.005596161,0,
00:05.9,0.000452042,-0.002706528,-0.005596161,0,
00:05.9,0.000440598,-0.00271225,-0.005613327,0,
00:05.9,0.00044632,-0.00271225,-0.005619049,0,
00:06.0,0.000440598,-0.002723694,-0.005590439,0,
00:06.0,0.00044632,-0.002729416,-0.005584717,0,
00:06.0,0.000452042,-0.00271225,-0.005578995,0,
00:06.0,0.00044632,-0.00271225,-0.005578995,0,
00:06.0,0.000440598,-0.002723694,-0.005596161,0,
00:06.0,0.000440598,-0.002735138,-0.005590439,0,
00:06.0,0.00044632,-0.002717972,-0.005573273,0,
00:06.0,0.000429153,-0.002717972,-0.005567551,0,
00:06.0,0.000429153,-0.00274086,-0.005550385,0,
00:06.0,0.000440598,-0.002735138,-0.005556107,0,
00:06.0,0.000423431,-0.002723694,-0.005561829,0,
00:06.0,0.000383377,-0.002723694,-0.005573273,0,
00:00:06,0.000429153,-0.002717972,-0.005544662,0,
00:06.0,0.000457764,-0.002700806,-0.005567551,0,
00:06.0,0.000452042,-0.00268364,-0.005578995,0,
00:06.0,0.00044632,-0.002695084,-0.005550385,0,
00:06.0,0.000434875,-0.00271225,-0.00553894,0,
00:06.0,0.000457764,-0.002700806,-0.005578995,0,
00:06.0,0.000469208,-0.002677917,-0.005578995,0,
00:06.0,0.000463486,-0.002649307,-0.005573273,0,
00:06.0,0.000417709,-0.002700806,-0.005561829,0,
00:06.0,0.000406265,-0.00271225,-0.00553894,0,
00:06.0,0.000434875,-0.002695084,-0.005533218,0,
00:06.0,0.00044632,-0.00268364,-0.005527496,0,
00:06.0,0.000440598,-0.002689362,-0.005521774,0,
00:06.1,0.000429153,-0.002695084,-0.005527496,0,
00:06.1,0.000423431,-0.00268364,-0.005533218,0,
00:06.1,0.000434875,-0.00268364,-0.005527496,0,
00:06.1,0.000429153,-0.00268364,-0.005527496,0,
00:06.1,0.000429153,-0.002700806,-0.005516052,0,
00:06.1,0.000434875,-0.002695084,-0.005521774,0,
00:06.1,0.000440598,-0.002666473,-0.005516052,0,
00:06.1,0.000434875,-0.002677917,-0.005521774,0,
00:06.1,0.000434875,-0.002689362,-0.005521774,0,
00:06.1,0.000434875,-0.002677917,-0.005527496,0,
00:06.1,0.000429153,-0.002666473,-0.005527496,0,
00:06.1,0.000434875,-0.002660751,-0.005516052,0,
00:06.1,0.000423431,-0.002689362,-0.005504608,0,
00:06.1,0.000417709,-0.002677917,-0.005493164,0,
00:06.1,0.000429153,-0.002666473,-0.005516052,0,
00:06.1,0.000440598,-0.002643585,-0.005498886,0,
00:06.1,0.000457764,-0.002620697,-0.005498886,0,
00:06.1,0.000440598,-0.002643585,-0.005493164,0,
00:06.1,0.000434875,-0.002660751,-0.005493164,0,
00:06.1,0.000429153,-0.002666473,-0.00548172,0,
00:06.1,0.000423431,-0.002677917,-0.005470276,0,
00:06.1,0.000434875,-0.002660751,-0.005475998,0,
00:06.1,0.000440598,-0.002626419,-0.005493164,0,
00:06.1,0.000423431,-0.002632141,-0.00548172,0,
00:06.1,0.000417709,-0.002660751,-0.005458832,0,
00:06.2,0.000417709,-0.002649307,-0.005475998,0,
00:06.2,0.000429153,-0.002643585,-0.005475998,0,
00:06.2,0.000429153,-0.002643585,-0.00545311,0,
00:06.2,0.000417709,-0.002666473,-0.005447388,0,
00:06.2,0.000417709,-0.002660751,-0.00545311,0,
00:06.2,0.000406265,-0.002649307,-0.005464554,0,
00:06.2,0.000406265,-0.002643585,-0.005458832,0,
00:06.2,0.000423431,-0.002626419,-0.005458832,0,
00:06.2,0.000423431,-0.002637863,-0.005470276,0,
00:06.2,0.000423431,-0.002637863,-0.005447388,0,
00:06.2,0.000429153,-0.002626419,-0.005447388,0,
00:06.2,0.000429153,-0.002626419,-0.005441666,0,
00:06.2,0.000423431,-0.002649307,-0.005435944,0,
00:06.2,0.000417709,-0.002649307,-0.005435944,0,
00:06.2,0.000417709,-0.002643585,-0.0054245,0,
00:06.2,0.000423431,-0.002626419,-0.005430222,0,
00:06.2,0.000423431,-0.002626419,-0.005430222,0,
00:06.2,0.000417709,-0.002620697,-0.005430222,0,
00:06.2,0.000417709,-0.002626419,-0.005435944,0,
00:06.2,0.000423431,-0.002626419,-0.005430222,0,
00:06.2,0.000423431,-0.002614975,-0.005413055,0,
00:06.2,0.000417709,-0.002626419,-0.005418777,0,
00:06.2,0.000417709,-0.002649307,-0.005413055,0,
00:06.2,0.000411987,-0.002637863,-0.005418777,0,
00:06.2,0.000423431,-0.002592087,-0.005390167,0,
00:06.3,0.000411987,-0.002603531,-0.005407333,0,
00:06.3,0.000406265,-0.002620697,-0.005413055,0,
00:06.3,0.000417709,-0.002597809,-0.005390167,0,
00:06.3,0.000423431,-0.002592087,-0.005390167,0,
00:06.3,0.000411987,-0.002609253,-0.005384445,0,
00:06.3,0.000400543,-0.002603531,-0.005395889,0,
00:06.3,0.000394821,-0.002609253,-0.005407333,0,
00:06.3,0.000400543,-0.002614975,-0.005378723,0,
00:06.3,0.000423431,-0.002597809,-0.005373001,0,
00:06.3,0.000406265,-0.002592087,-0.005390167,0,
00:06.3,0.000389099,-0.002569199,-0.005390167,0,
00:06.3,0.000423431,-0.002592087,-0.005378723,0,
00:06.3,0.000411987,-0.002603531,-0.005367279,0,
00:06.3,0.000423431,-0.002580643,-0.005361557,0,
00:06.3,0.000383377,-0.002574921,-0.005373001,0,
00:06.3,0.000371933,-0.002603531,-0.005367279,0,
00:06.3,0.000411987,-0.002609253,-0.005361557,0,
00:06.3,0.000440598,-0.002580643,-0.005378723,0,
00:06.3,0.000434875,-0.002580643,-0.005378723,0,
00:06.3,0.000423431,-0.002592087,-0.005373001,0,
00:06.3,0.000417709,-0.002586365,-0.005355835,0,
00:06.3,0.000417709,-0.002580643,-0.005355835,0,
00:06.3,0.000406265,-0.002597809,-0.005367279,0,
00:06.3,0.000411987,-0.002597809,-0.005327225,0,
00:06.3,0.000406265,-0.002586365,-0.005338669,0,
00:06.4,0.000406265,-0.002592087,-0.005350113,0,
00:06.4,0.000417709,-0.002580643,-0.005321503,0,
00:06.4,0.000411987,-0.002580643,-0.005327225,0,
00:06.4,0.000394821,-0.002580643,-0.005338669,0,
00:06.4,0.000406265,-0.002586365,-0.005350113,0,
00:06.4,0.000394821,-0.002592087,-0.005321503,0,
00:06.4,0.000394821,-0.002569199,-0.005310059,0,
00:06.4,0.000429153,-0.002569199,-0.005327225,0,
00:06.4,0.000400543,-0.002557755,-0.005315781,0,
00:06.4,0.000400543,-0.002574921,-0.005310059,0,
00:06.4,0.000417709,-0.002563477,-0.005327225,0,
00:06.4,0.000429153,-0.002563477,-0.005304337,0,
00:06.4,0.000429153,-0.002574921,-0.005310059,0,
00:06.4,0.000417709,-0.002574921,-0.005310059,0,
00:06.4,0.000417709,-0.002569199,-0.005298615,0,
00:06.4,0.000411987,-0.002569199,-0.005298615,0,
00:06.4,0.000423431,-0.002540588,-0.005292892,0,
00:06.4,0.000411987,-0.002563477,-0.005281448,0,
00:06.4,0.000400543,-0.002597809,-0.005264282,0,
00:06.4,0.000411987,-0.002574921,-0.005270004,0,
00:06.4,0.000429153,-0.002529144,-0.005281448,0,
00:06.4,0.000417709,-0.00254631,-0.005292892,0,
00:06.4,0.000394821,-0.002586365,-0.005264282,0,
00:06.4,0.000411987,-0.002569199,-0.005264282,0,
00:06.4,0.000423431,-0.002552032,-0.005270004,0,
00:06.5,0.000411987,-0.002552032,-0.00525856,0,
00:06.5,0.000406265,-0.002540588,-0.005252838,0,
00:06.5,0.000406265,-0.002534866,-0.005264282,0,
00:06.5,0.000406265,-0.002552032,-0.00525856,0,
00:06.5,0.000417709,-0.002534866,-0.00525856,0,
00:06.5,0.000434875,-0.002494812,-0.005241394,0,
00:06.5,0.000434875,-0.002494812,-0.005281448,0,
00:06.5,0.000411987,-0.002552032,-0.005252838,0,
00:06.5,0.000371933,-0.002592087,-0.005235672,0,
00:06.5,0.000389099,-0.002557755,-0.00525856,0,
00:06.5,0.000423431,-0.002540588,-0.005247116,0,
00:06.5,0.000411987,-0.00254631,-0.005247116,0,
00:06.5,0.000371933,-0.002523422,-0.00522995,0,
00:06.5,0.000383377,-0.002523422,-0.005235672,0,
00:06.5,0.000429153,-0.00254631,-0.005235672,0,
00:06.5,0.000406265,-0.002552032,-0.005224228,0,
00:06.5,0.000394821,-0.00254631,-0.005207062,0,
00:06.5,0.000406265,-0.002540588,-0.005189896,0,
00:06.5,0.000434875,-0.002529144,-0.005207062,0,
00:06.5,0.000429153,-0.002534866,-0.00522995,0,
00:06.5,0.000400543,-0.002523422,-0.005224228,0,
00:06.5,0.000394821,-0.002529144,-0.005212784,0,
00:06.5,0.000411987,-0.002534866,-0.00520134,0,
00:06.5,0.000417709,-0.002511978,-0.005207062,0,
00:06.5,0.000417709,-0.002506256,-0.005218506,0,
00:06.6,0.000400543,-0.0025177,-0.005212784,0,
00:06.6,0.000400543,-0.002511978,-0.005212784,0,
00:06.6,0.000400543,-0.002506256,-0.005195618,0,
00:06.6,0.000411987,-0.002506256,-0.005184174,0,
00:06.6,0.000423431,-0.00248909,-0.005189896,0,
00:06.6,0.000423431,-0.002494812,-0.005195618,0,
00:06.6,0.000429153,-0.002483368,-0.00520134,0,
00:06.6,0.000406265,-0.002500534,-0.005189896,0,
00:06.6,0.000394821,-0.002506256,-0.005172729,0,
00:06.6,0.000400543,-0.002511978,-0.005178452,0,
00:06.6,0.000406265,-0.0025177,-0.005167007,0,
00:06.6,0.000406265,-0.002500534,-0.005155563,0,
00:06.6,0.000406265,-0.002500534,-0.005161285,0,
00:06.6,0.000406265,-0.002500534,-0.005167007,0,
00:06.6,0.000406265,-0.002506256,-0.005172729,0,
00:06.6,0.000400543,-0.002506256,-0.005167007,0,
00:06.6,0.000411987,-0.002494812,-0.005161285,0,
00:06.6,0.000411987,-0.002471924,-0.005167007,0,
00:06.6,0.000400543,-0.002454758,-0.005132675,0,
00:06.6,0.000400543,-0.002500534,-0.005149841,0,
00:06.6,0.000389099,-0.002500534,-0.005172729,0,
00:06.6,0.000371933,-0.002500534,-0.005155563,0,
00:06.6,0.000400543,-0.002511978,-0.005144119,0,
00:06.6,0.000400543,-0.002511978,-0.005144119,0,
00:06.6,0.000400543,-0.002500534,-0.005138397,0,
00:06.7,0.000406265,-0.002471924,-0.005138397,0,
00:06.7,0.000417709,-0.002466202,-0.005155563,0,
00:06.7,0.000411987,-0.002466202,-0.005149841,0,
00:06.7,0.000383377,-0.002477646,-0.005144119,0,
00:06.7,0.000394821,-0.002477646,-0.005115509,0,
00:06.7,0.000400543,-0.002477646,-0.005104065,0,
00:06.7,0.000389099,-0.002494812,-0.005104065,0,
00:06.7,0.000406265,-0.002494812,-0.005104065,0,
00:06.7,0.000400543,-0.002483368,-0.005109787,0,
00:06.7,0.000400543,-0.002477646,-0.005115509,0,
00:06.7,0.000406265,-0.002466202,-0.005109787,0,
00:06.7,0.000411987,-0.002443314,-0.005115509,0,
00:06.7,0.000400543,-0.002449036,-0.005121231,0,
00:06.7,0.000394821,-0.002454758,-0.005126953,0,
00:06.7,0.000406265,-0.002437592,-0.005115509,0,
00:06.7,0.000400543,-0.002466202,-0.005121231,0,
00:06.7,0.000383377,-0.002511978,-0.005081177,0,
00:06.7,0.000383377,-0.002506256,-0.005069733,0,
00:06.7,0.000389099,-0.002483368,-0.005075455,0,
00:06.7,0.000383377,-0.002471924,-0.005081177,0,
00:06.7,0.000366211,-0.002471924,-0.005086899,0,
00:06.7,0.000383377,-0.002471924,-0.005081177,0,
00:06.7,0.000411987,-0.002466202,-0.005075455,0,
00:06.7,0.000394821,-0.002471924,-0.005086899,0,
00:06.7,0.000377655,-0.002449036,-0.005075455,0,
00:06.8,0.000360489,-0.002443314,-0.005081177,0,
00:06.8,0.000389099,-0.002454758,-0.005075455,0,
00:06.8,0.000377655,-0.002466202,-0.005075455,0,
00:06.8,0.000371933,-0.002454758,-0.005041122,0,
00:06.8,0.000417709,-0.002466202,-0.005041122,0,
00:06.8,0.000411987,-0.002454758,-0.005064011,0,
00:06.8,0.000377655,-0.002437592,-0.005058289,0,
00:06.8,0.000389099,-0.00243187,-0.005064011,0,
00:06.8,0.000429153,-0.00243187,-0.005069733,0,
00:06.8,0.000411987,-0.002414703,-0.005069733,0,
00:06.8,0.000389099,-0.002454758,-0.005046844,0,
00:06.8,0.000389099,-0.002466202,-0.0050354,0,
00:06.8,0.000400543,-0.002426147,-0.005041122,0,
00:06.8,0.000394821,-0.002426147,-0.0050354,0,
00:06.8,0.000394821,-0.00243187,-0.005023956,0,
00:06.8,0.000383377,-0.00243187,-0.005041122,0,
00:06.8,0.000394821,-0.002414703,-0.005023956,0,
00:06.8,0.000389099,-0.002420425,-0.005029678,0,
00:06.8,0.000377655,-0.002443314,-0.005023956,0,
00:06.8,0.000377655,-0.002443314,-0.005012512,0,
00:06.8,0.000383377,-0.002443314,-0.005023956,0,
00:06.8,0.000383377,-0.002437592,-0.005018234,0,
00:06.8,0.000377655,-0.00243187,-0.005018234,0,
00:06.8,0.000383377,-0.002426147,-0.005018234,0,
00:06.8,0.000377655,-0.00243187,-0.005023956,0,
00:06.9,0.000371933,-0.002408981,-0.005018234,0,
00:06.9,0.000383377,-0.002391815,-0.00500679,0,
00:06.9,0.000383377,-0.002454758,-0.004983902,0,
00:06.9,0.000377655,-0.002443314,-0.004972458,0,
00:06.9,0.000371933,-0.002449036,-0.004966736,0,
00:06.9,0.000371933,-0.002426147,-0.00497818,0,
00:06.9,0.000394821,-0.002397537,-0.004983902,0,
00:06.9,0.000389099,-0.002420425,-0.004983902,0,
00:06.9,0.000383377,-0.002426147,-0.00497818,0,
00:06.9,0.000394821,-0.002380371,-0.004995346,0,
00:06.9,0.000389099,-0.002391815,-0.004983902,0,
00:06.9,0.000389099,-0.002391815,-0.004966736,0,
00:06.9,0.000366211,-0.002443314,-0.004955292,0,
00:06.9,0.000371933,-0.00243187,-0.004955292,0,
00:06.9,0.000377655,-0.002420425,-0.004955292,0,
00:06.9,0.000377655,-0.002414703,-0.004966736,0,
00:06.9,0.000371933,-0.002414703,-0.004966736,0,
00:06.9,0.000371933,-0.002408981,-0.004943848,0,
00:06.9,0.000389099,-0.002397537,-0.004943848,0,
00:06.9,0.000389099,-0.002391815,-0.00494957,0,
00:06.9,0.000383377,-0.002386093,-0.004966736,0,
00:06.9,0.000383377,-0.002391815,-0.004943848,0,
00:06.9,0.000383377,-0.002380371,-0.004932404,0,
00:06.9,0.000349045,-0.002380371,-0.00494957,0,
00:06.9,0.000343323,-0.002386093,-0.004961014,0,
00:07.0,0.000389099,-0.002403259,-0.00494957,0,
00:07.0,0.000389099,-0.002391815,-0.004938126,0,
00:07.0,0.000389099,-0.002386093,-0.004932404,0,
00:07.0,0.000371933,-0.002403259,-0.004926682,0,
00:07.0,0.000371933,-0.002391815,-0.004920959,0,
00:07.0,0.000377655,-0.002386093,-0.004920959,0,
00:07.0,0.000383377,-0.002368927,-0.004926682,0,
00:07.0,0.000377655,-0.002368927,-0.004909515,0,
00:07.0,0.000371933,-0.002397537,-0.004898071,0,
00:07.0,0.000377655,-0.002380371,-0.004898071,0,
00:07.0,0.000366211,-0.002391815,-0.004898071,0,
00:07.0,0.000366211,-0.002397537,-0.004898071,0,
00:00:07,0.000366211,-0.002397537,-0.004898071,0,
00:07.0,0.000389099,-0.002363205,-0.004903793,0,
00:07.0,0.000366211,-0.002391815,-0.004903793,0,
00:07.0,0.000354767,-0.002403259,-0.004886627,0,
00:07.0,0.000377655,-0.002380371,-0.004898071,0,
00:07.0,0.000371933,-0.002368927,-0.004898071,0,
00:07.0,0.000366211,-0.002380371,-0.004898071,0,
00:07.0,0.000377655,-0.002374649,-0.004898071,0,
00:07.0,0.000377655,-0.002363205,-0.004892349,0,
00:07.0,0.000354767,-0.002380371,-0.004886627,0,
00:07.0,0.000366211,-0.002374649,-0.004875183,0,
00:07.0,0.000371933,-0.002374649,-0.004869461,0,
00:07.0,0.000371933,-0.002368927,-0.004875183,0,
00:07.1,0.000377655,-0.002351761,-0.004880905,0,
00:07.1,0.000371933,-0.002368927,-0.004875183,0,
00:07.1,0.000360489,-0.002380371,-0.004846573,0,
00:07.1,0.000366211,-0.002363205,-0.004852295,0,
00:07.1,0.000377655,-0.002351761,-0.004858017,0,
00:07.1,0.000354767,-0.002374649,-0.004858017,0,
00:07.1,0.000349045,-0.002374649,-0.004846573,0,
00:07.1,0.000354767,-0.002351761,-0.004846573,0,
00:07.1,0.000349045,-0.002340317,-0.004835129,0,
00:07.1,0.000343323,-0.002357483,-0.004835129,0,
00:07.1,0.000383377,-0.002363205,-0.004835129,0,
00:07.1,0.000371933,-0.002351761,-0.004852295,0,
00:07.1,0.000366211,-0.002357483,-0.004840851,0,
00:07.1,0.000371933,-0.002346039,-0.004835129,0,
00:07.1,0.000354767,-0.002363205,-0.004829407,0,
00:07.1,0.000360489,-0.002363205,-0.004829407,0,
00:07.1,0.000371933,-0.002340317,-0.004829407,0,
00:07.1,0.000366211,-0.002346039,-0.004823685,0,
00:07.1,0.000366211,-0.002351761,-0.004817963,0,
00:07.1,0.000366211,-0.002340317,-0.004823685,0,
00:07.1,0.000366211,-0.002340317,-0.004812241,0,
00:07.1,0.000360489,-0.002340317,-0.004806519,0,
00:07.1,0.000354767,-0.002340317,-0.004806519,0,
00:07.1,0.000354767,-0.002351761,-0.004806519,0,
00:07.1,0.000366211,-0.002357483,-0.004795074,0,
00:07.2,0.000371933,-0.002340317,-0.004777908,0,
00:07.2,0.000366211,-0.002334595,-0.004789352,0,
00:07.2,0.000343323,-0.002351761,-0.004777908,0,
00:07.2,0.000360489,-0.002340317,-0.004772186,0,
00:07.2,0.000360489,-0.002340317,-0.004777908,0,
00:07.2,0.000349045,-0.002334595,-0.004766464,0,
00:07.2,0.000354767,-0.002328873,-0.00478363,0,
00:07.2,0.000354767,-0.002323151,-0.004795074,0,
00:07.2,0.000354767,-0.002323151,-0.004772186,0,
00:07.2,0.000337601,-0.002317429,-0.004772186,0,
00:07.2,0.000343323,-0.002317429,-0.004777908,0,
00:07.2,0.000360489,-0.002334595,-0.004760742,0,
00:07.2,0.000360489,-0.002323151,-0.004772186,0,
00:07.2,0.000354767,-0.002334595,-0.00475502,0,
00:07.2,0.000366211,-0.002317429,-0.004749298,0,
00:07.2,0.000360489,-0.002317429,-0.00475502,0,
00:07.2,0.000360489,-0.002311707,-0.00475502,0,
00:07.2,0.000360489,-0.002311707,-0.00475502,0,
00:07.2,0.000360489,-0.002334595,-0.004732132,0,
00:07.2,0.000360489,-0.002334595,-0.00472641,0,
00:07.2,0.000366211,-0.002328873,-0.004737854,0,
00:07.2,0.000360489,-0.002328873,-0.004732132,0,
00:07.2,0.000371933,-0.002311707,-0.004732132,0,
00:07.2,0.000354767,-0.002317429,-0.004743576,0,
00:07.2,0.000343323,-0.002334595,-0.00472641,0,
00:07.3,0.000343323,-0.002317429,-0.004720688,0,
00:07.3,0.000349045,-0.002305984,-0.004732132,0,
00:07.3,0.000354767,-0.002288818,-0.004732132,0,
00:07.3,0.000349045,-0.002305984,-0.004720688,0,
00:07.3,0.000354767,-0.00229454,-0.004714966,0,
00:07.3,0.000354767,-0.002305984,-0.004720688,0,
00:07.3,0.000331879,-0.002317429,-0.004709244,0,
00:07.3,0.000291824,-0.002328873,-0.004680634,0,
00:07.3,0.000314713,-0.002317429,-0.004674911,0,
00:07.3,0.000366211,-0.002288818,-0.004720688,0,
00:07.3,0.000354767,-0.00226593,-0.004737854,0,
00:07.3,0.000366211,-0.00226593,-0.00472641,0,
00:07.3,0.000326157,-0.002305984,-0.004714966,0,
00:07.3,0.000337601,-0.002328873,-0.0046978,0,
00:07.3,0.000371933,-0.002305984,-0.004703522,0,
00:07.3,0.000366211,-0.002300262,-0.004703522,0,
00:07.3,0.000354767,-0.002305984,-0.0046978,0,
00:07.3,0.000349045,-0.002305984,-0.0046978,0,
00:07.3,0.000354767,-0.002288818,-0.004692078,0,
00:07.3,0.000337601,-0.00229454,-0.004680634,0,
00:07.3,0.000343323,-0.002288818,-0.004674911,0,
00:07.3,0.000349045,-0.00226593,-0.004674911,0,
00:07.3,0.000343323,-0.002271652,-0.004680634,0,
00:07.3,0.000343323,-0.002300262,-0.004669189,0,
00:07.3,0.000343323,-0.002277374,-0.004669189,0,
00:07.4,0.000331879,-0.00229454,-0.004663467,0,
00:07.4,0.000326157,-0.00229454,-0.004663467,0,
00:07.4,0.000337601,-0.002311707,-0.004652023,0,
00:07.4,0.000343323,-0.002317429,-0.004652023,0,
00:07.4,0.000343323,-0.002305984,-0.004663467,0,
00:07.4,0.000349045,-0.002283096,-0.004663467,0,
00:07.4,0.000360489,-0.00226593,-0.004652023,0,
00:07.4,0.000366211,-0.002260208,-0.004657745,0,
00:07.4,0.000343323,-0.002283096,-0.004657745,0,
00:07.4,0.000337601,-0.002283096,-0.004634857,0,
00:07.4,0.000343323,-0.00229454,-0.004623413,0,
00:07.4,0.000349045,-0.002283096,-0.004623413,0,
00:07.4,0.000337601,-0.002305984,-0.004634857,0,
00:07.4,0.000331879,-0.002317429,-0.004623413,0,
00:07.4,0.000337601,-0.002300262,-0.004617691,0,
00:07.4,0.000331879,-0.002277374,-0.004623413,0,
00:07.4,0.000337601,-0.002271652,-0.004617691,0,
00:07.4,0.000349045,-0.002277374,-0.004623413,0,
00:07.4,0.000343323,-0.002283096,-0.004611969,0,
00:07.4,0.000331879,-0.002283096,-0.004623413,0,
00:07.4,0.000354767,-0.00229454,-0.004623413,0,
00:07.4,0.000360489,-0.002277374,-0.004623413,0,
00:07.4,0.000371933,-0.00226593,-0.004617691,0,
00:07.4,0.000371933,-0.002260208,-0.004589081,0,
00:07.4,0.000377655,-0.002231598,-0.004617691,0,
00:07.5,0.000354767,-0.002288818,-0.004606247,0,
00:07.5,0.000349045,-0.002288818,-0.004600525,0,
00:07.5,0.000349045,-0.00229454,-0.004600525,0,
00:07.5,0.000354767,-0.002288818,-0.004583359,0,
00:07.5,0.000354767,-0.002277374,-0.004589081,0,
00:07.5,0.000354767,-0.00226593,-0.004594803,0,
00:07.5,0.000360489,-0.002243042,-0.004594803,0,
00:07.5,0.000360489,-0.002248764,-0.004589081,0,
00:07.5,0.000349045,-0.002254486,-0.004594803,0,
00:07.5,0.000337601,-0.002277374,-0.004583359,0,
00:07.5,0.000343323,-0.002277374,-0.004566193,0,
00:07.5,0.000337601,-0.00226593,-0.004577637,0,
00:07.5,0.000331879,-0.002277374,-0.004566193,0,
00:07.5,0.000337601,-0.002271652,-0.004560471,0,
00:07.5,0.000354767,-0.002260208,-0.004566193,0,
00:07.5,0.000360489,-0.002243042,-0.004549026,0,
00:07.5,0.000360489,-0.002248764,-0.004554749,0,
00:07.5,0.000354767,-0.002243042,-0.004560471,0,
00:07.5,0.000331879,-0.002271652,-0.004554749,0,
00:07.5,0.000343323,-0.002254486,-0.004554749,0,
00:07.5,0.000366211,-0.00223732,-0.004549026,0,
00:07.5,0.000354767,-0.00223732,-0.004554749,0,
00:07.5,0.000331879,-0.002254486,-0.004566193,0,
00:07.5,0.000343323,-0.002254486,-0.004554749,0,
00:07.5,0.000337601,-0.002260208,-0.004549026,0,
00:07.6,0.000337601,-0.002243042,-0.004543304,0,
00:07.6,0.000343323,-0.00223732,-0.00453186,0,
00:07.6,0.000349045,-0.002248764,-0.004526138,0,
00:07.6,0.000343323,-0.002254486,-0.004526138,0,
00:07.6,0.000343323,-0.00223732,-0.00453186,0,
00:07.6,0.000337601,-0.002243042,-0.004520416,0,
00:07.6,0.000343323,-0.002248764,-0.00450325,0,
00:07.6,0.000337601,-0.002271652,-0.00450325,0,
00:07.6,0.000320435,-0.002277374,-0.004491806,0,
00:07.6,0.000297546,-0.002254486,-0.004497528,0,
00:07.6,0.000337601,-0.002231598,-0.004508972,0,
00:07.6,0.000343323,-0.00226593,-0.00450325,0,
00:07.6,0.000343323,-0.002243042,-0.004514694,0,
00:07.6,0.000354767,-0.002231598,-0.004520416,0,
00:07.6,0.000343323,-0.002243042,-0.004508972,0,
00:07.6,0.000349045,-0.002248764,-0.004497528,0,
00:07.6,0.000354767,-0.00223732,-0.00450325,0,
00:07.6,0.000337601,-0.00223732,-0.004508972,0,
00:07.6,0.000326157,-0.002214432,-0.004491806,0,
00:07.6,0.000320435,-0.002231598,-0.004480362,0,
00:07.6,0.000326157,-0.002231598,-0.004491806,0,
00:07.6,0.000337601,-0.00223732,-0.004486084,0,
00:07.6,0.000343323,-0.002231598,-0.004480362,0,
00:07.6,0.000349045,-0.002214432,-0.00447464,0,
00:07.6,0.000331879,-0.002231598,-0.004480362,0,
00:07.7,0.000331879,-0.002231598,-0.004468918,0,
00:07.7,0.000337601,-0.00220871,-0.00447464,0,
00:07.7,0.000326157,-0.002220154,-0.004486084,0,
00:07.7,0.000320435,-0.002243042,-0.004463196,0,
00:07.7,0.000343323,-0.002220154,-0.004451752,0,
00:07.7,0.000337601,-0.002214432,-0.004463196,0,
00:07.7,0.000331879,-0.00220871,-0.004463196,0,
00:07.7,0.000331879,-0.002214432,-0.004468918,0,
00:07.7,0.000331879,-0.002220154,-0.004457474,0,
00:07.7,0.000314713,-0.00223732,-0.004434586,0,
00:07.7,0.000320435,-0.002214432,-0.004451752,0,
00:07.7,0.000343323,-0.00220871,-0.004468918,0,
00:07.7,0.000337601,-0.002202988,-0.004451752,0,
00:07.7,0.000331879,-0.002202988,-0.00444603,0,
00:07.7,0.000360489,-0.002202988,-0.00444603,0,
00:07.7,0.000343323,-0.00220871,-0.004457474,0,
00:07.7,0.000320435,-0.002197266,-0.004434586,0,
00:07.7,0.000337601,-0.002197266,-0.00444603,0,
00:07.7,0.000349045,-0.002231598,-0.004440308,0,
00:07.7,0.000343323,-0.002214432,-0.004428864,0,
00:07.7,0.000337601,-0.002197266,-0.00444603,0,
00:07.7,0.000326157,-0.002214432,-0.00444603,0,
00:07.7,0.000337601,-0.002191544,-0.004434586,0,
00:07.7,0.000337601,-0.002202988,-0.004434586,0,
00:07.7,0.000326157,-0.00220871,-0.004428864,0,
00:07.8,0.000331879,-0.002197266,-0.004428864,0,
00:07.8,0.000331879,-0.002220154,-0.004423141,0,
00:07.8,0.000331879,-0.002197266,-0.004423141,0,
00:07.8,0.000337601,-0.002197266,-0.004428864,0,
00:07.8,0.000331879,-0.002225876,-0.004423141,0,
00:07.8,0.000331879,-0.002231598,-0.004423141,0,
00:07.8,0.000331879,-0.002202988,-0.004428864,0,
00:07.8,0.000349045,-0.002197266,-0.004434586,0,
00:07.8,0.000343323,-0.00220871,-0.004417419,0,
00:07.8,0.000331879,-0.002202988,-0.004411697,0,
00:07.8,0.000337601,-0.002202988,-0.004423141,0,
00:07.8,0.000343323,-0.002214432,-0.004405975,0,
00:07.8,0.000331879,-0.002220154,-0.004394531,0,
00:07.8,0.000337601,-0.002202988,-0.004383087,0,
00:07.8,0.000343323,-0.002197266,-0.004388809,0,
00:07.8,0.000331879,-0.00220871,-0.004405975,0,
00:07.8,0.000320435,-0.002225876,-0.004411697,0,
00:07.8,0.000326157,-0.00220871,-0.004400253,0,
00:07.8,0.000314713,-0.002231598,-0.004383087,0,
00:07.8,0.000303268,-0.002214432,-0.004377365,0,
00:07.8,0.00030899,-0.002180099,-0.004394531,0,
00:07.8,0.000337601,-0.002197266,-0.004388809,0,
00:07.8,0.000337601,-0.002202988,-0.004371643,0,
00:07.8,0.000331879,-0.002197266,-0.004371643,0,
00:07.8,0.000303268,-0.002202988,-0.004388809,0,
00:07.9,0.000320435,-0.002191544,-0.004377365,0,
00:07.9,0.000337601,-0.002185822,-0.004383087,0,
00:07.9,0.000349045,-0.00220871,-0.004377365,0,
00:07.9,0.000343323,-0.00220871,-0.004377365,0,
00:07.9,0.000343323,-0.002197266,-0.004371643,0,
00:07.9,0.000343323,-0.002197266,-0.004371643,0,
00:07.9,0.000320435,-0.00220871,-0.004383087,0,
00:07.9,0.000326157,-0.002202988,-0.004400253,0,
00:07.9,0.000331879,-0.002197266,-0.004377365,0,
00:07.9,0.000331879,-0.002191544,-0.004377365,0,
00:07.9,0.000331879,-0.002197266,-0.004377365,0,
00:07.9,0.000337601,-0.002185822,-0.004371643,0,
00:07.9,0.000331879,-0.002202988,-0.004377365,0,
00:07.9,0.000331879,-0.002191544,-0.004360199,0,
00:07.9,0.000326157,-0.00220871,-0.004354477,0,
00:07.9,0.000314713,-0.00220871,-0.004377365,0,
00:07.9,0.000314713,-0.002197266,-0.004371643,0,
00:07.9,0.000326157,-0.002185822,-0.004354477,0,
00:07.9,0.000337601,-0.002162933,-0.004360199,0,
00:07.9,0.000343323,-0.002157211,-0.004371643,0,
00:07.9,0.000326157,-0.002180099,-0.004394531,0,
00:07.9,0.00030899,-0.00220871,-0.004371643,0,
00:07.9,0.000326157,-0.002197266,-0.004348755,0,
00:07.9,0.000326157,-0.002197266,-0.004343033,0,
00:07.9,0.000326157,-0.002202988,-0.004348755,0,
00:08.0,0.000331879,-0.00220871,-0.004371643,0,
00:08.0,0.000326157,-0.002185822,-0.004365921,0,
00:08.0,0.00030899,-0.002157211,-0.004348755,0,
00:08.0,0.000337601,-0.002157211,-0.004337311,0,
00:08.0,0.000337601,-0.002214432,-0.004354477,0,
00:08.0,0.000337601,-0.002197266,-0.004354477,0,
00:08.0,0.000331879,-0.002197266,-0.004348755,0,
00:08.0,0.000343323,-0.002202988,-0.004354477,0,
00:08.0,0.000337601,-0.002214432,-0.004348755,0,
00:08.0,0.000337601,-0.002191544,-0.004337311,0,
00:08.0,0.000314713,-0.002174377,-0.004354477,0,
00:08.0,0.00030899,-0.002174377,-0.004354477,0,
00:00:08,0.000349045,-0.002174377,-0.004365921,0,
00:08.0,0.000349045,-0.002174377,-0.004360199,0,
00:08.0,0.000337601,-0.002185822,-0.004354477,0,
00:08.0,0.000343323,-0.002197266,-0.004343033,0,
00:08.0,0.000343323,-0.002168655,-0.004354477,0,
00:08.0,0.000326157,-0.002197266,-0.004360199,0,
00:08.0,0.000337601,-0.002168655,-0.004354477,0,
00:08.0,0.000343323,-0.002168655,-0.004354477,0,
00:08.0,0.000337601,-0.002180099,-0.004354477,0,
00:08.0,0.000320435,-0.00220871,-0.004348755,0,
00:08.0,0.000326157,-0.002191544,-0.004343033,0,
00:08.0,0.000326157,-0.002197266,-0.004343033,0,
00:08.0,0.000326157,-0.002214432,-0.004348755,0,
00:08.1,0.000331879,-0.002197266,-0.004354477,0,
00:08.1,0.000331879,-0.002180099,-0.004365921,0,
00:08.1,0.000337601,-0.002157211,-0.004365921,0,
00:08.1,0.000349045,-0.002157211,-0.004377365,0,
00:08.1,0.000326157,-0.002225876,-0.004343033,0,
00:08.1,0.000331879,-0.002225876,-0.004348755,0,
00:08.1,0.000331879,-0.00220871,-0.004354477,0,
00:08.1,0.000331879,-0.002202988,-0.004360199,0,
00:08.1,0.000337601,-0.002185822,-0.004354477,0,
00:08.1,0.000349045,-0.002168655,-0.004354477,0,
00:08.1,0.000337601,-0.002197266,-0.004354477,0,
00:08.1,0.00030899,-0.002202988,-0.004348755,0,
00:08.1,0.000326157,-0.002191544,-0.004360199,0,
00:08.1,0.000337601,-0.002202988,-0.004360199,0,
00:08.1,0.000343323,-0.002197266,-0.004365921,0,
00:08.1,0.000366211,-0.002162933,-0.004383087,0,
00:08.1,0.000343323,-0.00220871,-0.004383087,0,
00:08.1,0.000331879,-0.002220154,-0.004371643,0,
00:08.1,0.000337601,-0.002202988,-0.004377365,0,
00:08.1,0.000337601,-0.002202988,-0.004383087,0,
00:08.1,0.000343323,-0.002191544,-0.004383087,0,
00:08.1,0.000343323,-0.002191544,-0.004388809,0,
00:08.1,0.000343323,-0.002185822,-0.004400253,0,
00:08.1,0.000331879,-0.002191544,-0.004405975,0,
00:08.1,0.000331879,-0.002185822,-0.004394531,0,
00:08.2,0.000337601,-0.002191544,-0.004394531,0,
00:08.2,0.000349045,-0.002191544,-0.004383087,0,
00:08.2,0.000360489,-0.002197266,-0.004371643,0,
00:08.2,0.000354767,-0.002191544,-0.004377365,0,
00:08.2,0.000354767,-0.002197266,-0.004383087,0,
00:08.2,0.000354767,-0.002180099,-0.004394531,0,
00:08.2,0.000360489,-0.002168655,-0.004411697,0,
00:08.2,0.000343323,-0.002197266,-0.004400253,0,
00:08.2,0.000349045,-0.002180099,-0.004405975,0,
00:08.2,0.000349045,-0.002180099,-0.004400253,0,
00:08.2,0.000366211,-0.002180099,-0.004417419,0,
00:08.2,0.000360489,-0.002180099,-0.004428864,0,
00:08.2,0.000366211,-0.002174377,-0.004417419,0,
00:08.2,0.000366211,-0.002185822,-0.004423141,0,
00:08.2,0.000354767,-0.00220871,-0.004434586,0,
00:08.2,0.000354767,-0.002202988,-0.004434586,0,
00:08.2,0.000360489,-0.002191544,-0.004440308,0,
00:08.2,0.000371933,-0.002180099,-0.00444603,0,
00:08.2,0.000389099,-0.002157211,-0.004463196,0,
00:08.2,0.000366211,-0.00220871,-0.004451752,0,
00:08.2,0.000349045,-0.002214432,-0.004463196,0,
00:08.2,0.000354767,-0.002197266,-0.004463196,0,
00:08.2,0.000366211,-0.002185822,-0.004457474,0,
00:08.2,0.000371933,-0.002180099,-0.004463196,0,
00:08.2,0.000366211,-0.002191544,-0.004457474,0,
00:08.3,0.000360489,-0.002197266,-0.004491806,0,
00:08.3,0.000349045,-0.00220871,-0.004468918,0,
00:08.3,0.000354767,-0.002197266,-0.00447464,0,
00:08.3,0.000366211,-0.002191544,-0.004491806,0,
00:08.3,0.000394821,-0.002157211,-0.004497528,0,
00:08.3,0.000400543,-0.002168655,-0.00450325,0,
00:08.3,0.000383377,-0.002214432,-0.00450325,0,
00:08.3,0.000366211,-0.002214432,-0.004508972,0,
00:08.3,0.000371933,-0.002202988,-0.004520416,0,
00:08.3,0.000377655,-0.002191544,-0.00453186,0,
00:08.3,0.000371933,-0.002214432,-0.004537582,0,
00:08.3,0.000383377,-0.002191544,-0.00453186,0,
00:08.3,0.000383377,-0.002185822,-0.004537582,0,
00:08.3,0.000383377,-0.002202988,-0.004549026,0,
00:08.3,0.000389099,-0.002197266,-0.004560471,0,
00:08.3,0.000389099,-0.002202988,-0.004571915,0,
00:08.3,0.000389099,-0.002191544,-0.004571915,0,
00:08.3,0.000394821,-0.002191544,-0.004583359,0,
00:08.3,0.000389099,-0.002185822,-0.004594803,0,
00:08.3,0.000377655,-0.002225876,-0.004594803,0,
00:08.3,0.000377655,-0.00220871,-0.004600525,0,
00:08.3,0.000383377,-0.00220871,-0.004589081,0,
00:08.3,0.000400543,-0.00220871,-0.004594803,0,
00:08.3,0.000394821,-0.002202988,-0.004600525,0,
00:08.3,0.000400543,-0.002202988,-0.004611969,0,
00:08.4,0.000406265,-0.002191544,-0.004623413,0,
00:08.4,0.000394821,-0.002185822,-0.004634857,0,
00:08.4,0.000377655,-0.002180099,-0.004657745,0,
00:08.4,0.000389099,-0.002191544,-0.004646301,0,
00:08.4,0.000406265,-0.002197266,-0.004652023,0,
00:08.4,0.000434875,-0.002162933,-0.004669189,0,
00:08.4,0.000411987,-0.002185822,-0.004657745,0,
00:08.4,0.000400543,-0.00220871,-0.004652023,0,
00:08.4,0.000406265,-0.002214432,-0.004674911,0,
00:08.4,0.000406265,-0.002214432,-0.0046978,0,
00:08.4,0.000411987,-0.002197266,-0.004703522,0,
00:08.4,0.000411987,-0.002202988,-0.004709244,0,
00:08.4,0.000423431,-0.002168655,-0.004714966,0,
00:08.4,0.000429153,-0.002168655,-0.004737854,0,
00:08.4,0.000411987,-0.002197266,-0.004732132,0,
00:08.4,0.000411987,-0.002185822,-0.004749298,0,
00:08.4,0.000417709,-0.002174377,-0.00475502,0,
00:08.4,0.000411987,-0.002185822,-0.004766464,0,
00:08.4,0.000417709,-0.002214432,-0.004760742,0,
00:08.4,0.000423431,-0.002220154,-0.00475502,0,
00:08.4,0.000417709,-0.002220154,-0.004766464,0,
00:08.4,0.000417709,-0.002202988,-0.004772186,0,
00:08.4,0.000423431,-0.002191544,-0.004789352,0,
00:08.4,0.000423431,-0.002191544,-0.004800797,0,
00:08.4,0.000423431,-0.002191544,-0.004812241,0,
00:08.5,0.000417709,-0.002197266,-0.004823685,0,
00:08.5,0.000423431,-0.002202988,-0.004840851,0,
00:08.5,0.000423431,-0.002197266,-0.004852295,0,
00:08.5,0.000434875,-0.002185822,-0.004869461,0,
00:08.5,0.000429153,-0.002180099,-0.004869461,0,
00:08.5,0.000429153,-0.002185822,-0.004880905,0,
00:08.5,0.000429153,-0.002168655,-0.004892349,0,
00:08.5,0.000434875,-0.002157211,-0.004903793,0,
00:08.5,0.000440598,-0.002180099,-0.004909515,0,
00:08.5,0.000452042,-0.002162933,-0.004926682,0,
00:08.5,0.000429153,-0.002191544,-0.004938126,0,
00:08.5,0.000423431,-0.002220154,-0.004926682,0,
00:08.5,0.000434875,-0.002202988,-0.004938126,0,
00:08.5,0.000434875,-0.002197266,-0.004966736,0,
00:08.5,0.000440598,-0.00220871,-0.004955292,0,
00:08.5,0.000440598,-0.002191544,-0.00497818,0,
00:08.5,0.00044632,-0.002174377,-0.004995346,0,
00:08.5,0.000440598,-0.002180099,-0.004995346,0,
00:08.5,0.000440598,-0.002191544,-0.005001068,0,
00:08.5,0.000452042,-0.002180099,-0.005012512,0,
00:08.5,0.00044632,-0.002168655,-0.0050354,0,
00:08.5,0.00044632,-0.002185822,-0.005046844,0,
00:08.5,0.000457764,-0.002191544,-0.005064011,0,
00:08.5,0.000463486,-0.002197266,-0.005069733,0,
00:08.5,0.000452042,-0.002191544,-0.005075455,0,
00:08.6,0.000457764,-0.002185822,-0.005081177,0,
00:08.6,0.000457764,-0.002185822,-0.005098343,0,
00:08.6,0.000457764,-0.002185822,-0.005115509,0,
00:08.6,0.000457764,-0.002185822,-0.005121231,0,
00:08.6,0.000434875,-0.002185822,-0.005115509,0,
00:08.6,0.000411987,-0.002174377,-0.005155563,0,
00:08.6,0.000480652,-0.002191544,-0.005172729,0,
00:08.6,0.00050354,-0.002191544,-0.005178452,0,
00:08.6,0.000480652,-0.002180099,-0.005178452,0,
00:08.6,0.000480652,-0.002185822,-0.005195618,0,
00:08.6,0.000480652,-0.002180099,-0.005212784,0,
00:08.6,0.000469208,-0.002191544,-0.00522995,0,
00:08.6,0.00047493,-0.002185822,-0.005224228,0,
00:08.6,0.00047493,-0.002174377,-0.005241394,0,
00:08.6,0.00047493,-0.002185822,-0.005252838,0,
00:08.6,0.000480652,-0.00220871,-0.00525856,0,
00:08.6,0.000480652,-0.002191544,-0.005270004,0,
00:08.6,0.00047493,-0.002202988,-0.00528717,0,
00:08.6,0.000486374,-0.002202988,-0.005298615,0,
00:08.6,0.000492096,-0.002191544,-0.005304337,0,
00:08.6,0.000486374,-0.002180099,-0.005327225,0,
00:08.6,0.000480652,-0.002191544,-0.005338669,0,
00:08.6,0.000480652,-0.002191544,-0.005355835,0,
00:08.6,0.000480652,-0.002191544,-0.005355835,0,
00:08.6,0.00047493,-0.002185822,-0.005367279,0,
00:08.7,0.00047493,-0.002191544,-0.005384445,0,
00:08.7,0.000480652,-0.002197266,-0.005401611,0,
00:08.7,0.000480652,-0.002191544,-0.005413055,0,
00:08.7,0.00047493,-0.002191544,-0.0054245,0,
00:08.7,0.000492096,-0.002174377,-0.005441666,0,
00:08.7,0.000492096,-0.002174377,-0.005475998,0,
00:08.7,0.000486374,-0.002185822,-0.005470276,0,
00:08.7,0.000486374,-0.002191544,-0.005464554,0,
00:08.7,0.000469208,-0.00220871,-0.005487442,0,
00:08.7,0.000469208,-0.002197266,-0.005498886,0,
00:08.7,0.00047493,-0.00220871,-0.005498886,0,
00:08.7,0.000480652,-0.002225876,-0.00551033,0,
00:08.7,0.000492096,-0.002197266,-0.005533218,0,
00:08.7,0.000486374,-0.002197266,-0.005544662,0,
00:08.7,0.000480652,-0.00220871,-0.005550385,0,
00:08.7,0.000480652,-0.002202988,-0.005573273,0,
00:08.7,0.000480652,-0.002202988,-0.005578995,0,
00:08.7,0.000480652,-0.002191544,-0.005590439,0,
00:08.7,0.000486374,-0.002185822,-0.005613327,0,
00:08.7,0.000480652,-0.002191544,-0.005613327,0,
00:08.7,0.000492096,-0.002191544,-0.005636215,0,
00:08.7,0.000492096,-0.002202988,-0.005653381,0,
00:08.7,0.000486374,-0.002214432,-0.005653381,0,
00:08.7,0.000486374,-0.002202988,-0.005659103,0,
00:08.7,0.000497818,-0.002202988,-0.00567627,0,
00:08.8,0.00050354,-0.00220871,-0.005693436,0,
00:08.8,0.000486374,-0.002197266,-0.005699158,0,
00:08.8,0.000492096,-0.002180099,-0.005722046,0,
00:08.8,0.000492096,-0.002202988,-0.005744934,0,
00:08.8,0.000480652,-0.002214432,-0.005756378,0,
00:08.8,0.000480652,-0.002214432,-0.005750656,0,
00:08.8,0.000480652,-0.002220154,-0.005756378,0,
00:08.8,0.000492096,-0.002202988,-0.005773544,0,
00:08.8,0.000492096,-0.002214432,-0.00579071,0,
00:08.8,0.000492096,-0.002214432,-0.00579071,0,
00:08.8,0.000486374,-0.002231598,-0.005819321,0,
00:08.8,0.000486374,-0.002220154,-0.005830765,0,
00:08.8,0.000486374,-0.00220871,-0.005842209,0,
00:08.8,0.000492096,-0.002202988,-0.005853653,0,
00:08.8,0.000486374,-0.002220154,-0.005865097,0,
00:08.8,0.000486374,-0.00223732,-0.005870819,0,
00:08.8,0.000492096,-0.002231598,-0.005893707,0,
00:08.8,0.000492096,-0.002225876,-0.005905151,0,
00:08.8,0.000492096,-0.00223732,-0.005916595,0,
00:08.8,0.00047493,-0.00223732,-0.005933762,0,
00:08.8,0.000480652,-0.002225876,-0.005939484,0,
00:08.8,0.000480652,-0.002220154,-0.00595665,0,
00:08.8,0.00047493,-0.002248764,-0.005968094,0,
00:08.8,0.000463486,-0.002260208,-0.005962372,0,
00:08.8,0.00047493,-0.002248764,-0.005973816,0,
00:08.9,0.00047493,-0.00223732,-0.005996704,0,
00:08.9,0.000480652,-0.002231598,-0.00601387,0,
00:08.9,0.000486374,-0.002214432,-0.006019592,0,
00:08.9,0.000486374,-0.002202988,-0.006031036,0,
00:08.9,0.000469208,-0.002243042,-0.006053925,0,
00:08.9,0.000469208,-0.002254486,-0.006059647,0,
00:08.9,0.00047493,-0.002254486,-0.006053925,0,
00:08.9,0.000469208,-0.002254486,-0.006065369,0,
00:08.9,0.000463486,-0.002254486,-0.006088257,0,
00:08.9,0.000469208,-0.002243042,-0.006099701,0,
00:08.9,0.000480652,-0.002225876,-0.006111145,0,
00:08.9,0.000469208,-0.00223732,-0.006122589,0,
00:08.9,0.000469208,-0.002243042,-0.006139755,0,
00:08.9,0.000469208,-0.002231598,-0.006151199,0,
00:08.9,0.000463486,-0.002225876,-0.006174088,0,
00:08.9,0.000463486,-0.00226593,-0.006168365,0,
00:08.9,0.000463486,-0.002277374,-0.006168365,0,
00:08.9,0.000457764,-0.002283096,-0.00617981,0,
00:08.9,0.000463486,-0.00226593,-0.006196976,0,
00:08.9,0.00047493,-0.00223732,-0.006202698,0,
00:08.9,0.000469208,-0.00223732,-0.006219864,0,
00:08.9,0.000463486,-0.002254486,-0.006225586,0,
00:08.9,0.000469208,-0.002243042,-0.006254196,0,
00:08.9,0.000452042,-0.002283096,-0.006271362,0,
00:08.9,0.00044632,-0.00226593,-0.006254196,0,
00:09.0,0.000452042,-0.002260208,-0.006259918,0,
00:09.0,0.000440598,-0.002288818,-0.006259918,0,
00:09.0,0.000434875,-0.002288818,-0.006277084,0,
00:09.0,0.00044632,-0.002283096,-0.006299973,0,
00:09.0,0.000457764,-0.00226593,-0.006317139,0,
00:09.0,0.00047493,-0.002254486,-0.006322861,0,
00:09.0,0.000457764,-0.00226593,-0.006340027,0,
00:09.0,0.000440598,-0.002277374,-0.006345749,0,
00:09.0,0.00044632,-0.002277374,-0.006362915,0,
00:09.0,0.000440598,-0.002283096,-0.006374359,0,
00:09.0,0.000457764,-0.002277374,-0.006368637,0,
00:09.0,0.00047493,-0.002248764,-0.006380081,0,
00:00:09,0.00047493,-0.002248764,-0.006397247,0,
00:09.0,0.000457764,-0.002271652,-0.006397247,0,
00:09.0,0.00044632,-0.002283096,-0.006408691,0,
00:09.0,0.000452042,-0.002283096,-0.006414413,0,
00:09.0,0.000452042,-0.002277374,-0.006437302,0,
00:09.0,0.000457764,-0.002277374,-0.006443024,0,
00:09.0,0.00044632,-0.00229454,-0.006437302,0,
00:09.0,0.00044632,-0.002271652,-0.006454468,0,
00:09.0,0.000457764,-0.002243042,-0.006471634,0,
00:09.0,0.000440598,-0.00229454,-0.0064888,0,
00:09.0,0.00044632,-0.002283096,-0.0064888,0,
00:09.0,0.000440598,-0.002271652,-0.006511688,0,
00:09.0,0.000429153,-0.002283096,-0.006505966,0,
00:09.1,0.000434875,-0.00229454,-0.00651741,0,
00:09.1,0.000440598,-0.002300262,-0.006528854,0,
00:09.1,0.000440598,-0.002288818,-0.006528854,0,
00:09.1,0.000440598,-0.002283096,-0.006540298,0,
00:09.1,0.000434875,-0.002283096,-0.006551743,0,
00:09.1,0.000434875,-0.002288818,-0.006546021,0,
00:09.1,0.000434875,-0.00229454,-0.006557465,0,
00:09.1,0.000440598,-0.002288818,-0.006591797,0,
00:09.1,0.000434875,-0.00229454,-0.006603241,0,
00:09.1,0.000429153,-0.002300262,-0.006608963,0,
00:09.1,0.000429153,-0.002300262,-0.006597519,0,
00:09.1,0.000423431,-0.002288818,-0.006608963,0,
00:09.1,0.000417709,-0.002288818,-0.006620407,0,
00:09.1,0.000429153,-0.002271652,-0.006626129,0,
00:09.1,0.000423431,-0.002271652,-0.006649017,0,
00:09.1,0.000411987,-0.002317429,-0.006643295,0,
00:09.1,0.000417709,-0.002305984,-0.006649017,0,
00:09.1,0.000429153,-0.002283096,-0.006660461,0,
00:09.1,0.000411987,-0.002305984,-0.006666183,0,
00:09.1,0.000417709,-0.002311707,-0.00668335,0,
00:09.1,0.000423431,-0.00229454,-0.006706238,0,
00:09.1,0.000423431,-0.002283096,-0.006706238,0,
00:09.1,0.000423431,-0.002288818,-0.00671196,0,
00:09.1,0.000423431,-0.00229454,-0.006717682,0,
00:09.1,0.000417709,-0.002300262,-0.00671196,0,
00:09.2,0.000411987,-0.002300262,-0.006723404,0,
00:09.2,0.000406265,-0.002305984,-0.006734848,0,
00:09.2,0.000411987,-0.002300262,-0.00674057,0,
00:09.2,0.000417709,-0.002283096,-0.00674057,0,
00:09.2,0.000406265,-0.002300262,-0.006746292,0,
00:09.2,0.000406265,-0.002300262,-0.006752014,0,
00:09.2,0.000411987,-0.002305984,-0.00676918,0,
00:09.2,0.000417709,-0.002311707,-0.006780624,0,
00:09.2,0.000423431,-0.002288818,-0.006774902,0,
00:09.2,0.000411987,-0.00229454,-0.006780624,0,
00:09.2,0.000400543,-0.002311707,-0.006786346,0,
00:09.2,0.000400543,-0.002323151,-0.006792068,0,
00:09.2,0.000400543,-0.002311707,-0.006803513,0,
00:09.2,0.000400543,-0.002317429,-0.006809235,0,
00:09.2,0.000400543,-0.002311707,-0.006814957,0,
00:09.2,0.000394821,-0.002311707,-0.006814957,0,
00:09.2,0.000411987,-0.002300262,-0.006832123,0,
00:09.2,0.000411987,-0.002323151,-0.006855011,0,
00:09.2,0.000394821,-0.002334595,-0.006866455,0,
00:09.2,0.000354767,-0.002328873,-0.006843567,0,
00:09.2,0.000349045,-0.002317429,-0.006826401,0,
00:09.2,0.000417709,-0.002311707,-0.006877899,0,
00:09.2,0.000389099,-0.002340317,-0.006866455,0,
00:09.2,0.000389099,-0.002323151,-0.006866455,0,
00:09.2,0.000394821,-0.002323151,-0.006883621,0,
00:09.3,0.000400543,-0.002323151,-0.006883621,0,
00:09.3,0.000400543,-0.002317429,-0.006889343,0,
00:09.3,0.000389099,-0.002323151,-0.006900787,0,
00:09.3,0.000389099,-0.002311707,-0.006906509,0,
00:09.3,0.000383377,-0.002328873,-0.006912231,0,
00:09.3,0.000383377,-0.002305984,-0.006923676,0,
00:09.3,0.000389099,-0.002300262,-0.006940842,0,
00:09.3,0.000366211,-0.002351761,-0.006923676,0,
00:09.3,0.000366211,-0.002328873,-0.006912231,0,
00:09.3,0.000360489,-0.002340317,-0.006917953,0,
00:09.3,0.000371933,-0.002340317,-0.00693512,0,
00:09.3,0.000371933,-0.002323151,-0.006952286,0,
00:09.3,0.000360489,-0.002340317,-0.006952286,0,
00:09.3,0.000366211,-0.002351761,-0.006946564,0,
00:09.3,0.000366211,-0.002334595,-0.006958008,0,
00:09.3,0.000360489,-0.002357483,-0.006975174,0,
00:09.3,0.000360489,-0.002357483,-0.006986618,0,
00:09.3,0.000354767,-0.002368927,-0.006986618,0,
00:09.3,0.000366211,-0.002357483,-0.006969452,0,
00:09.3,0.000366211,-0.002346039,-0.006986618,0,
00:09.3,0.000371933,-0.002351761,-0.00699234,0,
00:09.3,0.000366211,-0.002363205,-0.00699234,0,
00:09.3,0.000360489,-0.002328873,-0.007003784,0,
00:09.3,0.000360489,-0.002328873,-0.007009506,0,
00:09.3,0.000343323,-0.002386093,-0.006998062,0,
00:09.4,0.000337601,-0.002368927,-0.007015228,0,
00:09.4,0.000343323,-0.002374649,-0.00699234,0,
00:09.4,0.000366211,-0.002363205,-0.007003784,0,
00:09.4,0.000366211,-0.002363205,-0.007032394,0,
00:09.4,0.000366211,-0.002363205,-0.007038116,0,
00:09.4,0.000360489,-0.002357483,-0.007032394,0,
00:09.4,0.000343323,-0.002374649,-0.007032394,0,
00:09.4,0.000343323,-0.002386093,-0.007026672,0,
00:09.4,0.000366211,-0.002363205,-0.007038116,0,
00:09.4,0.000354767,-0.002391815,-0.007043839,0,
00:09.4,0.000349045,-0.002380371,-0.007038116,0,
00:09.4,0.000343323,-0.002374649,-0.007043839,0,
00:09.4,0.000337601,-0.002380371,-0.007061005,0,
00:09.4,0.000331879,-0.002391815,-0.007055283,0,
00:09.4,0.000331879,-0.002403259,-0.007055283,0,
00:09.4,0.000320435,-0.002408981,-0.007066727,0,
00:09.4,0.000331879,-0.002374649,-0.007066727,0,
00:09.4,0.000343323,-0.002357483,-0.007095337,0,
00:09.4,0.000331879,-0.002386093,-0.007078171,0,
00:09.4,0.000326157,-0.002397537,-0.007066727,0,
00:09.4,0.000337601,-0.002403259,-0.007066727,0,
00:09.4,0.000349045,-0.002374649,-0.007066727,0,
00:09.4,0.000360489,-0.002340317,-0.007078171,0,
00:09.4,0.000349045,-0.002368927,-0.007089615,0,
00:09.4,0.000320435,-0.002397537,-0.007083893,0,
00:09.5,0.000314713,-0.002397537,-0.007083893,0,
00:09.5,0.000314713,-0.002386093,-0.007101059,0,
00:09.5,0.000320435,-0.002374649,-0.007106781,0,
00:09.5,0.000337601,-0.002368927,-0.007083893,0,
00:09.5,0.000337601,-0.002380371,-0.007101059,0,
00:09.5,0.000337601,-0.002374649,-0.007112503,0,
00:09.5,0.00030899,-0.00243187,-0.007101059,0,
00:09.5,0.00030899,-0.002408981,-0.007095337,0,
00:09.5,0.000314713,-0.002391815,-0.007095337,0,
00:09.5,0.000320435,-0.002397537,-0.007101059,0,
00:09.5,0.000320435,-0.002391815,-0.007112503,0,
00:09.5,0.00030899,-0.002414703,-0.007112503,0,
00:09.5,0.00030899,-0.002414703,-0.007118225,0,
00:09.5,0.00030899,-0.002420425,-0.007112503,0,
00:09.5,0.000303268,-0.002414703,-0.007106781,0,
00:09.5,0.00030899,-0.002408981,-0.007106781,0,
00:09.5,0.000320435,-0.002386093,-0.007123947,0,
00:09.5,0.00030899,-0.002403259,-0.007141113,0,
00:09.5,0.000291824,-0.002420425,-0.007123947,0,
00:09.5,0.000303268,-0.002414703,-0.007118225,0,
00:09.5,0.000314713,-0.002397537,-0.007118225,0,
00:09.5,0.000291824,-0.002391815,-0.007129669,0,
00:09.5,0.000286102,-0.002414703,-0.007118225,0,
00:09.5,0.000297546,-0.002426147,-0.007129669,0,
00:09.5,0.000286102,-0.00243187,-0.007129669,0,
00:09.6,0.000303268,-0.002420425,-0.007123947,0,
00:09.6,0.000314713,-0.002403259,-0.007135391,0,
00:09.6,0.000303268,-0.002403259,-0.007141113,0,
00:09.6,0.00028038,-0.002449036,-0.007129669,0,
00:09.6,0.000291824,-0.002449036,-0.007123947,0,
00:09.6,0.000297546,-0.002426147,-0.007135391,0,
00:09.6,0.000291824,-0.002420425,-0.007146835,0,
00:09.6,0.00028038,-0.002426147,-0.007141113,0,
00:09.6,0.000263214,-0.00243187,-0.007135391,0,
00:09.6,0.000268936,-0.002454758,-0.007118225,0,
00:09.6,0.00028038,-0.002454758,-0.007135391,0,
00:09.6,0.000286102,-0.002408981,-0.007146835,0,
00:09.6,0.00028038,-0.002408981,-0.007158279,0,
00:09.6,0.000274658,-0.002414703,-0.007146835,0,
00:09.6,0.000274658,-0.002420425,-0.007135391,0,
00:09.6,0.000257492,-0.002454758,-0.007141113,0,
00:09.6,0.000246048,-0.002477646,-0.007129669,0,
00:09.6,0.000263214,-0.002449036,-0.007129669,0,
00:09.6,0.000268936,-0.002437592,-0.007135391,0,
00:09.6,0.000268936,-0.002443314,-0.007146835,0,
00:09.6,0.00028038,-0.002426147,-0.007152557,0,
00:09.6,0.000268936,-0.002443314,-0.007158279,0,
00:09.6,0.000263214,-0.00246048,-0.007158279,0,
00:09.6,0.000268936,-0.00246048,-0.007141113,0,
00:09.6,0.000268936,-0.00246048,-0.007135391,0,
00:09.7,0.000263214,-0.002437592,-0.007135391,0,
00:09.7,0.000263214,-0.002443314,-0.007146835,0,
00:09.7,0.000268936,-0.002454758,-0.007141113,0,
00:09.7,0.000263214,-0.002443314,-0.007152557,0,
00:09.7,0.000268936,-0.002454758,-0.007141113,0,
00:09.7,0.000268936,-0.002437592,-0.007141113,0,
00:09.7,0.000257492,-0.002437592,-0.007146835,0,
00:09.7,0.000263214,-0.002454758,-0.007135391,0,
00:09.7,0.000268936,-0.00243187,-0.007146835,0,
00:09.7,0.000263214,-0.002449036,-0.007146835,0,
00:09.7,0.000257492,-0.002454758,-0.007129669,0,
00:09.7,0.000257492,-0.002454758,-0.007135391,0,
00:09.7,0.00025177,-0.002454758,-0.007146835,0,
00:09.7,0.000257492,-0.002443314,-0.007146835,0,
00:09.7,0.00025177,-0.002449036,-0.007141113,0,
00:09.7,0.00025177,-0.002466202,-0.007129669,0,
00:09.7,0.00025177,-0.002471924,-0.007146835,0,
00:09.7,0.000257492,-0.002454758,-0.007135391,0,
00:09.7,0.00025177,-0.002454758,-0.007129669,0,
00:09.7,0.000246048,-0.002471924,-0.007118225,0,
00:09.7,0.00025177,-0.002466202,-0.007123947,0,
00:09.7,0.000257492,-0.002414703,-0.007141113,0,
00:09.7,0.00025177,-0.002414703,-0.007146835,0,
00:09.7,0.000234604,-0.002454758,-0.007118225,0,
00:09.7,0.000234604,-0.00246048,-0.007123947,0,
00:09.8,0.000240326,-0.002471924,-0.007118225,0,
00:09.8,0.00025177,-0.002454758,-0.007118225,0,
00:09.8,0.000263214,-0.002420425,-0.007123947,0,
00:09.8,0.00022316,-0.002466202,-0.007135391,0,
00:09.8,0.000205994,-0.00248909,-0.007112503,0,
00:09.8,0.000228882,-0.002494812,-0.007106781,0,
00:09.8,0.000228882,-0.002483368,-0.007123947,0,
00:09.8,0.000240326,-0.002477646,-0.007129669,0,
00:09.8,0.000234604,-0.002466202,-0.007123947,0,
00:09.8,0.000240326,-0.002471924,-0.007118225,0,
00:09.8,0.000240326,-0.002471924,-0.007123947,0,
00:09.8,0.000240326,-0.002466202,-0.007123947,0,
00:09.8,0.00025177,-0.002426147,-0.007129669,0,
00:09.8,0.000228882,-0.002454758,-0.007123947,0,
00:09.8,0.00022316,-0.00248909,-0.007106781,0,
00:09.8,0.000228882,-0.002483368,-0.007101059,0,
00:09.8,0.000228882,-0.002471924,-0.007112503,0,
00:09.8,0.000228882,-0.002466202,-0.007118225,0,
00:09.8,0.00022316,-0.002477646,-0.007106781,0,
00:09.8,0.000217438,-0.00248909,-0.007106781,0,
00:09.8,0.000217438,-0.002466202,-0.007118225,0,
00:09.8,0.00022316,-0.002483368,-0.007101059,0,
00:09.8,0.000234604,-0.002466202,-0.007095337,0,
00:09.8,0.000228882,-0.002466202,-0.007095337,0,
00:09.8,0.00022316,-0.00248909,-0.007089615,0,
00:09.9,0.000211716,-0.00248909,-0.007101059,0,
