Elapsed_Time,EMG1,EMG2,EMG3,BioRadio Event,Unnamed: 5
00:00:00,0.001424789,-0.001401901,-0.00822258,0,
00:00.0,0.001436234,-0.001396179,-0.008216858,0,
00:00.0,0.001424789,-0.001396179,-0.00819397,0,
00:00.0,0.001424789,-0.001396179,-0.008188248,0,
00:00.0,0.001424789,-0.001401901,-0.008199692,0,
00:00.0,0.001436234,-0.001390457,-0.008182526,0,
00:00.0,0.001419067,-0.001396179,-0.008182526,0,
00:00.0,0.001424789,-0.001390457,-0.008176804,0,
00:00.0,0.001424789,-0.001396179,-0.008165359,0,
00:00.0,0.001424789,-0.001407623,-0.008159637,0,
00:00.0,0.001430511,-0.001396179,-0.008165359,0,
00:00.0,0.001459122,-0.001390457,-0.008165359,0,
00:00.0,0.001424789,-0.001396179,-0.008159637,0,
00:00.1,0.001401901,-0.001413345,-0.008136749,0,
00:00.1,0.001419067,-0.001419067,-0.008125305,0,
00:00.1,0.001419067,-0.001424789,-0.008113861,0,
00:00.1,0.001430511,-0.001419067,-0.008102417,0,
00:00.1,0.001424789,-0.001413345,-0.008090973,0,
00:00.1,0.001430511,-0.001413345,-0.008102417,0,
00:00.1,0.001424789,-0.001413345,-0.008090973,0,
00:00.1,0.001419067,-0.001419067,-0.008073807,0,
00:00.1,0.001419067,-0.001419067,-0.008073807,0,
00:00.1,0.001419067,-0.001413345,-0.008068085,0,
00:00.1,0.001413345,-0.001419067,-0.008062363,0,
00:00.1,0.001413345,-0.001413345,-0.008068085,0,
00:00.1,0.001424789,-0.001407623,-0.008062363,0,
00:00.1,0.001419067,-0.001396179,-0.008056641,0,
00:00.1,0.001413345,-0.001401901,-0.008039474,0,
00:00.1,0.001419067,-0.001413345,-0.008033752,0,
00:00.1,0.001424789,-0.001407623,-0.008033752,0,
00:00.1,0.001436234,-0.001396179,-0.008050919,0,
00:00.1,0.001413345,-0.001401901,-0.008033752,0,
00:00.1,0.001401901,-0.001413345,-0.008016586,0,
00:00.1,0.001401901,-0.001413345,-0.008005142,0,
00:00.1,0.001401901,-0.001407623,-0.007993698,0,
00:00.1,0.001401901,-0.001419067,-0.00799942,0,
00:00.1,0.001419067,-0.001413345,-0.007993698,0,
00:00.1,0.001396179,-0.001413345,-0.008005142,0,
00:00.2,0.001396179,-0.001424789,-0.007982254,0,
00:00.2,0.001407623,-0.001424789,-0.00797081,0,
00:00.2,0.001401901,-0.001424789,-0.007965088,0,
00:00.2,0.001396179,-0.001419067,-0.007965088,0,
00:00.2,0.001396179,-0.001424789,-0.007947922,0,
00:00.2,0.001390457,-0.001430511,-0.007930756,0,
00:00.2,0.001384735,-0.001424789,-0.007913589,0,
00:00.2,0.001401901,-0.001419067,-0.007925034,0,
00:00.2,0.001413345,-0.001413345,-0.007936478,0,
00:00.2,0.001373291,-0.001407623,-0.007913589,0,
00:00.2,0.001390457,-0.001407623,-0.007890701,0,
00:00.2,0.001401901,-0.001413345,-0.007913589,0,
00:00.2,0.001407623,-0.001419067,-0.007902145,0,
00:00.2,0.001396179,-0.001419067,-0.007890701,0,
00:00.2,0.001401901,-0.001424789,-0.007879257,0,
00:00.2,0.001407623,-0.001424789,-0.007884979,0,
00:00.2,0.001396179,-0.001424789,-0.007867813,0,
00:00.2,0.001396179,-0.001419067,-0.007856369,0,
00:00.2,0.001396179,-0.001430511,-0.007844925,0,
00:00.2,0.001401901,-0.001430511,-0.007844925,0,
00:00.2,0.001407623,-0.001430511,-0.007844925,0,
00:00.2,0.001413345,-0.001419067,-0.007844925,0,
00:00.2,0.001390457,-0.001424789,-0.007827759,0,
00:00.2,0.001401901,-0.001413345,-0.007822037,0,
00:00.2,0.001384735,-0.001419067,-0.007816315,0,
00:00.3,0.001396179,-0.001419067,-0.007799149,0,
00:00.3,0.001396179,-0.001413345,-0.007799149,0,
00:00.3,0.001401901,-0.001401901,-0.007804871,0,
00:00.3,0.001384735,-0.001401901,-0.007793427,0,
00:00.3,0.001390457,-0.001401901,-0.007781982,0,
00:00.3,0.001390457,-0.001401901,-0.007770538,0,
00:00.3,0.001401901,-0.001401901,-0.007770538,0,
00:00.3,0.001384735,-0.001419067,-0.00777626,0,
00:00.3,0.001367569,-0.001419067,-0.007759094,0,
00:00.3,0.001373291,-0.001424789,-0.007736206,0,
00:00.3,0.001384735,-0.001413345,-0.00771904,0,
00:00.3,0.001384735,-0.001419067,-0.00771904,0,
00:00.3,0.001396179,-0.001413345,-0.007713318,0,
00:00.3,0.001384735,-0.001413345,-0.007713318,0,
00:00.3,0.001373291,-0.001419067,-0.007696152,0,
00:00.3,0.001373291,-0.001413345,-0.007696152,0,
00:00.3,0.001379013,-0.001401901,-0.007696152,0,
00:00.3,0.001379013,-0.001407623,-0.007701874,0,
00:00.3,0.001384735,-0.001396179,-0.007696152,0,
00:00.3,0.001384735,-0.001396179,-0.007678986,0,
00:00.3,0.001373291,-0.001396179,-0.007678986,0,
00:00.3,0.001390457,-0.001390457,-0.007661819,0,
00:00.3,0.001384735,-0.001396179,-0.007667542,0,
00:00.3,0.001367569,-0.001390457,-0.007661819,0,
00:00.3,0.001373291,-0.001390457,-0.007644653,0,
00:00.4,0.001373291,-0.001401901,-0.007627487,0,
00:00.4,0.001384735,-0.001401901,-0.007633209,0,
00:00.4,0.001384735,-0.001396179,-0.007633209,0,
00:00.4,0.001373291,-0.001396179,-0.007638931,0,
00:00.4,0.001367569,-0.001401901,-0.007621765,0,
00:00.4,0.001384735,-0.001396179,-0.007604599,0,
00:00.4,0.001390457,-0.001407623,-0.007598877,0,
00:00.4,0.001373291,-0.001413345,-0.007593155,0,
00:00.4,0.001373291,-0.001401901,-0.007587433,0,
00:00.4,0.001373291,-0.001401901,-0.007581711,0,
00:00.4,0.001379013,-0.001396179,-0.007570267,0,
00:00.4,0.001373291,-0.001396179,-0.007570267,0,
00:00.4,0.001379013,-0.001384735,-0.007570267,0,
00:00.4,0.001379013,-0.001384735,-0.007564545,0,
00:00.4,0.001367569,-0.001379013,-0.007547379,0,
00:00.4,0.001379013,-0.001384735,-0.007541656,0,
00:00.4,0.001373291,-0.001384735,-0.007541656,0,
00:00.4,0.001373291,-0.001396179,-0.007530212,0,
00:00.4,0.001367569,-0.001384735,-0.007518768,0,
00:00.4,0.001373291,-0.001384735,-0.007513046,0,
00:00.4,0.001384735,-0.001379013,-0.007513046,0,
00:00.4,0.001379013,-0.001379013,-0.007507324,0,
00:00.4,0.001367569,-0.001384735,-0.007507324,0,
00:00.4,0.001379013,-0.001373291,-0.007501602,0,
00:00.4,0.001361847,-0.001384735,-0.00749588,0,
00:00.5,0.001361847,-0.001390457,-0.00746727,0,
00:00.5,0.001361847,-0.001396179,-0.007461548,0,
00:00.5,0.001356125,-0.001390457,-0.007461548,0,
00:00.5,0.001356125,-0.001384735,-0.007461548,0,
00:00.5,0.001361847,-0.001379013,-0.007450104,0,
00:00.5,0.001361847,-0.001384735,-0.00743866,0,
00:00.5,0.001373291,-0.001384735,-0.007444382,0,
00:00.5,0.001373291,-0.001379013,-0.007450104,0,
00:00.5,0.001350403,-0.001379013,-0.007444382,0,
00:00.5,0.001350403,-0.001390457,-0.007415771,0,
00:00.5,0.001361847,-0.001379013,-0.007392883,0,
00:00.5,0.001361847,-0.001384735,-0.007392883,0,
00:00.5,0.001361847,-0.001379013,-0.007392883,0,
00:00.5,0.001356125,-0.001384735,-0.007387161,0,
00:00.5,0.001356125,-0.001384735,-0.007381439,0,
00:00.5,0.001367569,-0.001373291,-0.007364273,0,
00:00.5,0.001373291,-0.001373291,-0.007392883,0,
00:00.5,0.001344681,-0.001379013,-0.007387161,0,
00:00.5,0.001344681,-0.001373291,-0.007364273,0,
00:00.5,0.001350403,-0.001373291,-0.007352829,0,
00:00.5,0.001356125,-0.001379013,-0.007347107,0,
00:00.5,0.001361847,-0.001361847,-0.007341385,0,
00:00.5,0.001356125,-0.001361847,-0.007341385,0,
00:00.5,0.001356125,-0.001361847,-0.007335663,0,
00:00.5,0.001356125,-0.001361847,-0.007324219,0,
00:00.6,0.001367569,-0.001361847,-0.007318497,0,
00:00.6,0.001361847,-0.001356125,-0.007312775,0,
00:00.6,0.001361847,-0.001350403,-0.007318497,0,
00:00.6,0.001350403,-0.001350403,-0.007307053,0,
00:00.6,0.001344681,-0.001361847,-0.007289886,0,
00:00.6,0.001356125,-0.001367569,-0.007278442,0,
00:00.6,0.001350403,-0.001356125,-0.00727272,0,
00:00.6,0.001361847,-0.001344681,-0.007261276,0,
00:00.6,0.001356125,-0.001350403,-0.007266998,0,
00:00.6,0.001350403,-0.001361847,-0.007261276,0,
00:00.6,0.001367569,-0.001350403,-0.00727272,0,
00:00.6,0.001344681,-0.001356125,-0.007255554,0,
00:00.6,0.001356125,-0.001356125,-0.007232666,0,
00:00.6,0.001356125,-0.001344681,-0.007238388,0,
00:00.6,0.001356125,-0.001350403,-0.007221222,0,
00:00.6,0.001344681,-0.001356125,-0.0072155,0,
00:00.6,0.001356125,-0.001350403,-0.0072155,0,
00:00.6,0.001350403,-0.001356125,-0.007221222,0,
00:00.6,0.001350403,-0.001361847,-0.007209778,0,
00:00.6,0.001356125,-0.001356125,-0.007204056,0,
00:00.6,0.001344681,-0.001350403,-0.007209778,0,
00:00.6,0.001338959,-0.001356125,-0.007209778,0,
00:00.6,0.001344681,-0.001356125,-0.00718689,0,
00:00.6,0.001338959,-0.001350403,-0.007169724,0,
00:00.6,0.001350403,-0.001350403,-0.007158279,0,
00:00.7,0.001344681,-0.001350403,-0.007152557,0,
00:00.7,0.001350403,-0.001338959,-0.007146835,0,
00:00.7,0.001344681,-0.001338959,-0.007146835,0,
00:00.7,0.001350403,-0.001344681,-0.007135391,0,
00:00.7,0.001367569,-0.001338959,-0.007135391,0,
00:00.7,0.001350403,-0.001333237,-0.007123947,0,
00:00.7,0.001327515,-0.001338959,-0.007123947,0,
00:00.7,0.001327515,-0.001356125,-0.007118225,0,
00:00.7,0.001327515,-0.001350403,-0.007118225,0,
00:00.7,0.001333237,-0.001344681,-0.007101059,0,
00:00.7,0.001344681,-0.001338959,-0.007101059,0,
00:00.7,0.001344681,-0.001344681,-0.007112503,0,
00:00.7,0.001333237,-0.001344681,-0.007072449,0,
00:00.7,0.001321793,-0.001344681,-0.007066727,0,
00:00.7,0.001333237,-0.001344681,-0.007066727,0,
00:00.7,0.001338959,-0.001338959,-0.007078171,0,
00:00.7,0.001350403,-0.001344681,-0.007055283,0,
00:00.7,0.001344681,-0.001344681,-0.007049561,0,
00:00.7,0.001338959,-0.001344681,-0.007032394,0,
00:00.7,0.001338959,-0.001344681,-0.007015228,0,
00:00.7,0.001356125,-0.001338959,-0.00702095,0,
00:00.7,0.001344681,-0.001333237,-0.00702095,0,
00:00.7,0.001327515,-0.001338959,-0.00702095,0,
00:00.7,0.001344681,-0.001333237,-0.00702095,0,
00:00.7,0.001350403,-0.001333237,-0.007032394,0,
00:00.8,0.001338959,-0.001333237,-0.007015228,0,
00:00.8,0.001333237,-0.001333237,-0.007003784,0,
00:00.8,0.001338959,-0.001327515,-0.007015228,0,
00:00.8,0.001333237,-0.001333237,-0.007015228,0,
00:00.8,0.001321793,-0.001333237,-0.006980896,0,
00:00.8,0.001327515,-0.001327515,-0.006969452,0,
00:00.8,0.001327515,-0.001321793,-0.006969452,0,
00:00.8,0.001321793,-0.001310349,-0.006969452,0,
00:00.8,0.001338959,-0.001304626,-0.006969452,0,
00:00.8,0.001333237,-0.001316071,-0.00696373,0,
00:00.8,0.001327515,-0.001310349,-0.006952286,0,
00:00.8,0.001327515,-0.001304626,-0.006952286,0,
00:00.8,0.001321793,-0.001293182,-0.006946564,0,
00:00.8,0.001321793,-0.001304626,-0.006929398,0,
00:00.8,0.001344681,-0.001298904,-0.006912231,0,
00:00.8,0.001321793,-0.001298904,-0.006917953,0,
00:00.8,0.001316071,-0.001304626,-0.006895065,0,
00:00.8,0.001327515,-0.001298904,-0.006906509,0,
00:00.8,0.001333237,-0.001298904,-0.006906509,0,
00:00.8,0.001321793,-0.001304626,-0.006895065,0,
00:00.8,0.001327515,-0.001304626,-0.006883621,0,
00:00.8,0.001316071,-0.001304626,-0.006877899,0,
00:00.8,0.001316071,-0.001298904,-0.006872177,0,
00:00.8,0.001316071,-0.001310349,-0.006889343,0,
00:00.8,0.001310349,-0.001310349,-0.006872177,0,
00:00.9,0.001316071,-0.001298904,-0.006849289,0,
00:00.9,0.001316071,-0.001304626,-0.006843567,0,
00:00.9,0.001316071,-0.001304626,-0.006837845,0,
00:00.9,0.001321793,-0.001298904,-0.006832123,0,
00:00.9,0.001327515,-0.001298904,-0.006837845,0,
00:00.9,0.001338959,-0.001304626,-0.006814957,0,
00:00.9,0.001333237,-0.001298904,-0.006809235,0,
00:00.9,0.001316071,-0.00128746,-0.006820679,0,
00:00.9,0.001316071,-0.001293182,-0.006809235,0,
00:00.9,0.001310349,-0.001293182,-0.006786346,0,
00:00.9,0.001316071,-0.001293182,-0.00676918,0,
00:00.9,0.001310349,-0.001293182,-0.006780624,0,
00:00.9,0.001310349,-0.001293182,-0.006780624,0,
00:00.9,0.001304626,-0.001281738,-0.006763458,0,
00:00.9,0.001316071,-0.001281738,-0.006763458,0,
00:00.9,0.001327515,-0.00128746,-0.006763458,0,
00:00.9,0.001321793,-0.001293182,-0.006757736,0,
00:00.9,0.001316071,-0.001281738,-0.006752014,0,
00:00.9,0.001304626,-0.001281738,-0.006757736,0,
00:00.9,0.001304626,-0.001281738,-0.00674057,0,
00:00.9,0.001298904,-0.001293182,-0.006723404,0,
00:00.9,0.001310349,-0.001276016,-0.006717682,0,
00:00.9,0.001304626,-0.001270294,-0.00671196,0,
00:00.9,0.001304626,-0.00125885,-0.006706238,0,
00:00.9,0.001310349,-0.001264572,-0.006706238,0,
00:01.0,0.001298904,-0.001270294,-0.006706238,0,
00:01.0,0.001310349,-0.001253128,-0.006694794,0,
00:01.0,0.001333237,-0.00125885,-0.006694794,0,
00:01.0,0.001304626,-0.001270294,-0.00668335,0,
00:01.0,0.001298904,-0.001270294,-0.006660461,0,
00:01.0,0.001298904,-0.001264572,-0.006660461,0,
00:01.0,0.001304626,-0.001270294,-0.006666183,0,
00:01.0,0.001304626,-0.001270294,-0.006666183,0,
00:01.0,0.001316071,-0.001270294,-0.006660461,0,
00:01.0,0.001304626,-0.001276016,-0.006660461,0,
00:01.0,0.001304626,-0.001276016,-0.006643295,0,
00:01.0,0.001310349,-0.001270294,-0.006643295,0,
00:00:01,0.001316071,-0.00125885,-0.006631851,0,
00:01.0,0.001316071,-0.00125885,-0.006626129,0,
00:01.0,0.001321793,-0.00125885,-0.006626129,0,
00:01.0,0.001298904,-0.001264572,-0.006620407,0,
00:01.0,0.001321793,-0.00125885,-0.006603241,0,
00:01.0,0.001316071,-0.00125885,-0.006603241,0,
00:01.0,0.001304626,-0.001264572,-0.006586075,0,
00:01.0,0.001304626,-0.001264572,-0.006568909,0,
00:01.0,0.001316071,-0.001253128,-0.006574631,0,
00:01.0,0.001316071,-0.001253128,-0.006568909,0,
00:01.0,0.001304626,-0.00125885,-0.006574631,0,
00:01.0,0.001298904,-0.00125885,-0.006574631,0,
00:01.0,0.001304626,-0.001253128,-0.006557465,0,
00:01.1,0.001304626,-0.001253128,-0.006551743,0,
00:01.1,0.001310349,-0.001247406,-0.006551743,0,
00:01.1,0.001310349,-0.001241684,-0.006551743,0,
00:01.1,0.001304626,-0.001241684,-0.006546021,0,
00:01.1,0.001310349,-0.001235962,-0.006534576,0,
00:01.1,0.001321793,-0.001241684,-0.006534576,0,
00:01.1,0.001310349,-0.001247406,-0.006523132,0,
00:01.1,0.001304626,-0.001247406,-0.006523132,0,
00:01.1,0.001316071,-0.001247406,-0.006528854,0,
00:01.1,0.001310349,-0.001241684,-0.006511688,0,
00:01.1,0.001316071,-0.001241684,-0.006505966,0,
00:01.1,0.001310349,-0.001235962,-0.0064888,0,
00:01.1,0.001310349,-0.001235962,-0.006471634,0,
00:01.1,0.001304626,-0.001235962,-0.006477356,0,
00:01.1,0.001298904,-0.001235962,-0.006483078,0,
00:01.1,0.001310349,-0.001241684,-0.006465912,0,
00:01.1,0.001310349,-0.001241684,-0.006471634,0,
00:01.1,0.001310349,-0.001241684,-0.00646019,0,
00:01.1,0.001316071,-0.001241684,-0.006454468,0,
00:01.1,0.001304626,-0.001241684,-0.006448746,0,
00:01.1,0.001310349,-0.00123024,-0.006448746,0,
00:01.1,0.001304626,-0.001224518,-0.006454468,0,
00:01.1,0.001310349,-0.001207352,-0.00643158,0,
00:01.1,0.001310349,-0.001218796,-0.00643158,0,
00:01.1,0.001304626,-0.001218796,-0.006420135,0,
00:01.2,0.001310349,-0.001224518,-0.006408691,0,
00:01.2,0.001310349,-0.001213074,-0.006414413,0,
00:01.2,0.001321793,-0.001207352,-0.006408691,0,
00:01.2,0.001327515,-0.001195908,-0.006420135,0,
00:01.2,0.001321793,-0.001207352,-0.006397247,0,
00:01.2,0.001310349,-0.001213074,-0.006385803,0,
00:01.2,0.001298904,-0.001213074,-0.006391525,0,
00:01.2,0.001293182,-0.001213074,-0.006391525,0,
00:01.2,0.001304626,-0.001218796,-0.006380081,0,
00:01.2,0.001304626,-0.001213074,-0.006368637,0,
00:01.2,0.001304626,-0.001218796,-0.006362915,0,
00:01.2,0.001310349,-0.001213074,-0.006368637,0,
00:01.2,0.001310349,-0.001213074,-0.006380081,0,
00:01.2,0.001316071,-0.001207352,-0.006357193,0,
00:01.2,0.001310349,-0.001207352,-0.006351471,0,
00:01.2,0.001298904,-0.001213074,-0.006340027,0,
00:01.2,0.001304626,-0.001213074,-0.006328583,0,
00:01.2,0.001298904,-0.001207352,-0.006328583,0,
00:01.2,0.001316071,-0.001190186,-0.006334305,0,
00:01.2,0.001316071,-0.001195908,-0.006334305,0,
00:01.2,0.001310349,-0.00120163,-0.006322861,0,
00:01.2,0.001333237,-0.001195908,-0.006328583,0,
00:01.2,0.001321793,-0.00120163,-0.006311417,0,
00:01.2,0.001316071,-0.001195908,-0.00629425,0,
00:01.2,0.001321793,-0.001190186,-0.006305695,0,
00:01.3,0.001321793,-0.001207352,-0.006299973,0,
00:01.3,0.001316071,-0.00120163,-0.00629425,0,
00:01.3,0.001316071,-0.00120163,-0.006288528,0,
00:01.3,0.001310349,-0.00120163,-0.006299973,0,
00:01.3,0.001310349,-0.001195908,-0.006288528,0,
00:01.3,0.001310349,-0.001195908,-0.006259918,0,
00:01.3,0.001316071,-0.00120163,-0.006254196,0,
00:01.3,0.001310349,-0.001195908,-0.00626564,0,
00:01.3,0.001316071,-0.001190186,-0.006277084,0,
00:01.3,0.001310349,-0.001178741,-0.006248474,0,
00:01.3,0.001316071,-0.001184464,-0.006225586,0,
00:01.3,0.001316071,-0.001178741,-0.006225586,0,
00:01.3,0.001316071,-0.001184464,-0.00623703,0,
00:01.3,0.001321793,-0.001184464,-0.006231308,0,
00:01.3,0.001327515,-0.001184464,-0.006231308,0,
00:01.3,0.001316071,-0.001173019,-0.006219864,0,
00:01.3,0.001321793,-0.001167297,-0.00620842,0,
00:01.3,0.001327515,-0.001173019,-0.006214142,0,
00:01.3,0.001327515,-0.001167297,-0.006191254,0,
00:01.3,0.001327515,-0.001167297,-0.00617981,0,
00:01.3,0.001327515,-0.001173019,-0.006191254,0,
00:01.3,0.001321793,-0.001161575,-0.006191254,0,
00:01.3,0.001316071,-0.001155853,-0.006174088,0,
00:01.3,0.001316071,-0.001150131,-0.006174088,0,
00:01.3,0.001321793,-0.001150131,-0.006174088,0,
00:01.4,0.001321793,-0.001150131,-0.006168365,0,
00:01.4,0.001316071,-0.001144409,-0.006174088,0,
00:01.4,0.001327515,-0.001144409,-0.006156921,0,
00:01.4,0.001310349,-0.001155853,-0.006151199,0,
00:01.4,0.001316071,-0.001150131,-0.006145477,0,
00:01.4,0.001316071,-0.001150131,-0.006145477,0,
00:01.4,0.001321793,-0.001144409,-0.006139755,0,
00:01.4,0.001333237,-0.001138687,-0.006134033,0,
00:01.4,0.001316071,-0.001150131,-0.006134033,0,
00:01.4,0.001321793,-0.001150131,-0.006122589,0,
00:01.4,0.001304626,-0.001155853,-0.006128311,0,
00:01.4,0.001310349,-0.001144409,-0.006111145,0,
00:01.4,0.001327515,-0.001144409,-0.006093979,0,
00:01.4,0.001321793,-0.001144409,-0.006105423,0,
00:01.4,0.001321793,-0.001132965,-0.006088257,0,
00:01.4,0.001327515,-0.001138687,-0.006082535,0,
00:01.4,0.001316071,-0.001144409,-0.006088257,0,
00:01.4,0.001316071,-0.001132965,-0.006093979,0,
00:01.4,0.001316071,-0.001132965,-0.006088257,0,
00:01.4,0.001310349,-0.001132965,-0.006082535,0,
00:01.4,0.001316071,-0.001132965,-0.006059647,0,
00:01.4,0.001316071,-0.001127243,-0.006059647,0,
00:01.4,0.001316071,-0.001121521,-0.006059647,0,
00:01.4,0.001310349,-0.001127243,-0.006053925,0,
00:01.4,0.001316071,-0.001115799,-0.006048203,0,
00:01.5,0.001316071,-0.001115799,-0.006048203,0,
00:01.5,0.001321793,-0.001115799,-0.006048203,0,
00:01.5,0.001310349,-0.001121521,-0.006053925,0,
00:01.5,0.001304626,-0.001127243,-0.006031036,0,
00:01.5,0.001316071,-0.001121521,-0.006025314,0,
00:01.5,0.001316071,-0.001121521,-0.006025314,0,
00:01.5,0.001327515,-0.001121521,-0.006019592,0,
00:01.5,0.001310349,-0.001110077,-0.006002426,0,
00:01.5,0.001310349,-0.001110077,-0.006002426,0,
00:01.5,0.001310349,-0.001115799,-0.006002426,0,
00:01.5,0.001321793,-0.001110077,-0.005996704,0,
00:01.5,0.001327515,-0.001098633,-0.005990982,0,
00:01.5,0.001327515,-0.001104355,-0.005979538,0,
00:01.5,0.001316071,-0.001104355,-0.005979538,0,
00:01.5,0.001310349,-0.001110077,-0.005962372,0,
00:01.5,0.001327515,-0.001104355,-0.005962372,0,
00:01.5,0.001310349,-0.001104355,-0.005945206,0,
00:01.5,0.001304626,-0.001098633,-0.005945206,0,
00:01.5,0.001316071,-0.001092911,-0.005950928,0,
00:01.5,0.001321793,-0.001104355,-0.00595665,0,
00:01.5,0.001316071,-0.001098633,-0.005945206,0,
00:01.5,0.001333237,-0.001092911,-0.005945206,0,
00:01.5,0.001333237,-0.001092911,-0.005922318,0,
00:01.5,0.001321793,-0.001087189,-0.005933762,0,
00:01.5,0.001304626,-0.001092911,-0.005922318,0,
00:01.6,0.001310349,-0.001087189,-0.005905151,0,
00:01.6,0.001321793,-0.001087189,-0.005905151,0,
00:01.6,0.001321793,-0.001075745,-0.005916595,0,
00:01.6,0.001321793,-0.001064301,-0.005916595,0,
00:01.6,0.001316071,-0.001075745,-0.005899429,0,
00:01.6,0.001333237,-0.001081467,-0.005905151,0,
00:01.6,0.001310349,-0.001087189,-0.005893707,0,
00:01.6,0.001304626,-0.001081467,-0.005870819,0,
00:01.6,0.001316071,-0.001087189,-0.005876541,0,
00:01.6,0.001321793,-0.001087189,-0.005882263,0,
00:01.6,0.001338959,-0.001081467,-0.005876541,0,
00:01.6,0.001310349,-0.001075745,-0.005870819,0,
00:01.6,0.001316071,-0.001064301,-0.005865097,0,
00:01.6,0.001321793,-0.001058578,-0.005859375,0,
00:01.6,0.001316071,-0.001070023,-0.005847931,0,
00:01.6,0.001316071,-0.001070023,-0.005836487,0,
00:01.6,0.001327515,-0.001070023,-0.005842209,0,
00:01.6,0.001321793,-0.001052856,-0.005847931,0,
00:01.6,0.001338959,-0.001047134,-0.005842209,0,
00:01.6,0.001327515,-0.001070023,-0.005842209,0,
00:01.6,0.001316071,-0.001064301,-0.005825043,0,
00:01.6,0.001321793,-0.001064301,-0.005819321,0,
00:01.6,0.001316071,-0.001070023,-0.005830765,0,
00:01.6,0.001327515,-0.001064301,-0.005825043,0,
00:01.6,0.001321793,-0.001058578,-0.005807877,0,
00:01.7,0.001321793,-0.001058578,-0.005825043,0,
00:01.7,0.001327515,-0.001058578,-0.005825043,0,
00:01.7,0.001327515,-0.001058578,-0.005819321,0,
00:01.7,0.001327515,-0.001058578,-0.005807877,0,
00:01.7,0.001327515,-0.001058578,-0.005807877,0,
00:01.7,0.001333237,-0.001052856,-0.005796432,0,
00:01.7,0.001327515,-0.001052856,-0.00579071,0,
00:01.7,0.001333237,-0.001047134,-0.00579071,0,
00:01.7,0.001344681,-0.00103569,-0.005802155,0,
00:01.7,0.001350403,-0.001041412,-0.005802155,0,
00:01.7,0.001333237,-0.001047134,-0.005779266,0,
00:01.7,0.001327515,-0.00103569,-0.005767822,0,
00:01.7,0.001321793,-0.001041412,-0.005767822,0,
00:01.7,0.001316071,-0.00103569,-0.005756378,0,
00:01.7,0.001327515,-0.00103569,-0.005756378,0,
00:01.7,0.001327515,-0.00103569,-0.005756378,0,
00:01.7,0.001321793,-0.00103569,-0.005744934,0,
00:01.7,0.001333237,-0.001029968,-0.005750656,0,
00:01.7,0.001338959,-0.001029968,-0.005739212,0,
00:01.7,0.001344681,-0.00103569,-0.005739212,0,
00:01.7,0.001338959,-0.00103569,-0.00573349,0,
00:01.7,0.001338959,-0.001029968,-0.005722046,0,
00:01.7,0.001333237,-0.001024246,-0.005727768,0,
00:01.7,0.001344681,-0.001024246,-0.005727768,0,
00:01.7,0.001333237,-0.00103569,-0.005716324,0,
00:01.8,0.001338959,-0.00103569,-0.00570488,0,
00:01.8,0.001333237,-0.001029968,-0.00570488,0,
00:01.8,0.001333237,-0.001024246,-0.005710602,0,
00:01.8,0.001344681,-0.001012802,-0.005710602,0,
00:01.8,0.001344681,-0.001012802,-0.005710602,0,
00:01.8,0.001333237,-0.001012802,-0.005699158,0,
00:01.8,0.001350403,-0.001001358,-0.005710602,0,
00:01.8,0.001344681,-0.001012802,-0.005716324,0,
00:01.8,0.001327515,-0.001029968,-0.005699158,0,
00:01.8,0.001338959,-0.001024246,-0.005693436,0,
00:01.8,0.001338959,-0.001024246,-0.005681992,0,
00:01.8,0.001333237,-0.001018524,-0.005681992,0,
00:01.8,0.001344681,-0.001018524,-0.005681992,0,
00:01.8,0.001350403,-0.00100708,-0.005687714,0,
00:01.8,0.001350403,-0.00100708,-0.005681992,0,
00:01.8,0.001338959,-0.001018524,-0.00567627,0,
00:01.8,0.001333237,-0.001024246,-0.005653381,0,
00:01.8,0.001338959,-0.001012802,-0.005647659,0,
00:01.8,0.001350403,-0.001001358,-0.005653381,0,
00:01.8,0.001344681,-0.00100708,-0.005647659,0,
00:01.8,0.001344681,-0.001018524,-0.005641937,0,
00:01.8,0.001344681,-0.001012802,-0.005647659,0,
00:01.8,0.001338959,-0.00100708,-0.005647659,0,
00:01.8,0.001344681,-0.000995636,-0.005659103,0,
00:01.8,0.001350403,-0.001001358,-0.005647659,0,
00:01.9,0.001344681,-0.001001358,-0.005630493,0,
00:01.9,0.001333237,-0.000995636,-0.005613327,0,
00:01.9,0.001338959,-0.000989914,-0.005624771,0,
00:01.9,0.001350403,-0.000984192,-0.005630493,0,
00:01.9,0.001338959,-0.000989914,-0.005624771,0,
00:01.9,0.001338959,-0.00097847,-0.005607605,0,
00:01.9,0.001356125,-0.00097847,-0.005613327,0,
00:01.9,0.001338959,-0.000984192,-0.005607605,0,
00:01.9,0.001333237,-0.000995636,-0.005607605,0,
00:01.9,0.001321793,-0.000984192,-0.005596161,0,
00:01.9,0.001321793,-0.000989914,-0.005596161,0,
00:01.9,0.001327515,-0.001001358,-0.005573273,0,
00:01.9,0.001338959,-0.00100708,-0.005556107,0,
00:01.9,0.001327515,-0.000995636,-0.005567551,0,
00:01.9,0.001350403,-0.000984192,-0.005573273,0,
00:01.9,0.001338959,-0.000989914,-0.005584717,0,
00:01.9,0.001327515,-0.000989914,-0.005567551,0,
00:01.9,0.001333237,-0.000984192,-0.005578995,0,
00:01.9,0.001333237,-0.00097847,-0.005578995,0,
00:01.9,0.001327515,-0.000995636,-0.005561829,0,
00:01.9,0.001344681,-0.000989914,-0.005556107,0,
00:01.9,0.001338959,-0.00097847,-0.005561829,0,
00:01.9,0.001321793,-0.00097847,-0.005556107,0,
00:01.9,0.001327515,-0.00097847,-0.005544662,0,
00:01.9,0.001344681,-0.00097847,-0.005544662,0,
00:02.0,0.001344681,-0.000967026,-0.005550385,0,
00:02.0,0.001338959,-0.000967026,-0.005556107,0,
00:02.0,0.001333237,-0.00097847,-0.005556107,0,
00:02.0,0.001333237,-0.000972748,-0.005533218,0,
00:02.0,0.001333237,-0.00097847,-0.005521774,0,
00:02.0,0.001338959,-0.00097847,-0.005516052,0,
00:02.0,0.001333237,-0.000967026,-0.005516052,0,
00:02.0,0.001338959,-0.000961304,-0.00551033,0,
00:02.0,0.001350403,-0.00094986,-0.005516052,0,
00:02.0,0.001356125,-0.000944138,-0.005527496,0,
00:02.0,0.001361847,-0.00094986,-0.005533218,0,
00:02.0,0.001333237,-0.000961304,-0.005521774,0,
00:00:02,0.001344681,-0.000955582,-0.005516052,0,
00:02.0,0.001333237,-0.00094986,-0.005493164,0,
00:02.0,0.001333237,-0.000944138,-0.00548172,0,
00:02.0,0.001333237,-0.000955582,-0.00548172,0,
00:02.0,0.001338959,-0.000967026,-0.005487442,0,
00:02.0,0.001338959,-0.00094986,-0.005493164,0,
00:02.0,0.001350403,-0.000944138,-0.005487442,0,
00:02.0,0.001338959,-0.000944138,-0.005470276,0,
00:02.0,0.001327515,-0.000955582,-0.005470276,0,
00:02.0,0.001333237,-0.00094986,-0.00548172,0,
00:02.0,0.001333237,-0.00094986,-0.005470276,0,
00:02.0,0.001338959,-0.000938416,-0.005470276,0,
00:02.0,0.001344681,-0.000938416,-0.005458832,0,
00:02.1,0.001344681,-0.000944138,-0.00545311,0,
00:02.1,0.001338959,-0.000944138,-0.005470276,0,
00:02.1,0.001338959,-0.000938416,-0.005458832,0,
00:02.1,0.001344681,-0.000926971,-0.005470276,0,
00:02.1,0.001350403,-0.000926971,-0.005493164,0,
00:02.1,0.001316071,-0.000932693,-0.00545311,0,
00:02.1,0.001316071,-0.000926971,-0.005441666,0,
00:02.1,0.001310349,-0.000932693,-0.005441666,0,
00:02.1,0.001321793,-0.000926971,-0.005435944,0,
00:02.1,0.001327515,-0.000926971,-0.005435944,0,
00:02.1,0.001333237,-0.000938416,-0.005435944,0,
00:02.1,0.001327515,-0.000932693,-0.005435944,0,
00:02.1,0.001327515,-0.000915527,-0.005441666,0,
00:02.1,0.001327515,-0.000921249,-0.005441666,0,
00:02.1,0.001321793,-0.000926971,-0.005430222,0,
00:02.1,0.001316071,-0.000926971,-0.005418777,0,
00:02.1,0.001321793,-0.000926971,-0.005418777,0,
00:02.1,0.001321793,-0.000921249,-0.005418777,0,
00:02.1,0.001333237,-0.000932693,-0.005418777,0,
00:02.1,0.001333237,-0.000926971,-0.005407333,0,
00:02.1,0.001327515,-0.000926971,-0.005390167,0,
00:02.1,0.001316071,-0.000909805,-0.005390167,0,
00:02.1,0.001321793,-0.000904083,-0.005395889,0,
00:02.1,0.001316071,-0.000915527,-0.005395889,0,
00:02.1,0.001333237,-0.000909805,-0.005395889,0,
00:02.2,0.001338959,-0.000909805,-0.005395889,0,
00:02.2,0.001327515,-0.000904083,-0.005401611,0,
00:02.2,0.001321793,-0.000904083,-0.005395889,0,
00:02.2,0.001327515,-0.000904083,-0.005413055,0,
00:02.2,0.001321793,-0.000909805,-0.005384445,0,
00:02.2,0.001327515,-0.000904083,-0.005373001,0,
00:02.2,0.001321793,-0.000904083,-0.005384445,0,
00:02.2,0.001327515,-0.000904083,-0.005378723,0,
00:02.2,0.001327515,-0.000915527,-0.005373001,0,
00:02.2,0.001316071,-0.000915527,-0.005361557,0,
00:02.2,0.001321793,-0.000909805,-0.005361557,0,
00:02.2,0.001316071,-0.000898361,-0.005367279,0,
00:02.2,0.001316071,-0.000892639,-0.005355835,0,
00:02.2,0.001333237,-0.000892639,-0.005361557,0,
00:02.2,0.001321793,-0.000898361,-0.005350113,0,
00:02.2,0.001304626,-0.000904083,-0.005361557,0,
00:02.2,0.001321793,-0.000898361,-0.005344391,0,
00:02.2,0.001304626,-0.000898361,-0.005332947,0,
00:02.2,0.001304626,-0.000904083,-0.005321503,0,
00:02.2,0.001321793,-0.000909805,-0.005321503,0,
00:02.2,0.001316071,-0.000904083,-0.005332947,0,
00:02.2,0.001310349,-0.000892639,-0.005327225,0,
00:02.2,0.001316071,-0.000881195,-0.005321503,0,
00:02.2,0.001321793,-0.000875473,-0.005332947,0,
00:02.2,0.001310349,-0.000892639,-0.005327225,0,
00:02.3,0.001298904,-0.000892639,-0.005304337,0,
00:02.3,0.001327515,-0.000886917,-0.005310059,0,
00:02.3,0.001327515,-0.000875473,-0.005321503,0,
00:02.3,0.001310349,-0.000869751,-0.005310059,0,
00:02.3,0.001316071,-0.000875473,-0.005304337,0,
00:02.3,0.001310349,-0.000881195,-0.005315781,0,
00:02.3,0.001304626,-0.000881195,-0.005304337,0,
00:02.3,0.001304626,-0.000875473,-0.005304337,0,
00:02.3,0.001310349,-0.000869751,-0.005310059,0,
00:02.3,0.001321793,-0.000881195,-0.005292892,0,
00:02.3,0.001321793,-0.000875473,-0.005281448,0,
00:02.3,0.001321793,-0.000881195,-0.00528717,0,
00:02.3,0.001316071,-0.000875473,-0.005292892,0,
00:02.3,0.001316071,-0.000875473,-0.00528717,0,
00:02.3,0.001310349,-0.000875473,-0.005281448,0,
00:02.3,0.001327515,-0.000864029,-0.005275726,0,
00:02.3,0.001316071,-0.000864029,-0.005281448,0,
00:02.3,0.001310349,-0.000864029,-0.00528717,0,
00:02.3,0.001310349,-0.000858307,-0.005281448,0,
00:02.3,0.001298904,-0.000864029,-0.005275726,0,
00:02.3,0.001316071,-0.000852585,-0.005252838,0,
00:02.3,0.001316071,-0.000852585,-0.00525856,0,
00:02.3,0.001321793,-0.000846863,-0.005270004,0,
00:02.3,0.001316071,-0.000846863,-0.005252838,0,
00:02.3,0.001310349,-0.000846863,-0.005235672,0,
00:02.4,0.001310349,-0.000846863,-0.00522995,0,
00:02.4,0.001304626,-0.000846863,-0.005247116,0,
00:02.4,0.001304626,-0.000841141,-0.005247116,0,
00:02.4,0.001298904,-0.000846863,-0.005247116,0,
00:02.4,0.001304626,-0.000846863,-0.005247116,0,
00:02.4,0.001304626,-0.000852585,-0.005235672,0,
00:02.4,0.001310349,-0.000852585,-0.005247116,0,
00:02.4,0.001298904,-0.000841141,-0.00522995,0,
00:02.4,0.001304626,-0.000841141,-0.00522995,0,
00:02.4,0.001321793,-0.000846863,-0.005224228,0,
00:02.4,0.001304626,-0.000846863,-0.00522995,0,
00:02.4,0.001281738,-0.000835419,-0.005212784,0,
00:02.4,0.001304626,-0.000841141,-0.005218506,0,
00:02.4,0.001304626,-0.000835419,-0.005212784,0,
00:02.4,0.001304626,-0.000829697,-0.005212784,0,
00:02.4,0.001310349,-0.000829697,-0.005212784,0,
00:02.4,0.001304626,-0.000829697,-0.005212784,0,
00:02.4,0.001304626,-0.000829697,-0.005207062,0,
00:02.4,0.001310349,-0.000829697,-0.005195618,0,
00:02.4,0.001304626,-0.000829697,-0.005195618,0,
00:02.4,0.001298904,-0.000829697,-0.005189896,0,
00:02.4,0.001298904,-0.000829697,-0.005184174,0,
00:02.4,0.001298904,-0.000818253,-0.005195618,0,
00:02.4,0.001298904,-0.000818253,-0.005207062,0,
00:02.4,0.001298904,-0.000818253,-0.005195618,0,
00:02.5,0.001293182,-0.000823975,-0.005189896,0,
00:02.5,0.001304626,-0.000806808,-0.005207062,0,
00:02.5,0.001304626,-0.000801086,-0.005195618,0,
00:02.5,0.001304626,-0.000806808,-0.005178452,0,
00:02.5,0.001293182,-0.000801086,-0.005184174,0,
00:02.5,0.001293182,-0.000806808,-0.005178452,0,
00:02.5,0.001298904,-0.000806808,-0.005195618,0,
00:02.5,0.001298904,-0.000812531,-0.005172729,0,
00:02.5,0.001293182,-0.000801086,-0.005167007,0,
00:02.5,0.001293182,-0.000812531,-0.005172729,0,
00:02.5,0.001304626,-0.000818253,-0.005167007,0,
00:02.5,0.001310349,-0.000812531,-0.005161285,0,
00:02.5,0.001293182,-0.000806808,-0.005149841,0,
00:02.5,0.001293182,-0.000801086,-0.005138397,0,
00:02.5,0.001298904,-0.000812531,-0.005138397,0,
00:02.5,0.001293182,-0.000812531,-0.005132675,0,
00:02.5,0.00128746,-0.000801086,-0.005126953,0,
00:02.5,0.00128746,-0.000795364,-0.005132675,0,
00:02.5,0.00128746,-0.000795364,-0.005138397,0,
00:02.5,0.00128746,-0.000789642,-0.005121231,0,
00:02.5,0.001281738,-0.000801086,-0.005126953,0,
00:02.5,0.001293182,-0.000795364,-0.005132675,0,
00:02.5,0.001293182,-0.000789642,-0.005126953,0,
00:02.5,0.001304626,-0.00078392,-0.005132675,0,
00:02.5,0.001304626,-0.00078392,-0.005126953,0,
00:02.6,0.00128746,-0.000801086,-0.005115509,0,
00:02.6,0.001304626,-0.000795364,-0.005126953,0,
00:02.6,0.001270294,-0.00078392,-0.005121231,0,
00:02.6,0.001270294,-0.000778198,-0.005115509,0,
00:02.6,0.001281738,-0.000789642,-0.005121231,0,
00:02.6,0.001293182,-0.000795364,-0.005104065,0,
00:02.6,0.00128746,-0.000801086,-0.005115509,0,
00:02.6,0.00128746,-0.000801086,-0.005109787,0,
00:02.6,0.001293182,-0.00078392,-0.005104065,0,
00:02.6,0.001304626,-0.00078392,-0.005092621,0,
00:02.6,0.001281738,-0.000795364,-0.005081177,0,
00:02.6,0.001276016,-0.000801086,-0.005086899,0,
00:02.6,0.001281738,-0.00078392,-0.005086899,0,
00:02.6,0.001281738,-0.000778198,-0.005086899,0,
00:02.6,0.001281738,-0.000772476,-0.005081177,0,
00:02.6,0.001276016,-0.000778198,-0.005081177,0,
00:02.6,0.00128746,-0.000772476,-0.005092621,0,
00:02.6,0.001281738,-0.000766754,-0.005075455,0,
00:02.6,0.001270294,-0.000766754,-0.005069733,0,
00:02.6,0.001270294,-0.000772476,-0.005075455,0,
00:02.6,0.001270294,-0.000766754,-0.005075455,0,
00:02.6,0.001276016,-0.000766754,-0.005075455,0,
00:02.6,0.001281738,-0.000766754,-0.005075455,0,
00:02.6,0.001270294,-0.00075531,-0.005075455,0,
00:02.6,0.001270294,-0.000761032,-0.005046844,0,
00:02.7,0.00128746,-0.00075531,-0.005052567,0,
00:02.7,0.00128746,-0.00075531,-0.005064011,0,
00:02.7,0.001270294,-0.00075531,-0.005064011,0,
00:02.7,0.001270294,-0.000761032,-0.005064011,0,
00:02.7,0.001276016,-0.00075531,-0.005058289,0,
00:02.7,0.001270294,-0.000766754,-0.0050354,0,
00:02.7,0.001270294,-0.000761032,-0.005041122,0,
00:02.7,0.001276016,-0.00075531,-0.005041122,0,
00:02.7,0.001276016,-0.000749588,-0.005029678,0,
00:02.7,0.001270294,-0.00075531,-0.005023956,0,
00:02.7,0.001276016,-0.000749588,-0.005023956,0,
00:02.7,0.001276016,-0.000743866,-0.005029678,0,
00:02.7,0.001264572,-0.000749588,-0.005029678,0,
00:02.7,0.001276016,-0.000743866,-0.005023956,0,
00:02.7,0.001276016,-0.000743866,-0.005023956,0,
00:02.7,0.001293182,-0.000749588,-0.005018234,0,
00:02.7,0.001281738,-0.000749588,-0.005018234,0,
00:02.7,0.001264572,-0.000743866,-0.005023956,0,
00:02.7,0.001264572,-0.000732422,-0.005018234,0,
00:02.7,0.001270294,-0.0007267,-0.00500679,0,
00:02.7,0.001264572,-0.000732422,-0.005012512,0,
00:02.7,0.001276016,-0.000738144,-0.00500679,0,
00:02.7,0.001270294,-0.000738144,-0.004989624,0,
00:02.7,0.001264572,-0.000732422,-0.004983902,0,
00:02.7,0.001270294,-0.000738144,-0.004983902,0,
00:02.8,0.001264572,-0.000738144,-0.004983902,0,
00:02.8,0.001276016,-0.000732422,-0.00497818,0,
00:02.8,0.001270294,-0.0007267,-0.00497818,0,
00:02.8,0.00125885,-0.0007267,-0.004983902,0,
00:02.8,0.001276016,-0.000720978,-0.004972458,0,
00:02.8,0.00125885,-0.0007267,-0.004972458,0,
00:02.8,0.001241684,-0.000732422,-0.004961014,0,
00:02.8,0.001247406,-0.000720978,-0.004966736,0,
00:02.8,0.001253128,-0.000720978,-0.004961014,0,
00:02.8,0.001276016,-0.000715256,-0.004955292,0,
00:02.8,0.001264572,-0.000715256,-0.004955292,0,
00:02.8,0.00125885,-0.000715256,-0.004955292,0,
00:02.8,0.001270294,-0.000715256,-0.004961014,0,
00:02.8,0.001276016,-0.000715256,-0.004961014,0,
00:02.8,0.00125885,-0.000715256,-0.004943848,0,
00:02.8,0.001264572,-0.000715256,-0.004938126,0,
00:02.8,0.00125885,-0.000703812,-0.00494957,0,
00:02.8,0.001264572,-0.00069809,-0.004961014,0,
00:02.8,0.001270294,-0.000703812,-0.004961014,0,
00:02.8,0.00125885,-0.000715256,-0.004955292,0,
00:02.8,0.001253128,-0.000715256,-0.004926682,0,
00:02.8,0.001253128,-0.000703812,-0.004932404,0,
00:02.8,0.001264572,-0.00069809,-0.004920959,0,
00:02.8,0.001264572,-0.00069809,-0.004920959,0,
00:02.8,0.001264572,-0.00069809,-0.004909515,0,
00:02.9,0.001253128,-0.000709534,-0.004926682,0,
00:02.9,0.001247406,-0.000703812,-0.004920959,0,
00:02.9,0.001253128,-0.00069809,-0.004932404,0,
00:02.9,0.001247406,-0.00069809,-0.004915237,0,
00:02.9,0.001241684,-0.00069809,-0.004915237,0,
00:02.9,0.00125885,-0.000692368,-0.004909515,0,
00:02.9,0.001264572,-0.000692368,-0.004903793,0,
00:02.9,0.00125885,-0.000680923,-0.004915237,0,
00:02.9,0.001253128,-0.000686646,-0.004903793,0,
00:02.9,0.00125885,-0.000686646,-0.004909515,0,
00:02.9,0.001253128,-0.000675201,-0.004898071,0,
00:02.9,0.001253128,-0.000680923,-0.004909515,0,
00:02.9,0.001264572,-0.000675201,-0.004903793,0,
00:02.9,0.001247406,-0.000680923,-0.004898071,0,
00:02.9,0.00123024,-0.00069809,-0.004880905,0,
00:02.9,0.001247406,-0.000692368,-0.004880905,0,
00:02.9,0.001253128,-0.000686646,-0.004903793,0,
00:02.9,0.001241684,-0.000680923,-0.004903793,0,
00:02.9,0.001241684,-0.000675201,-0.004880905,0,
00:02.9,0.001241684,-0.000680923,-0.004875183,0,
00:02.9,0.001241684,-0.000675201,-0.004875183,0,
00:02.9,0.00125885,-0.000658035,-0.004869461,0,
00:02.9,0.001253128,-0.000669479,-0.004875183,0,
00:02.9,0.001241684,-0.000658035,-0.004875183,0,
00:02.9,0.001241684,-0.000669479,-0.004869461,0,
00:03.0,0.001241684,-0.000675201,-0.004858017,0,
00:03.0,0.001264572,-0.000658035,-0.004863739,0,
00:03.0,0.001247406,-0.000663757,-0.004858017,0,
00:03.0,0.001241684,-0.000675201,-0.004846573,0,
00:03.0,0.001247406,-0.000663757,-0.004840851,0,
00:03.0,0.001247406,-0.000669479,-0.004840851,0,
00:03.0,0.001235962,-0.000669479,-0.004840851,0,
00:03.0,0.001224518,-0.000669479,-0.004840851,0,
00:03.0,0.00123024,-0.000663757,-0.004846573,0,
00:03.0,0.001241684,-0.000663757,-0.004835129,0,
00:03.0,0.00123024,-0.000663757,-0.004829407,0,
00:03.0,0.001235962,-0.000669479,-0.004835129,0,
00:00:03,0.001241684,-0.000669479,-0.004840851,0,
00:03.0,0.001235962,-0.000658035,-0.004817963,0,
00:03.0,0.00123024,-0.000658035,-0.004835129,0,
00:03.0,0.001247406,-0.000658035,-0.004823685,0,
00:03.0,0.001253128,-0.000646591,-0.004812241,0,
00:03.0,0.001235962,-0.000640869,-0.004817963,0,
00:03.0,0.001218796,-0.000635147,-0.004812241,0,
00:03.0,0.001235962,-0.000635147,-0.004812241,0,
00:03.0,0.001235962,-0.000646591,-0.004800797,0,
00:03.0,0.001247406,-0.000629425,-0.004806519,0,
00:03.0,0.00123024,-0.000635147,-0.004823685,0,
00:03.0,0.001224518,-0.000640869,-0.004806519,0,
00:03.0,0.001224518,-0.000652313,-0.00478363,0,
00:03.1,0.001218796,-0.000646591,-0.004789352,0,
00:03.1,0.001224518,-0.000635147,-0.004795074,0,
00:03.1,0.00123024,-0.000629425,-0.004800797,0,
00:03.1,0.001218796,-0.000640869,-0.004795074,0,
00:03.1,0.001213074,-0.000646591,-0.00478363,0,
00:03.1,0.001224518,-0.000640869,-0.00478363,0,
00:03.1,0.001213074,-0.000640869,-0.004795074,0,
00:03.1,0.001213074,-0.000640869,-0.004789352,0,
00:03.1,0.001213074,-0.000635147,-0.004777908,0,
00:03.1,0.001207352,-0.000640869,-0.004777908,0,
00:03.1,0.001224518,-0.000629425,-0.004777908,0,
00:03.1,0.00123024,-0.000617981,-0.004777908,0,
00:03.1,0.001224518,-0.000623703,-0.004766464,0,
00:03.1,0.00123024,-0.000640869,-0.004766464,0,
00:03.1,0.001213074,-0.000629425,-0.004766464,0,
00:03.1,0.00120163,-0.000635147,-0.00475502,0,
00:03.1,0.001218796,-0.000629425,-0.00475502,0,
00:03.1,0.001235962,-0.000606537,-0.00475502,0,
00:03.1,0.001213074,-0.000617981,-0.00475502,0,
00:03.1,0.001213074,-0.000629425,-0.004737854,0,
00:03.1,0.001224518,-0.000617981,-0.004743576,0,
00:03.1,0.001224518,-0.000617981,-0.004743576,0,
00:03.1,0.001213074,-0.000617981,-0.004743576,0,
00:03.1,0.001213074,-0.000623703,-0.004737854,0,
00:03.1,0.001207352,-0.000617981,-0.004720688,0,
00:03.2,0.001207352,-0.000612259,-0.004720688,0,
00:03.2,0.001213074,-0.000617981,-0.00472641,0,
00:03.2,0.001218796,-0.000606537,-0.00472641,0,
00:03.2,0.001213074,-0.000612259,-0.004720688,0,
00:03.2,0.001213074,-0.000623703,-0.004732132,0,
00:03.2,0.001207352,-0.000623703,-0.004737854,0,
00:03.2,0.001218796,-0.000612259,-0.00472641,0,
00:03.2,0.00120163,-0.000617981,-0.004709244,0,
00:03.2,0.001207352,-0.000617981,-0.004720688,0,
00:03.2,0.001207352,-0.000612259,-0.004709244,0,
00:03.2,0.001207352,-0.000606537,-0.004703522,0,
00:03.2,0.001207352,-0.000600815,-0.004709244,0,
00:03.2,0.001207352,-0.000606537,-0.004720688,0,
00:03.2,0.001207352,-0.000606537,-0.004720688,0,
00:03.2,0.001218796,-0.000606537,-0.0046978,0,
00:03.2,0.001195908,-0.000606537,-0.004686356,0,
00:03.2,0.001195908,-0.000612259,-0.004686356,0,
00:03.2,0.001195908,-0.000600815,-0.004686356,0,
00:03.2,0.00120163,-0.000589371,-0.004703522,0,
00:03.2,0.001195908,-0.000589371,-0.004692078,0,
00:03.2,0.001213074,-0.000589371,-0.004686356,0,
00:03.2,0.001218796,-0.000595093,-0.004686356,0,
00:03.2,0.001218796,-0.000583649,-0.004703522,0,
00:03.2,0.001184464,-0.000600815,-0.0046978,0,
00:03.2,0.001184464,-0.000606537,-0.004674911,0,
00:03.3,0.001195908,-0.000600815,-0.004680634,0,
00:03.3,0.001195908,-0.000600815,-0.004686356,0,
00:03.3,0.001195908,-0.000595093,-0.004669189,0,
00:03.3,0.001178741,-0.000589371,-0.004674911,0,
00:03.3,0.001190186,-0.000595093,-0.004674911,0,
00:03.3,0.00120163,-0.000595093,-0.004669189,0,
00:03.3,0.00120163,-0.000595093,-0.004663467,0,
00:03.3,0.00120163,-0.000583649,-0.004674911,0,
00:03.3,0.001195908,-0.000595093,-0.004686356,0,
00:03.3,0.001195908,-0.000606537,-0.004669189,0,
00:03.3,0.001190186,-0.000600815,-0.004657745,0,
00:03.3,0.001195908,-0.000583649,-0.004646301,0,
00:03.3,0.001195908,-0.000577927,-0.004657745,0,
00:03.3,0.001190186,-0.000589371,-0.004657745,0,
00:03.3,0.00120163,-0.000583649,-0.004652023,0,
00:03.3,0.001195908,-0.000589371,-0.004640579,0,
00:03.3,0.001184464,-0.000589371,-0.004652023,0,
00:03.3,0.001184464,-0.000583649,-0.004652023,0,
00:03.3,0.001190186,-0.000572205,-0.004640579,0,
00:03.3,0.00120163,-0.000572205,-0.004640579,0,
00:03.3,0.001190186,-0.000572205,-0.004640579,0,
00:03.3,0.001184464,-0.000566483,-0.004640579,0,
00:03.3,0.00120163,-0.00056076,-0.004646301,0,
00:03.3,0.001173019,-0.000566483,-0.004623413,0,
00:03.3,0.001167297,-0.000566483,-0.004623413,0,
00:03.4,0.001178741,-0.000572205,-0.004629135,0,
00:03.4,0.001173019,-0.000566483,-0.004629135,0,
00:03.4,0.001155853,-0.00056076,-0.004629135,0,
00:03.4,0.001190186,-0.000555038,-0.004634857,0,
00:03.4,0.001184464,-0.00056076,-0.004623413,0,
00:03.4,0.001195908,-0.000549316,-0.004611969,0,
00:03.4,0.001195908,-0.000537872,-0.004640579,0,
00:03.4,0.001190186,-0.00056076,-0.004640579,0,
00:03.4,0.001161575,-0.000572205,-0.004617691,0,
00:03.4,0.001173019,-0.000566483,-0.004600525,0,
00:03.4,0.001178741,-0.000555038,-0.004606247,0,
00:03.4,0.001178741,-0.000555038,-0.004606247,0,
00:03.4,0.001173019,-0.00056076,-0.004594803,0,
00:03.4,0.001173019,-0.00056076,-0.004594803,0,
00:03.4,0.001167297,-0.000555038,-0.004594803,0,
00:03.4,0.001161575,-0.00056076,-0.004589081,0,
00:03.4,0.001167297,-0.000555038,-0.004600525,0,
00:03.4,0.001161575,-0.000549316,-0.004594803,0,
00:03.4,0.001178741,-0.000555038,-0.004589081,0,
00:03.4,0.001167297,-0.000555038,-0.004589081,0,
00:03.4,0.001161575,-0.000555038,-0.004589081,0,
00:03.4,0.001173019,-0.000549316,-0.004577637,0,
00:03.4,0.001178741,-0.000555038,-0.004589081,0,
00:03.4,0.001173019,-0.00056076,-0.004594803,0,
00:03.4,0.001155853,-0.000549316,-0.004571915,0,
00:03.5,0.001155853,-0.000543594,-0.004566193,0,
00:03.5,0.001161575,-0.000555038,-0.004571915,0,
00:03.5,0.001167297,-0.000549316,-0.004577637,0,
00:03.5,0.001155853,-0.000555038,-0.004571915,0,
00:03.5,0.001155853,-0.000549316,-0.004560471,0,
00:03.5,0.001161575,-0.000543594,-0.004549026,0,
00:03.5,0.001161575,-0.000555038,-0.004549026,0,
00:03.5,0.001161575,-0.000537872,-0.004549026,0,
00:03.5,0.001155853,-0.00053215,-0.004549026,0,
00:03.5,0.001161575,-0.000537872,-0.004549026,0,
00:03.5,0.001144409,-0.000549316,-0.004543304,0,
00:03.5,0.001150131,-0.000549316,-0.004554749,0,
00:03.5,0.001161575,-0.000543594,-0.004549026,0,
00:03.5,0.001150131,-0.000543594,-0.004526138,0,
00:03.5,0.001150131,-0.000543594,-0.00453186,0,
00:03.5,0.001155853,-0.000537872,-0.004520416,0,
00:03.5,0.001150131,-0.00053215,-0.004520416,0,
00:03.5,0.001155853,-0.000520706,-0.004526138,0,
00:03.5,0.001155853,-0.000520706,-0.00453186,0,
00:03.5,0.001155853,-0.000520706,-0.004520416,0,
00:03.5,0.001150131,-0.00053215,-0.004520416,0,
00:03.5,0.001155853,-0.000537872,-0.004520416,0,
00:03.5,0.001161575,-0.00053215,-0.004526138,0,
00:03.5,0.001138687,-0.00053215,-0.004520416,0,
00:03.5,0.001138687,-0.000526428,-0.004497528,0,
00:03.6,0.001144409,-0.000520706,-0.004491806,0,
00:03.6,0.001132965,-0.000514984,-0.004491806,0,
00:03.6,0.001161575,-0.000509262,-0.00450325,0,
00:03.6,0.001161575,-0.000520706,-0.004508972,0,
00:03.6,0.001144409,-0.000520706,-0.004480362,0,
00:03.6,0.001144409,-0.000514984,-0.00447464,0,
00:03.6,0.001138687,-0.000514984,-0.004468918,0,
00:03.6,0.001144409,-0.000514984,-0.004463196,0,
00:03.6,0.001150131,-0.000509262,-0.004468918,0,
00:03.6,0.001155853,-0.00050354,-0.00447464,0,
00:03.6,0.001161575,-0.000514984,-0.004468918,0,
00:03.6,0.001138687,-0.000526428,-0.004468918,0,
00:03.6,0.001138687,-0.000520706,-0.004463196,0,
00:03.6,0.001138687,-0.000520706,-0.004463196,0,
00:03.6,0.001127243,-0.000509262,-0.00447464,0,
00:03.6,0.001127243,-0.000509262,-0.004463196,0,
00:03.6,0.001132965,-0.00050354,-0.004451752,0,
00:03.6,0.001144409,-0.00050354,-0.004463196,0,
00:03.6,0.001138687,-0.00050354,-0.004457474,0,
00:03.6,0.001150131,-0.00050354,-0.00444603,0,
00:03.6,0.001138687,-0.000514984,-0.00444603,0,
00:03.6,0.001132965,-0.00050354,-0.004434586,0,
00:03.6,0.001132965,-0.000497818,-0.004434586,0,
00:03.6,0.001127243,-0.00050354,-0.004440308,0,
00:03.6,0.001121521,-0.000509262,-0.004434586,0,
00:03.7,0.001127243,-0.00050354,-0.004434586,0,
00:03.7,0.001138687,-0.000492096,-0.004434586,0,
00:03.7,0.001115799,-0.00050354,-0.004428864,0,
00:03.7,0.001132965,-0.000497818,-0.004434586,0,
00:03.7,0.001132965,-0.000497818,-0.004423141,0,
00:03.7,0.001138687,-0.00050354,-0.004423141,0,
00:03.7,0.001138687,-0.00050354,-0.004428864,0,
00:03.7,0.001115799,-0.000497818,-0.004405975,0,
00:03.7,0.001121521,-0.000492096,-0.004405975,0,
00:03.7,0.001121521,-0.000492096,-0.004405975,0,
00:03.7,0.001110077,-0.000497818,-0.004411697,0,
00:03.7,0.001115799,-0.000497818,-0.004405975,0,
00:03.7,0.001121521,-0.000480652,-0.004388809,0,
00:03.7,0.001127243,-0.000486374,-0.004405975,0,
00:03.7,0.001110077,-0.000486374,-0.004400253,0,
00:03.7,0.001110077,-0.000486374,-0.004388809,0,
00:03.7,0.001110077,-0.000492096,-0.004388809,0,
00:03.7,0.001115799,-0.000480652,-0.004388809,0,
00:03.7,0.001104355,-0.000486374,-0.004394531,0,
00:03.7,0.001110077,-0.000486374,-0.004371643,0,
00:03.7,0.001115799,-0.000486374,-0.004377365,0,
00:03.7,0.001110077,-0.000469208,-0.004371643,0,
00:03.7,0.001098633,-0.000480652,-0.004377365,0,
00:03.7,0.001098633,-0.00047493,-0.004377365,0,
00:03.7,0.001098633,-0.000469208,-0.004365921,0,
00:03.8,0.001115799,-0.00047493,-0.004354477,0,
00:03.8,0.001110077,-0.000480652,-0.004354477,0,
00:03.8,0.001092911,-0.000480652,-0.004360199,0,
00:03.8,0.001092911,-0.00047493,-0.004383087,0,
00:03.8,0.001087189,-0.000480652,-0.004360199,0,
00:03.8,0.001110077,-0.00047493,-0.004348755,0,
00:03.8,0.001098633,-0.000469208,-0.004343033,0,
00:03.8,0.001087189,-0.000469208,-0.004343033,0,
00:03.8,0.001092911,-0.000469208,-0.004348755,0,
00:03.8,0.001110077,-0.000480652,-0.004331589,0,
00:03.8,0.001092911,-0.00047493,-0.004320145,0,
00:03.8,0.001098633,-0.000469208,-0.004325867,0,
00:03.8,0.001092911,-0.00047493,-0.004320145,0,
00:03.8,0.001087189,-0.00047493,-0.004325867,0,
00:03.8,0.001092911,-0.000469208,-0.004325867,0,
00:03.8,0.001104355,-0.000463486,-0.004308701,0,
00:03.8,0.001087189,-0.000463486,-0.004308701,0,
00:03.8,0.001087189,-0.000457764,-0.004314423,0,
00:03.8,0.001087189,-0.00044632,-0.004325867,0,
00:03.8,0.001092911,-0.00044632,-0.004314423,0,
00:03.8,0.001092911,-0.000457764,-0.004320145,0,
00:03.8,0.001087189,-0.000469208,-0.004314423,0,
00:03.8,0.001092911,-0.000452042,-0.004325867,0,
00:03.8,0.001064301,-0.000452042,-0.004308701,0,
00:03.8,0.001075745,-0.000452042,-0.00428009,0,
00:03.9,0.001070023,-0.000452042,-0.004291534,0,
00:03.9,0.001075745,-0.00044632,-0.004302979,0,
00:03.9,0.001064301,-0.00044632,-0.004297256,0,
00:03.9,0.001064301,-0.00044632,-0.004291534,0,
00:03.9,0.001070023,-0.000457764,-0.004297256,0,
00:03.9,0.001081467,-0.00044632,-0.004285812,0,
00:03.9,0.001075745,-0.00044632,-0.004291534,0,
00:03.9,0.001070023,-0.00044632,-0.004297256,0,
00:03.9,0.001058578,-0.000440598,-0.004285812,0,
00:03.9,0.001047134,-0.00044632,-0.00428009,0,
00:03.9,0.001052856,-0.000440598,-0.004274368,0,
00:03.9,0.001058578,-0.000440598,-0.004274368,0,
00:03.9,0.001070023,-0.000440598,-0.004268646,0,
00:03.9,0.001064301,-0.000452042,-0.004268646,0,
00:03.9,0.001064301,-0.00044632,-0.004274368,0,
00:03.9,0.001070023,-0.000434875,-0.00428009,0,
00:03.9,0.001075745,-0.000417709,-0.004274368,0,
00:03.9,0.001064301,-0.000423431,-0.00428009,0,
00:03.9,0.001058578,-0.000429153,-0.004262924,0,
00:03.9,0.001047134,-0.000429153,-0.004262924,0,
00:03.9,0.001052856,-0.000423431,-0.004234314,0,
00:03.9,0.001058578,-0.000423431,-0.004240036,0,
00:03.9,0.001058578,-0.000429153,-0.004245758,0,
00:03.9,0.001064301,-0.000423431,-0.004245758,0,
00:03.9,0.001052856,-0.000417709,-0.004245758,0,
00:04.0,0.001058578,-0.000429153,-0.004234314,0,
00:04.0,0.001058578,-0.000429153,-0.004245758,0,
00:04.0,0.001047134,-0.000429153,-0.00425148,0,
00:04.0,0.001041412,-0.000429153,-0.00422287,0,
00:04.0,0.001047134,-0.000429153,-0.00419426,0,
00:04.0,0.001041412,-0.000429153,-0.004199982,0,
00:04.0,0.00103569,-0.000423431,-0.004205704,0,
00:04.0,0.001052856,-0.000429153,-0.004211426,0,
00:04.0,0.001047134,-0.000411987,-0.004217148,0,
00:04.0,0.001024246,-0.000423431,-0.004211426,0,
00:04.0,0.001047134,-0.000411987,-0.004211426,0,
00:04.0,0.00103569,-0.000423431,-0.004217148,0,
00:00:04,0.001029968,-0.000423431,-0.004217148,0,
00:04.0,0.001012802,-0.000429153,-0.004217148,0,
00:04.0,0.001018524,-0.000434875,-0.00419426,0,
00:04.0,0.001024246,-0.00044632,-0.004171371,0,
00:04.0,0.001029968,-0.000440598,-0.004182816,0,
00:04.0,0.001029968,-0.000429153,-0.004188538,0,
00:04.0,0.001012802,-0.000423431,-0.004188538,0,
00:04.0,0.001024246,-0.000411987,-0.004188538,0,
00:04.0,0.001029968,-0.000411987,-0.004182816,0,
00:04.0,0.00103569,-0.000406265,-0.004177094,0,
00:04.0,0.00103569,-0.000389099,-0.004199982,0,
00:04.0,0.001024246,-0.000394821,-0.004199982,0,
00:04.0,0.00103569,-0.000400543,-0.004171371,0,
00:04.1,0.001018524,-0.000406265,-0.004159927,0,
00:04.1,0.001018524,-0.000406265,-0.004165649,0,
00:04.1,0.001018524,-0.000406265,-0.004165649,0,
00:04.1,0.001018524,-0.000400543,-0.004159927,0,
00:04.1,0.001018524,-0.000400543,-0.004154205,0,
00:04.1,0.001018524,-0.000400543,-0.004154205,0,
00:04.1,0.001024246,-0.000389099,-0.004154205,0,
00:04.1,0.001018524,-0.000389099,-0.004154205,0,
00:04.1,0.00100708,-0.000383377,-0.004148483,0,
00:04.1,0.001012802,-0.000394821,-0.004137039,0,
00:04.1,0.001012802,-0.000389099,-0.004148483,0,
00:04.1,0.001001358,-0.000389099,-0.004125595,0,
00:04.1,0.001001358,-0.000394821,-0.004131317,0,
00:04.1,0.00100708,-0.000389099,-0.004142761,0,
00:04.1,0.00100708,-0.000389099,-0.004137039,0,
00:04.1,0.00100708,-0.000400543,-0.004119873,0,
00:04.1,0.001001358,-0.000406265,-0.004125595,0,
00:04.1,0.00100708,-0.000400543,-0.004131317,0,
00:04.1,0.001012802,-0.000383377,-0.004119873,0,
00:04.1,0.001018524,-0.000383377,-0.004119873,0,
00:04.1,0.001012802,-0.000389099,-0.004119873,0,
00:04.1,0.001001358,-0.000394821,-0.004137039,0,
00:04.1,0.000989914,-0.000389099,-0.004125595,0,
00:04.1,0.001001358,-0.000389099,-0.004125595,0,
00:04.1,0.000995636,-0.000383377,-0.004108429,0,
00:04.2,0.001001358,-0.000383377,-0.004096985,0,
00:04.2,0.00100708,-0.000383377,-0.004102707,0,
00:04.2,0.000984192,-0.000389099,-0.004102707,0,
00:04.2,0.000989914,-0.000371933,-0.004096985,0,
00:04.2,0.001001358,-0.000383377,-0.004085541,0,
00:04.2,0.000989914,-0.000383377,-0.004085541,0,
00:04.2,0.000989914,-0.000371933,-0.004091263,0,
00:04.2,0.00100708,-0.000383377,-0.004091263,0,
00:04.2,0.000984192,-0.000389099,-0.004085541,0,
00:04.2,0.000984192,-0.000383377,-0.004079819,0,
00:04.2,0.000989914,-0.000383377,-0.004068375,0,
00:04.2,0.000989914,-0.000383377,-0.004068375,0,
00:04.2,0.000984192,-0.000371933,-0.004062653,0,
00:04.2,0.000984192,-0.000360489,-0.004068375,0,
00:04.2,0.000995636,-0.000371933,-0.004068375,0,
00:04.2,0.000995636,-0.000377655,-0.004056931,0,
00:04.2,0.00097847,-0.000377655,-0.004056931,0,
00:04.2,0.000989914,-0.000371933,-0.004051208,0,
00:04.2,0.000984192,-0.000371933,-0.004056931,0,
00:04.2,0.00097847,-0.000377655,-0.004051208,0,
00:04.2,0.00097847,-0.000377655,-0.004045486,0,
00:04.2,0.000972748,-0.000371933,-0.004045486,0,
00:04.2,0.000989914,-0.000360489,-0.004045486,0,
00:04.2,0.000989914,-0.000366211,-0.004045486,0,
00:04.2,0.000972748,-0.000377655,-0.004039764,0,
00:04.3,0.000972748,-0.000366211,-0.004039764,0,
00:04.3,0.000972748,-0.000360489,-0.004034042,0,
00:04.3,0.00097847,-0.000360489,-0.004039764,0,
00:04.3,0.000967026,-0.000360489,-0.004034042,0,
00:04.3,0.000972748,-0.000360489,-0.00402832,0,
00:04.3,0.00097847,-0.000354767,-0.004039764,0,
00:04.3,0.00097847,-0.000349045,-0.004051208,0,
00:04.3,0.000972748,-0.000343323,-0.004016876,0,
00:04.3,0.000961304,-0.000354767,-0.004005432,0,
00:04.3,0.000961304,-0.000354767,-0.004011154,0,
00:04.3,0.000967026,-0.000366211,-0.004016876,0,
00:04.3,0.000967026,-0.000360489,-0.004011154,0,
00:04.3,0.000967026,-0.000349045,-0.004011154,0,
00:04.3,0.000961304,-0.000343323,-0.004011154,0,
00:04.3,0.000961304,-0.000337601,-0.004011154,0,
00:04.3,0.00097847,-0.000337601,-0.004016876,0,
00:04.3,0.000961304,-0.000343323,-0.004005432,0,
00:04.3,0.000967026,-0.000343323,-0.003993988,0,
00:04.3,0.000955582,-0.000349045,-0.00399971,0,
00:04.3,0.000961304,-0.000349045,-0.003982544,0,
00:04.3,0.00094986,-0.000354767,-0.003982544,0,
00:04.3,0.000967026,-0.000343323,-0.003976822,0,
00:04.3,0.000972748,-0.000331879,-0.003982544,0,
00:04.3,0.000972748,-0.000343323,-0.003982544,0,
00:04.3,0.000972748,-0.000343323,-0.003976822,0,
00:04.4,0.000961304,-0.000349045,-0.0039711,0,
00:04.4,0.000961304,-0.000349045,-0.0039711,0,
00:04.4,0.000955582,-0.000343323,-0.003965378,0,
00:04.4,0.000961304,-0.000343323,-0.003948212,0,
00:04.4,0.000961304,-0.000343323,-0.003948212,0,
00:04.4,0.000961304,-0.000337601,-0.003948212,0,
00:04.4,0.00094986,-0.000343323,-0.003959656,0,
00:04.4,0.00094986,-0.000326157,-0.003953934,0,
00:04.4,0.000967026,-0.000320435,-0.003948212,0,
00:04.4,0.00094986,-0.000331879,-0.003948212,0,
00:04.4,0.000938416,-0.000337601,-0.003959656,0,
00:04.4,0.00094986,-0.000331879,-0.00394249,0,
00:04.4,0.00094986,-0.000337601,-0.00394249,0,
00:04.4,0.000944138,-0.000331879,-0.003948212,0,
00:04.4,0.000944138,-0.000314713,-0.003936768,0,
00:04.4,0.000944138,-0.000331879,-0.003925323,0,
00:04.4,0.000944138,-0.000331879,-0.003936768,0,
00:04.4,0.000938416,-0.000326157,-0.003925323,0,
00:04.4,0.000932693,-0.000337601,-0.003931046,0,
00:04.4,0.000938416,-0.000331879,-0.003931046,0,
00:04.4,0.000932693,-0.000343323,-0.003913879,0,
00:04.4,0.000944138,-0.000326157,-0.003913879,0,
00:04.4,0.000938416,-0.000314713,-0.003919601,0,
00:04.4,0.000938416,-0.000314713,-0.003913879,0,
00:04.4,0.00094986,-0.000320435,-0.003896713,0,
00:04.5,0.000944138,-0.000326157,-0.003896713,0,
00:04.5,0.000938416,-0.000331879,-0.003896713,0,
00:04.5,0.000944138,-0.000326157,-0.003896713,0,
00:04.5,0.000938416,-0.000320435,-0.003908157,0,
00:04.5,0.000944138,-0.000320435,-0.003896713,0,
00:04.5,0.000938416,-0.000320435,-0.003890991,0,
00:04.5,0.000944138,-0.00030899,-0.003896713,0,
00:04.5,0.000932693,-0.000320435,-0.003913879,0,
00:04.5,0.000926971,-0.000314713,-0.003890991,0,
00:04.5,0.000938416,-0.000320435,-0.003879547,0,
00:04.5,0.00094986,-0.000326157,-0.003885269,0,
00:04.5,0.000921249,-0.000326157,-0.003885269,0,
00:04.5,0.000932693,-0.000314713,-0.003879547,0,
00:04.5,0.000938416,-0.000303268,-0.003873825,0,
00:04.5,0.000938416,-0.000303268,-0.003879547,0,
00:04.5,0.000921249,-0.000320435,-0.003868103,0,
00:04.5,0.000915527,-0.000314713,-0.003856659,0,
00:04.5,0.000926971,-0.00030899,-0.003856659,0,
00:04.5,0.000909805,-0.000314713,-0.003850937,0,
00:04.5,0.000932693,-0.00030899,-0.003850937,0,
00:04.5,0.000921249,-0.000314713,-0.003850937,0,
00:04.5,0.000921249,-0.000320435,-0.003839493,0,
00:04.5,0.000921249,-0.00030899,-0.003828049,0,
00:04.5,0.000921249,-0.000297546,-0.003833771,0,
00:04.5,0.000921249,-0.000303268,-0.003833771,0,
00:04.6,0.000915527,-0.000314713,-0.003839493,0,
00:04.6,0.000915527,-0.00030899,-0.003828049,0,
00:04.6,0.000926971,-0.000297546,-0.003833771,0,
00:04.6,0.000921249,-0.000286102,-0.003850937,0,
00:04.6,0.000915527,-0.000297546,-0.003833771,0,
00:04.6,0.000898361,-0.00030899,-0.003805161,0,
00:04.6,0.000898361,-0.000303268,-0.003799438,0,
00:04.6,0.000904083,-0.000297546,-0.003805161,0,
00:04.6,0.000904083,-0.000297546,-0.003799438,0,
00:04.6,0.000909805,-0.000291824,-0.003799438,0,
00:04.6,0.000926971,-0.000291824,-0.003799438,0,
00:04.6,0.000921249,-0.000286102,-0.003799438,0,
00:04.6,0.000915527,-0.000274658,-0.003805161,0,
00:04.6,0.000904083,-0.000274658,-0.003787994,0,
00:04.6,0.000898361,-0.000291824,-0.003799438,0,
00:04.6,0.000892639,-0.000291824,-0.003782272,0,
00:04.6,0.000898361,-0.000286102,-0.00377655,0,
00:04.6,0.000892639,-0.000286102,-0.003787994,0,
00:04.6,0.000892639,-0.00028038,-0.003793716,0,
00:04.6,0.000892639,-0.00028038,-0.003787994,0,
00:04.6,0.000892639,-0.000286102,-0.003770828,0,
00:04.6,0.000892639,-0.00028038,-0.003765106,0,
00:04.6,0.000892639,-0.00028038,-0.003765106,0,
00:04.6,0.000904083,-0.000263214,-0.003765106,0,
00:04.6,0.000909805,-0.000263214,-0.003770828,0,
00:04.7,0.000915527,-0.00028038,-0.003793716,0,
00:04.7,0.000898361,-0.000274658,-0.003753662,0,
00:04.7,0.000886917,-0.00028038,-0.003736496,0,
00:04.7,0.000886917,-0.000286102,-0.003736496,0,
00:04.7,0.000886917,-0.000286102,-0.003736496,0,
00:04.7,0.000892639,-0.000286102,-0.003736496,0,
00:04.7,0.000886917,-0.000286102,-0.003736496,0,
00:04.7,0.000886917,-0.000274658,-0.003736496,0,
00:04.7,0.000892639,-0.000274658,-0.00374794,0,
00:04.7,0.000892639,-0.00028038,-0.00374794,0,
00:04.7,0.000898361,-0.000286102,-0.003730774,0,
00:04.7,0.000881195,-0.000286102,-0.003725052,0,
00:04.7,0.000864029,-0.00028038,-0.003730774,0,
00:04.7,0.000886917,-0.00028038,-0.003730774,0,
00:04.7,0.000892639,-0.000268936,-0.003730774,0,
00:04.7,0.000881195,-0.000274658,-0.00371933,0,
00:04.7,0.000886917,-0.000268936,-0.003730774,0,
00:04.7,0.000881195,-0.000268936,-0.003742218,0,
00:04.7,0.000869751,-0.00028038,-0.003725052,0,
00:04.7,0.000875473,-0.00028038,-0.003713608,0,
00:04.7,0.000881195,-0.00028038,-0.003702164,0,
00:04.7,0.000875473,-0.00028038,-0.003696442,0,
00:04.7,0.000869751,-0.000268936,-0.003702164,0,
00:04.7,0.000869751,-0.000274658,-0.00369072,0,
00:04.7,0.000875473,-0.000268936,-0.003684998,0,
00:04.8,0.000858307,-0.000268936,-0.003696442,0,
00:04.8,0.000858307,-0.000274658,-0.003696442,0,
00:04.8,0.000875473,-0.000257492,-0.003696442,0,
00:04.8,0.000881195,-0.000257492,-0.00369072,0,
00:04.8,0.000875473,-0.000257492,-0.00369072,0,
00:04.8,0.000869751,-0.000268936,-0.00369072,0,
00:04.8,0.000875473,-0.000268936,-0.003684998,0,
00:04.8,0.000869751,-0.000263214,-0.003684998,0,
00:04.8,0.000869751,-0.000263214,-0.003673553,0,
00:04.8,0.000875473,-0.000257492,-0.003679276,0,
00:04.8,0.000869751,-0.000263214,-0.00369072,0,
00:04.8,0.000864029,-0.000268936,-0.003673553,0,
00:04.8,0.000864029,-0.000263214,-0.003656387,0,
00:04.8,0.000858307,-0.000257492,-0.003662109,0,
00:04.8,0.000846863,-0.000257492,-0.003656387,0,
00:04.8,0.000858307,-0.000268936,-0.003650665,0,
00:04.8,0.000858307,-0.00025177,-0.003650665,0,
00:04.8,0.000864029,-0.000246048,-0.003656387,0,
00:04.8,0.000852585,-0.000246048,-0.003667831,0,
00:04.8,0.000841141,-0.00025177,-0.003650665,0,
00:04.8,0.000858307,-0.000246048,-0.003650665,0,
00:04.8,0.000846863,-0.000246048,-0.003650665,0,
00:04.8,0.000846863,-0.000257492,-0.003639221,0,
00:04.8,0.000846863,-0.000257492,-0.003627777,0,
00:04.8,0.000846863,-0.000257492,-0.003622055,0,
00:04.9,0.000841141,-0.00025177,-0.003622055,0,
00:04.9,0.000864029,-0.000246048,-0.003627777,0,
00:04.9,0.000841141,-0.000246048,-0.003622055,0,
00:04.9,0.000841141,-0.00025177,-0.003610611,0,
00:04.9,0.000852585,-0.000257492,-0.003616333,0,
00:04.9,0.000846863,-0.000257492,-0.003599167,0,
00:04.9,0.000835419,-0.000246048,-0.003599167,0,
00:04.9,0.000841141,-0.000246048,-0.003604889,0,
00:04.9,0.000852585,-0.000240326,-0.003604889,0,
00:04.9,0.000841141,-0.000246048,-0.003610611,0,
00:04.9,0.000823975,-0.00025177,-0.003593445,0,
00:04.9,0.000835419,-0.000257492,-0.003599167,0,
00:04.9,0.000835419,-0.000257492,-0.003593445,0,
00:04.9,0.000835419,-0.000240326,-0.003593445,0,
00:04.9,0.000835419,-0.000246048,-0.003587723,0,
00:04.9,0.000829697,-0.000257492,-0.003587723,0,
00:04.9,0.000818253,-0.000257492,-0.003587723,0,
00:04.9,0.000823975,-0.000240326,-0.003582001,0,
00:04.9,0.000852585,-0.000234604,-0.003593445,0,
00:04.9,0.000829697,-0.000240326,-0.003582001,0,
00:04.9,0.000829697,-0.000246048,-0.003570557,0,
00:04.9,0.000841141,-0.000234604,-0.003564835,0,
00:04.9,0.000829697,-0.000246048,-0.003564835,0,
00:04.9,0.000835419,-0.000234604,-0.003576279,0,
00:04.9,0.000835419,-0.000246048,-0.003570557,0,
00:05.0,0.000835419,-0.000240326,-0.003553391,0,
00:05.0,0.000835419,-0.000234604,-0.003553391,0,
00:05.0,0.000829697,-0.000234604,-0.003564835,0,
00:05.0,0.000841141,-0.000234604,-0.003559113,0,
00:05.0,0.000823975,-0.000246048,-0.003559113,0,
00:05.0,0.000818253,-0.000257492,-0.003559113,0,
00:05.0,0.000818253,-0.00025177,-0.003536224,0,
00:05.0,0.000829697,-0.000240326,-0.003547668,0,
00:05.0,0.000823975,-0.000240326,-0.003541946,0,
00:05.0,0.000812531,-0.000246048,-0.003541946,0,
00:05.0,0.000812531,-0.000246048,-0.003530502,0,
00:05.0,0.000829697,-0.000240326,-0.003541946,0,
00:00:05,0.000806808,-0.000240326,-0.003536224,0,
00:05.0,0.000806808,-0.000228882,-0.003530502,0,
00:05.0,0.000812531,-0.000234604,-0.003530502,0,
00:05.0,0.000812531,-0.000246048,-0.003501892,0,
00:05.0,0.000812531,-0.000234604,-0.003490448,0,
00:05.0,0.000806808,-0.000228882,-0.003501892,0,
00:05.0,0.000812531,-0.000228882,-0.003507614,0,
00:05.0,0.000806808,-0.000228882,-0.003513336,0,
00:05.0,0.000806808,-0.000234604,-0.003507614,0,
00:05.0,0.000806808,-0.00022316,-0.003507614,0,
00:05.0,0.000806808,-0.00022316,-0.003501892,0,
00:05.0,0.000812531,-0.00022316,-0.003501892,0,
00:05.0,0.000812531,-0.000234604,-0.003501892,0,
00:05.1,0.000801086,-0.000234604,-0.00349617,0,
00:05.1,0.000789642,-0.000240326,-0.003473282,0,
00:05.1,0.00078392,-0.000240326,-0.003473282,0,
00:05.1,0.000789642,-0.000240326,-0.003473282,0,
00:05.1,0.000795364,-0.000228882,-0.00346756,0,
00:05.1,0.000789642,-0.000228882,-0.003461838,0,
00:05.1,0.00078392,-0.00022316,-0.003456116,0,
00:05.1,0.000795364,-0.000211716,-0.003473282,0,
00:05.1,0.000789642,-0.00022316,-0.003479004,0,
00:05.1,0.000789642,-0.000205994,-0.00346756,0,
00:05.1,0.00078392,-0.00022316,-0.003461838,0,
00:05.1,0.00078392,-0.00022316,-0.003444672,0,
00:05.1,0.000772476,-0.00022316,-0.003444672,0,
00:05.1,0.000778198,-0.000217438,-0.003450394,0,
00:05.1,0.00078392,-0.000211716,-0.003461838,0,
00:05.1,0.00078392,-0.00022316,-0.003444672,0,
00:05.1,0.000772476,-0.000211716,-0.003433228,0,
00:05.1,0.000761032,-0.000211716,-0.003450394,0,
00:05.1,0.000789642,-0.000205994,-0.003450394,0,
00:05.1,0.000789642,-0.000205994,-0.003433228,0,
00:05.1,0.00078392,-0.00022316,-0.003433228,0,
00:05.1,0.00078392,-0.000211716,-0.003433228,0,
00:05.1,0.000772476,-0.000217438,-0.003427505,0,
00:05.1,0.000772476,-0.000217438,-0.003416061,0,
00:05.1,0.000766754,-0.000217438,-0.003427505,0,
00:05.2,0.000772476,-0.000211716,-0.003421783,0,
00:05.2,0.000772476,-0.000211716,-0.003421783,0,
00:05.2,0.000766754,-0.000205994,-0.003421783,0,
00:05.2,0.000778198,-0.00019455,-0.003416061,0,
00:05.2,0.000766754,-0.000211716,-0.003421783,0,
00:05.2,0.000761032,-0.000217438,-0.003410339,0,
00:05.2,0.000761032,-0.000211716,-0.003393173,0,
00:05.2,0.000766754,-0.000211716,-0.003393173,0,
00:05.2,0.00078392,-0.000205994,-0.003404617,0,
00:05.2,0.000772476,-0.00019455,-0.003398895,0,
00:05.2,0.000778198,-0.000183105,-0.003398895,0,
00:05.2,0.00078392,-0.000200272,-0.003404617,0,
00:05.2,0.000749588,-0.000211716,-0.003393173,0,
00:05.2,0.00075531,-0.000200272,-0.003387451,0,
00:05.2,0.000761032,-0.000200272,-0.003387451,0,
00:05.2,0.000772476,-0.000200272,-0.003387451,0,
00:05.2,0.00078392,-0.00019455,-0.003393173,0,
00:05.2,0.000766754,-0.000188828,-0.003398895,0,
00:05.2,0.000766754,-0.000200272,-0.003398895,0,
00:05.2,0.000761032,-0.000200272,-0.003393173,0,
00:05.2,0.00075531,-0.000188828,-0.003381729,0,
00:05.2,0.00075531,-0.000188828,-0.003381729,0,
00:05.2,0.00075531,-0.000188828,-0.003404617,0,
00:05.2,0.00075531,-0.000188828,-0.003376007,0,
00:05.2,0.000761032,-0.00019455,-0.003358841,0,
00:05.3,0.000761032,-0.00019455,-0.003364563,0,
00:05.3,0.000749588,-0.00019455,-0.003353119,0,
00:05.3,0.000743866,-0.000188828,-0.003364563,0,
00:05.3,0.00075531,-0.000183105,-0.003370285,0,
00:05.3,0.000761032,-0.000177383,-0.003370285,0,
00:05.3,0.000761032,-0.000188828,-0.003370285,0,
00:05.3,0.000749588,-0.000188828,-0.003358841,0,
00:05.3,0.00075531,-0.00019455,-0.003353119,0,
00:05.3,0.000761032,-0.00019455,-0.003335953,0,
00:05.3,0.00075531,-0.000188828,-0.003335953,0,
00:05.3,0.000766754,-0.000177383,-0.003330231,0,
00:05.3,0.000766754,-0.000188828,-0.003330231,0,
00:05.3,0.00075531,-0.00019455,-0.003353119,0,
00:05.3,0.000732422,-0.000177383,-0.003347397,0,
00:05.3,0.000749588,-0.000171661,-0.003318787,0,
00:05.3,0.000749588,-0.000177383,-0.003324509,0,
00:05.3,0.00075531,-0.000183105,-0.003335953,0,
00:05.3,0.000732422,-0.00019455,-0.003341675,0,
00:05.3,0.000732422,-0.000188828,-0.003324509,0,
00:05.3,0.000749588,-0.000188828,-0.003324509,0,
00:05.3,0.000732422,-0.000188828,-0.003318787,0,
00:05.3,0.000738144,-0.000188828,-0.003313065,0,
00:05.3,0.000743866,-0.000171661,-0.003318787,0,
00:05.3,0.000738144,-0.000177383,-0.003318787,0,
00:05.3,0.000738144,-0.000177383,-0.003313065,0,
00:05.4,0.0007267,-0.000171661,-0.003307343,0,
00:05.4,0.000732422,-0.000171661,-0.003295898,0,
00:05.4,0.000732422,-0.000177383,-0.00330162,0,
00:05.4,0.000720978,-0.000183105,-0.003290176,0,
00:05.4,0.0007267,-0.000171661,-0.003290176,0,
00:05.4,0.0007267,-0.000171661,-0.003284454,0,
00:05.4,0.000738144,-0.000165939,-0.003284454,0,
00:05.4,0.000738144,-0.000165939,-0.003290176,0,
00:05.4,0.000720978,-0.000177383,-0.003295898,0,
00:05.4,0.000715256,-0.000177383,-0.003278732,0,
00:05.4,0.0007267,-0.000171661,-0.003278732,0,
00:05.4,0.000720978,-0.000177383,-0.003284454,0,
00:05.4,0.000720978,-0.000177383,-0.003284454,0,
00:05.4,0.0007267,-0.000171661,-0.003278732,0,
00:05.4,0.0007267,-0.000165939,-0.00327301,0,
00:05.4,0.000715256,-0.000165939,-0.003267288,0,
00:05.4,0.000720978,-0.000177383,-0.00327301,0,
00:05.4,0.000732422,-0.000171661,-0.003261566,0,
00:05.4,0.000732422,-0.000160217,-0.003261566,0,
00:05.4,0.000720978,-0.000154495,-0.003261566,0,
00:05.4,0.000709534,-0.000160217,-0.003255844,0,
00:05.4,0.000715256,-0.000160217,-0.003261566,0,
00:05.4,0.000720978,-0.000154495,-0.003255844,0,
00:05.4,0.000703812,-0.000160217,-0.0032444,0,
00:05.4,0.000703812,-0.000165939,-0.0032444,0,
00:05.5,0.000715256,-0.000154495,-0.0032444,0,
00:05.5,0.000703812,-0.000160217,-0.0032444,0,
00:05.5,0.000703812,-0.000160217,-0.003232956,0,
00:05.5,0.000703812,-0.000160217,-0.003238678,0,
00:05.5,0.000703812,-0.000160217,-0.003227234,0,
00:05.5,0.000715256,-0.000154495,-0.003232956,0,
00:05.5,0.000709534,-0.000160217,-0.003238678,0,
00:05.5,0.000715256,-0.000154495,-0.003232956,0,
00:05.5,0.000703812,-0.000160217,-0.003227234,0,
00:05.5,0.000715256,-0.000154495,-0.003227234,0,
00:05.5,0.000715256,-0.000148773,-0.003227234,0,
00:05.5,0.000709534,-0.000148773,-0.003227234,0,
00:05.5,0.000703812,-0.000143051,-0.003227234,0,
00:05.5,0.000709534,-0.000137329,-0.00321579,0,
00:05.5,0.000715256,-0.000137329,-0.003221512,0,
00:05.5,0.00069809,-0.000143051,-0.003221512,0,
00:05.5,0.000692368,-0.000148773,-0.003204346,0,
00:05.5,0.000709534,-0.000131607,-0.003210068,0,
00:05.5,0.000709534,-0.000125885,-0.003204346,0,
00:05.5,0.00069809,-0.000120163,-0.003192902,0,
00:05.5,0.00069809,-0.000125885,-0.00318718,0,
00:05.5,0.000703812,-0.000131607,-0.00318718,0,
00:05.5,0.000703812,-0.000114441,-0.003198624,0,
00:05.5,0.00069809,-0.000120163,-0.003204346,0,
00:05.5,0.00069809,-0.000131607,-0.003192902,0,
00:05.6,0.000692368,-0.000137329,-0.00318718,0,
00:05.6,0.000692368,-0.000137329,-0.003175735,0,
00:05.6,0.000692368,-0.000137329,-0.003175735,0,
00:05.6,0.000692368,-0.000131607,-0.003181458,0,
00:05.6,0.000680923,-0.000120163,-0.003170013,0,
00:05.6,0.00069809,-0.000114441,-0.003170013,0,
00:05.6,0.000680923,-0.000131607,-0.003175735,0,
00:05.6,0.000680923,-0.000131607,-0.003164291,0,
00:05.6,0.000680923,-0.000125885,-0.003175735,0,
00:05.6,0.000686646,-0.000120163,-0.003164291,0,
00:05.6,0.000692368,-0.000114441,-0.003152847,0,
00:05.6,0.000680923,-0.000125885,-0.003158569,0,
00:05.6,0.000675201,-0.000131607,-0.003152847,0,
00:05.6,0.000680923,-0.000120163,-0.003152847,0,
00:05.6,0.000680923,-0.000120163,-0.003147125,0,
00:05.6,0.000675201,-0.000125885,-0.003141403,0,
00:05.6,0.000675201,-0.000125885,-0.003152847,0,
00:05.6,0.000692368,-0.000120163,-0.003158569,0,
00:05.6,0.000686646,-0.000120163,-0.003164291,0,
00:05.6,0.000669479,-0.000125885,-0.003135681,0,
00:05.6,0.000669479,-0.000125885,-0.003112793,0,
00:05.6,0.000675201,-0.000120163,-0.003118515,0,
00:05.6,0.000680923,-0.000120163,-0.003118515,0,
00:05.6,0.000669479,-0.000120163,-0.003118515,0,
00:05.6,0.000675201,-0.000108719,-0.003112793,0,
00:05.7,0.000680923,-0.000108719,-0.003124237,0,
00:05.7,0.000675201,-0.000108719,-0.003124237,0,
00:05.7,0.000663757,-0.000131607,-0.003112793,0,
00:05.7,0.000652313,-0.000114441,-0.003112793,0,
00:05.7,0.000652313,-0.000108719,-0.003112793,0,
00:05.7,0.000663757,-0.000114441,-0.003107071,0,
00:05.7,0.000663757,-0.000114441,-0.003095627,0,
00:05.7,0.000658035,-0.000108719,-0.003101349,0,
00:05.7,0.000663757,-0.000120163,-0.003101349,0,
00:05.7,0.000658035,-0.000114441,-0.003107071,0,
00:05.7,0.000663757,-0.000114441,-0.003107071,0,
00:05.7,0.000658035,-0.000114441,-0.003089905,0,
00:05.7,0.000663757,-0.000102997,-0.003112793,0,
00:05.7,0.000663757,-0.000114441,-0.003118515,0,
00:05.7,0.000652313,-0.000114441,-0.003089905,0,
00:05.7,0.000663757,-0.000108719,-0.003089905,0,
00:05.7,0.000669479,-0.000108719,-0.003089905,0,
00:05.7,0.000658035,-0.000114441,-0.003089905,0,
00:05.7,0.000663757,-0.000108719,-0.003089905,0,
00:05.7,0.000652313,-0.000114441,-0.003084183,0,
00:05.7,0.000646591,-0.000108719,-0.003072739,0,
00:05.7,0.000663757,-0.000102997,-0.003089905,0,
00:05.7,0.000663757,-0.000114441,-0.003084183,0,
00:05.7,0.000658035,-0.000120163,-0.003078461,0,
00:05.7,0.000675201,-0.000102997,-0.003084183,0,
00:05.8,0.000652313,-0.000102997,-0.003078461,0,
00:05.8,0.000652313,-0.000108719,-0.003061295,0,
00:05.8,0.000640869,-0.000108719,-0.003067017,0,
00:05.8,0.000640869,-9.73E-05,-0.003067017,0,
00:05.8,0.000652313,-9.16E-05,-0.003061295,0,
00:05.8,0.000658035,-9.73E-05,-0.003055573,0,
00:05.8,0.000658035,-9.73E-05,-0.003055573,0,
00:05.8,0.000652313,-9.73E-05,-0.003055573,0,
00:05.8,0.000646591,-9.16E-05,-0.003055573,0,
00:05.8,0.000652313,-9.16E-05,-0.00304985,0,
00:05.8,0.000652313,-9.73E-05,-0.003055573,0,
00:05.8,0.000658035,-9.16E-05,-0.003061295,0,
00:05.8,0.000646591,-9.73E-05,-0.003061295,0,
00:05.8,0.000640869,-9.73E-05,-0.003055573,0,
00:05.8,0.000635147,-0.000102997,-0.003061295,0,
00:05.8,0.000623703,-0.000102997,-0.00304985,0,
00:05.8,0.000635147,-0.000102997,-0.003044128,0,
00:05.8,0.000640869,-9.73E-05,-0.003038406,0,
00:05.8,0.000640869,-9.73E-05,-0.003032684,0,
00:05.8,0.000640869,-9.73E-05,-0.003038406,0,
00:05.8,0.000629425,-9.16E-05,-0.003026962,0,
00:05.8,0.000640869,-9.16E-05,-0.003026962,0,
00:05.8,0.000640869,-9.16E-05,-0.00302124,0,
00:05.8,0.000635147,-8.58E-05,-0.003044128,0,
00:05.8,0.000646591,-8.58E-05,-0.00304985,0,
00:05.9,0.000623703,-8.58E-05,-0.003026962,0,
00:05.9,0.000623703,-8.58E-05,-0.003004074,0,
00:05.9,0.000635147,-7.44E-05,-0.003004074,0,
00:05.9,0.000635147,-8.01E-05,-0.003009796,0,
00:05.9,0.000635147,-7.44E-05,-0.003009796,0,
00:05.9,0.000629425,-8.01E-05,-0.003015518,0,
00:05.9,0.000635147,-9.16E-05,-0.003015518,0,
00:05.9,0.000629425,-9.16E-05,-0.003009796,0,
00:05.9,0.000623703,-8.58E-05,-0.002998352,0,
00:05.9,0.000635147,-8.01E-05,-0.003004074,0,
00:05.9,0.000629425,-9.16E-05,-0.00299263,0,
00:05.9,0.000623703,-9.73E-05,-0.002986908,0,
00:05.9,0.000612259,-9.16E-05,-0.002986908,0,
00:05.9,0.000629425,-8.58E-05,-0.002981186,0,
00:05.9,0.000617981,-9.16E-05,-0.002981186,0,
00:05.9,0.000617981,-8.58E-05,-0.002975464,0,
00:05.9,0.000629425,-8.01E-05,-0.002981186,0,
00:05.9,0.000623703,-8.58E-05,-0.002981186,0,
00:05.9,0.000623703,-7.44E-05,-0.002981186,0,
00:05.9,0.000623703,-6.87E-05,-0.002975464,0,
00:05.9,0.000617981,-7.44E-05,-0.002981186,0,
00:05.9,0.000606537,-8.01E-05,-0.00296402,0,
00:05.9,0.000623703,-8.01E-05,-0.002981186,0,
00:05.9,0.000612259,-8.01E-05,-0.002969742,0,
00:05.9,0.000617981,-7.44E-05,-0.00296402,0,
00:06.0,0.000629425,-6.87E-05,-0.002958298,0,
00:06.0,0.000606537,-8.01E-05,-0.002969742,0,
00:06.0,0.000595093,-9.16E-05,-0.002952576,0,
00:06.0,0.000606537,-8.01E-05,-0.002952576,0,
00:06.0,0.000612259,-6.87E-05,-0.002975464,0,
00:06.0,0.000606537,-7.44E-05,-0.002969742,0,
00:06.0,0.000606537,-7.44E-05,-0.00296402,0,
00:06.0,0.000606537,-7.44E-05,-0.002952576,0,
00:06.0,0.000600815,-6.87E-05,-0.002952576,0,
00:06.0,0.000606537,-6.29E-05,-0.002946854,0,
00:06.0,0.000606537,-7.44E-05,-0.002941132,0,
00:06.0,0.000595093,-7.44E-05,-0.00293541,0,
00:00:06,0.000606537,-6.29E-05,-0.002946854,0,
00:06.0,0.000600815,-4.58E-05,-0.002946854,0,
00:06.0,0.000606537,-4.01E-05,-0.002941132,0,
00:06.0,0.000600815,-5.72E-05,-0.00293541,0,
00:06.0,0.000583649,-7.44E-05,-0.002929688,0,
00:06.0,0.000595093,-6.29E-05,-0.00293541,0,
00:06.0,0.000595093,-5.72E-05,-0.002929688,0,
00:06.0,0.000589371,-6.29E-05,-0.002912521,0,
00:06.0,0.000595093,-5.72E-05,-0.002912521,0,
00:06.0,0.000595093,-5.15E-05,-0.002912521,0,
00:06.0,0.000612259,-4.58E-05,-0.002929688,0,
00:06.0,0.000606537,-4.01E-05,-0.00293541,0,
00:06.0,0.000589371,-4.01E-05,-0.002906799,0,
00:06.1,0.000589371,-5.15E-05,-0.002912521,0,
00:06.1,0.000583649,-6.29E-05,-0.002906799,0,
00:06.1,0.000572205,-6.29E-05,-0.002901077,0,
00:06.1,0.000577927,-6.29E-05,-0.002901077,0,
00:06.1,0.000583649,-5.72E-05,-0.002883911,0,
00:06.1,0.000583649,-5.72E-05,-0.002883911,0,
00:06.1,0.000595093,-5.72E-05,-0.002889633,0,
00:06.1,0.000589371,-4.01E-05,-0.002906799,0,
00:06.1,0.000589371,-4.58E-05,-0.002895355,0,
00:06.1,0.000583649,-4.58E-05,-0.002889633,0,
00:06.1,0.000595093,-4.01E-05,-0.002878189,0,
00:06.1,0.000595093,-6.87E-05,-0.002883911,0,
00:06.1,0.000595093,-5.15E-05,-0.002889633,0,
00:06.1,0.000589371,-5.15E-05,-0.002883911,0,
00:06.1,0.000595093,-5.15E-05,-0.002866745,0,
00:06.1,0.000595093,-5.15E-05,-0.002872467,0,
00:06.1,0.000577927,-5.15E-05,-0.002861023,0,
00:06.1,0.000577927,-5.72E-05,-0.002861023,0,
00:06.1,0.000583649,-4.58E-05,-0.002861023,0,
00:06.1,0.000583649,-4.58E-05,-0.002866745,0,
00:06.1,0.000589371,-5.72E-05,-0.002866745,0,
00:06.1,0.000600815,-4.58E-05,-0.002866745,0,
00:06.1,0.000583649,-3.43E-05,-0.002872467,0,
00:06.1,0.000577927,-2.86E-05,-0.002866745,0,
00:06.1,0.000566483,-4.58E-05,-0.002861023,0,
00:06.2,0.00056076,-5.15E-05,-0.002849579,0,
00:06.2,0.000566483,-5.72E-05,-0.002849579,0,
00:06.2,0.000577927,-3.43E-05,-0.002849579,0,
00:06.2,0.000577927,-2.86E-05,-0.002843857,0,
00:06.2,0.000577927,-3.43E-05,-0.002849579,0,
00:06.2,0.000577927,-2.86E-05,-0.002838135,0,
00:06.2,0.000577927,-2.29E-05,-0.002838135,0,
00:06.2,0.000566483,-2.86E-05,-0.002849579,0,
00:06.2,0.000566483,-2.86E-05,-0.002849579,0,
00:06.2,0.000566483,-1.72E-05,-0.002838135,0,
00:06.2,0.000572205,-2.29E-05,-0.002826691,0,
00:06.2,0.000566483,-2.86E-05,-0.002826691,0,
00:06.2,0.000572205,-1.72E-05,-0.002820969,0,
00:06.2,0.000577927,-1.72E-05,-0.002832413,0,
00:06.2,0.000577927,-2.29E-05,-0.002832413,0,
00:06.2,0.000566483,-2.29E-05,-0.002820969,0,
00:06.2,0.000572205,-2.29E-05,-0.002826691,0,
00:06.2,0.000572205,-2.86E-05,-0.002832413,0,
00:06.2,0.000572205,-2.29E-05,-0.002826691,0,
00:06.2,0.000572205,-2.29E-05,-0.002820969,0,
00:06.2,0.000583649,-1.72E-05,-0.002815247,0,
00:06.2,0.000577927,-4.58E-05,-0.002820969,0,
00:06.2,0.000555038,-2.86E-05,-0.002815247,0,
00:06.2,0.000566483,0,-0.002803802,0,
00:06.2,0.000572205,-5.72E-06,-0.002815247,0,
00:06.3,0.000572205,-2.86E-05,-0.00279808,0,
00:06.3,0.000566483,-3.43E-05,-0.00279808,0,
00:06.3,0.00056076,-1.72E-05,-0.002792358,0,
00:06.3,0.00056076,-1.14E-05,-0.00279808,0,
00:06.3,0.00056076,-1.72E-05,-0.002786636,0,
00:06.3,0.00056076,-1.72E-05,-0.002775192,0,
00:06.3,0.000543594,-1.14E-05,-0.002780914,0,
00:06.3,0.000555038,-1.14E-05,-0.002786636,0,
00:06.3,0.00056076,-1.72E-05,-0.002792358,0,
00:06.3,0.000549316,-1.72E-05,-0.002786636,0,
00:06.3,0.000543594,-1.14E-05,-0.002780914,0,
00:06.3,0.000543594,-1.14E-05,-0.002786636,0,
00:06.3,0.000549316,-1.14E-05,-0.002786636,0,
00:06.3,0.000543594,-5.72E-06,-0.002786636,0,
00:06.3,0.000549316,-5.72E-06,-0.002792358,0,
00:06.3,0.000549316,-1.14E-05,-0.002763748,0,
00:06.3,0.000543594,-1.72E-05,-0.002763748,0,
00:06.3,0.000549316,-1.72E-05,-0.00276947,0,
00:06.3,0.000549316,-2.29E-05,-0.002775192,0,
00:06.3,0.000537872,-1.72E-05,-0.002780914,0,
00:06.3,0.00053215,-1.72E-05,-0.002763748,0,
00:06.3,0.000549316,-5.72E-06,-0.00276947,0,
00:06.3,0.000537872,-5.72E-06,-0.002758026,0,
00:06.3,0.000549316,-5.72E-06,-0.002758026,0,
00:06.3,0.000537872,0,-0.002752304,0,
00:06.4,0.000526428,-5.72E-06,-0.002746582,0,
00:06.4,0.00053215,0,-0.002746582,0,
00:06.4,0.000526428,0,-0.002752304,0,
00:06.4,0.000520706,-1.14E-05,-0.002752304,0,
00:06.4,0.000520706,-1.14E-05,-0.00274086,0,
00:06.4,0.000526428,-5.72E-06,-0.002735138,0,
00:06.4,0.00053215,-5.72E-06,-0.002735138,0,
00:06.4,0.000526428,-5.72E-06,-0.002735138,0,
00:06.4,0.000520706,0,-0.00274086,0,
00:06.4,0.000526428,0,-0.002746582,0,
00:06.4,0.000520706,-5.72E-06,-0.002746582,0,
00:06.4,0.00053215,0,-0.002746582,0,
00:06.4,0.000520706,-5.72E-06,-0.002746582,0,
00:06.4,0.000514984,0,-0.002735138,0,
00:06.4,0.000520706,1.14E-05,-0.002717972,0,
00:06.4,0.000520706,5.72E-06,-0.002706528,0,
00:06.4,0.00053215,1.14E-05,-0.002717972,0,
00:06.4,0.000509262,1.72E-05,-0.002729416,0,
00:06.4,0.000526428,2.86E-05,-0.002735138,0,
00:06.4,0.000526428,2.29E-05,-0.002729416,0,
00:06.4,0.000526428,5.72E-06,-0.002700806,0,
00:06.4,0.000514984,5.72E-06,-0.002706528,0,
00:06.4,0.000520706,1.72E-05,-0.002717972,0,
00:06.4,0.000509262,1.14E-05,-0.002706528,0,
00:06.4,0.000509262,5.72E-06,-0.002695084,0,
00:06.5,0.00050354,0,-0.002689362,0,
00:06.5,0.000520706,5.72E-06,-0.002700806,0,
00:06.5,0.000514984,5.72E-06,-0.00271225,0,
00:06.5,0.000509262,2.29E-05,-0.002706528,0,
00:06.5,0.00050354,1.72E-05,-0.002695084,0,
00:06.5,0.000509262,1.72E-05,-0.002689362,0,
00:06.5,0.000514984,2.29E-05,-0.002689362,0,
00:06.5,0.00050354,1.72E-05,-0.002706528,0,
00:06.5,0.000509262,1.72E-05,-0.002695084,0,
00:06.5,0.000497818,5.72E-06,-0.002677917,0,
00:06.5,0.00050354,1.72E-05,-0.002672195,0,
00:06.5,0.00050354,2.29E-05,-0.002666473,0,
00:06.5,0.000509262,2.29E-05,-0.002677917,0,
00:06.5,0.000497818,3.43E-05,-0.002672195,0,
00:06.5,0.00050354,3.43E-05,-0.002695084,0,
00:06.5,0.000509262,2.29E-05,-0.002666473,0,
00:06.5,0.00050354,1.14E-05,-0.002649307,0,
00:06.5,0.000497818,1.72E-05,-0.002655029,0,
00:06.5,0.00050354,2.29E-05,-0.002666473,0,
00:06.5,0.00050354,2.29E-05,-0.002660751,0,
00:06.5,0.00050354,2.29E-05,-0.002660751,0,
00:06.5,0.000497818,2.86E-05,-0.002655029,0,
00:06.5,0.000492096,2.29E-05,-0.002666473,0,
00:06.5,0.000486374,2.29E-05,-0.002660751,0,
00:06.5,0.00050354,2.29E-05,-0.002655029,0,
00:06.6,0.000492096,1.72E-05,-0.002655029,0,
00:06.6,0.000492096,1.72E-05,-0.002655029,0,
00:06.6,0.000497818,2.29E-05,-0.002649307,0,
00:06.6,0.000497818,3.43E-05,-0.002643585,0,
00:06.6,0.000509262,2.86E-05,-0.002643585,0,
00:06.6,0.00050354,1.72E-05,-0.002643585,0,
00:06.6,0.00047493,2.86E-05,-0.002637863,0,
00:06.6,0.000486374,4.01E-05,-0.002632141,0,
00:06.6,0.000480652,4.01E-05,-0.002626419,0,
00:06.6,0.000492096,4.01E-05,-0.002632141,0,
00:06.6,0.000497818,2.86E-05,-0.002620697,0,
00:06.6,0.000497818,3.43E-05,-0.002632141,0,
00:06.6,0.000492096,2.86E-05,-0.002626419,0,
00:06.6,0.000486374,4.01E-05,-0.002614975,0,
00:06.6,0.000486374,4.01E-05,-0.002614975,0,
00:06.6,0.000486374,3.43E-05,-0.002614975,0,
00:06.6,0.000469208,4.01E-05,-0.002626419,0,
00:06.6,0.000480652,3.43E-05,-0.002620697,0,
00:06.6,0.00047493,3.43E-05,-0.002609253,0,
00:06.6,0.000469208,2.86E-05,-0.002620697,0,
00:06.6,0.000486374,3.43E-05,-0.002620697,0,
00:06.6,0.00047493,4.01E-05,-0.002614975,0,
00:06.6,0.000469208,4.58E-05,-0.002614975,0,
00:06.6,0.000480652,4.01E-05,-0.002614975,0,
00:06.6,0.000469208,2.29E-05,-0.002614975,0,
00:06.7,0.00047493,5.72E-05,-0.002603531,0,
00:06.7,0.00047493,5.15E-05,-0.002603531,0,
00:06.7,0.000463486,4.58E-05,-0.002597809,0,
00:06.7,0.00047493,5.15E-05,-0.002592087,0,
00:06.7,0.000480652,5.15E-05,-0.002603531,0,
00:06.7,0.000469208,5.72E-05,-0.002586365,0,
00:06.7,0.000452042,4.01E-05,-0.002580643,0,
00:06.7,0.000457764,4.01E-05,-0.002597809,0,
00:06.7,0.000457764,4.58E-05,-0.002592087,0,
00:06.7,0.000452042,3.43E-05,-0.002569199,0,
00:06.7,0.000457764,4.58E-05,-0.002557755,0,
00:06.7,0.000463486,5.15E-05,-0.002574921,0,
00:06.7,0.000457764,5.15E-05,-0.002586365,0,
00:06.7,0.000452042,4.01E-05,-0.002580643,0,
00:06.7,0.000452042,3.43E-05,-0.002580643,0,
00:06.7,0.000492096,4.58E-05,-0.002563477,0,
00:06.7,0.000463486,4.01E-05,-0.002574921,0,
00:06.7,0.00044632,4.01E-05,-0.002569199,0,
00:06.7,0.000440598,3.43E-05,-0.002557755,0,
00:06.7,0.00044632,3.43E-05,-0.002557755,0,
00:06.7,0.000452042,3.43E-05,-0.002552032,0,
00:06.7,0.000463486,4.01E-05,-0.00254631,0,
00:06.7,0.000440598,4.58E-05,-0.002552032,0,
00:06.7,0.00044632,4.58E-05,-0.002540588,0,
00:06.7,0.000457764,4.01E-05,-0.002529144,0,
00:06.8,0.000452042,4.58E-05,-0.002540588,0,
00:06.8,0.000452042,4.01E-05,-0.002534866,0,
00:06.8,0.00044632,4.01E-05,-0.002540588,0,
00:06.8,0.000440598,4.58E-05,-0.00254631,0,
00:06.8,0.00044632,4.01E-05,-0.002540588,0,
00:06.8,0.000452042,5.15E-05,-0.002540588,0,
00:06.8,0.00044632,5.15E-05,-0.002534866,0,
00:06.8,0.00044632,5.72E-05,-0.002523422,0,
00:06.8,0.00044632,4.58E-05,-0.002540588,0,
00:06.8,0.000429153,4.58E-05,-0.002540588,0,
00:06.8,0.000429153,5.72E-05,-0.002511978,0,
00:06.8,0.000429153,4.58E-05,-0.002511978,0,
00:06.8,0.000434875,4.58E-05,-0.0025177,0,
00:06.8,0.000440598,5.15E-05,-0.002523422,0,
00:06.8,0.000440598,5.15E-05,-0.002523422,0,
00:06.8,0.000423431,4.58E-05,-0.0025177,0,
00:06.8,0.000440598,5.15E-05,-0.002506256,0,
00:06.8,0.000440598,5.72E-05,-0.002511978,0,
00:06.8,0.00044632,5.72E-05,-0.002511978,0,
00:06.8,0.000434875,4.58E-05,-0.0025177,0,
00:06.8,0.000429153,4.58E-05,-0.002500534,0,
00:06.8,0.000429153,5.15E-05,-0.0025177,0,
00:06.8,0.000434875,5.15E-05,-0.002523422,0,
00:06.8,0.000423431,4.58E-05,-0.0025177,0,
00:06.8,0.000429153,5.72E-05,-0.002506256,0,
00:06.9,0.000429153,4.58E-05,-0.002494812,0,
00:06.9,0.000440598,4.58E-05,-0.002511978,0,
00:06.9,0.00044632,6.87E-05,-0.002506256,0,
00:06.9,0.000434875,6.29E-05,-0.002500534,0,
00:06.9,0.000440598,5.72E-05,-0.002511978,0,
00:06.9,0.000434875,5.15E-05,-0.002500534,0,
00:06.9,0.000429153,4.58E-05,-0.002483368,0,
00:06.9,0.000429153,5.72E-05,-0.00248909,0,
00:06.9,0.000434875,5.72E-05,-0.002483368,0,
00:06.9,0.000434875,4.58E-05,-0.002500534,0,
00:06.9,0.000434875,4.58E-05,-0.00248909,0,
00:06.9,0.000429153,4.58E-05,-0.002477646,0,
00:06.9,0.000417709,4.58E-05,-0.00248909,0,
00:06.9,0.000417709,5.15E-05,-0.002483368,0,
00:06.9,0.000417709,5.72E-05,-0.002477646,0,
00:06.9,0.000417709,5.15E-05,-0.002471924,0,
00:06.9,0.000423431,4.58E-05,-0.002471924,0,
00:06.9,0.000429153,4.58E-05,-0.00248909,0,
00:06.9,0.000406265,5.15E-05,-0.002483368,0,
00:06.9,0.000400543,5.72E-05,-0.002471924,0,
00:06.9,0.000411987,5.15E-05,-0.002477646,0,
00:06.9,0.000411987,5.15E-05,-0.002454758,0,
00:06.9,0.000423431,5.15E-05,-0.002449036,0,
00:06.9,0.000406265,4.58E-05,-0.00246048,0,
00:06.9,0.000417709,5.72E-05,-0.002454758,0,
00:07.0,0.000411987,5.15E-05,-0.002454758,0,
00:07.0,0.000406265,5.72E-05,-0.002454758,0,
00:07.0,0.000400543,5.15E-05,-0.002449036,0,
00:07.0,0.000417709,5.72E-05,-0.002454758,0,
00:07.0,0.000417709,5.15E-05,-0.00246048,0,
00:07.0,0.000411987,4.58E-05,-0.002443314,0,
00:07.0,0.000423431,6.29E-05,-0.002443314,0,
00:07.0,0.000411987,5.72E-05,-0.00246048,0,
00:07.0,0.000411987,5.72E-05,-0.00246048,0,
00:07.0,0.000417709,6.87E-05,-0.002443314,0,
00:07.0,0.000423431,6.29E-05,-0.002449036,0,
00:07.0,0.000417709,6.29E-05,-0.002443314,0,
00:00:07,0.000406265,5.15E-05,-0.002454758,0,
00:07.0,0.000400543,5.72E-05,-0.002454758,0,
00:07.0,0.000394821,5.72E-05,-0.002443314,0,
00:07.0,0.000400543,5.72E-05,-0.002449036,0,
00:07.0,0.000400543,5.72E-05,-0.002443314,0,
00:07.0,0.000394821,5.15E-05,-0.002449036,0,
00:07.0,0.000406265,5.72E-05,-0.002437592,0,
00:07.0,0.000406265,5.15E-05,-0.002426147,0,
00:07.0,0.000411987,5.72E-05,-0.00243187,0,
00:07.0,0.000400543,4.58E-05,-0.002426147,0,
00:07.0,0.000406265,4.58E-05,-0.002420425,0,
00:07.0,0.000394821,6.29E-05,-0.00243187,0,
00:07.0,0.000400543,7.44E-05,-0.002426147,0,
00:07.1,0.000417709,6.87E-05,-0.00243187,0,
00:07.1,0.000411987,5.72E-05,-0.002420425,0,
00:07.1,0.000411987,6.87E-05,-0.002420425,0,
00:07.1,0.000406265,6.87E-05,-0.002420425,0,
00:07.1,0.000411987,6.29E-05,-0.002426147,0,
00:07.1,0.000400543,6.29E-05,-0.002420425,0,
00:07.1,0.000400543,6.29E-05,-0.002408981,0,
00:07.1,0.000406265,6.29E-05,-0.002414703,0,
00:07.1,0.000400543,5.72E-05,-0.002437592,0,
00:07.1,0.000400543,6.29E-05,-0.002443314,0,
00:07.1,0.000383377,5.15E-05,-0.002426147,0,
00:07.1,0.000383377,5.15E-05,-0.002397537,0,
00:07.1,0.000406265,6.29E-05,-0.002397537,0,
00:07.1,0.000406265,7.44E-05,-0.002408981,0,
00:07.1,0.000394821,6.29E-05,-0.002414703,0,
00:07.1,0.000394821,5.72E-05,-0.002403259,0,
00:07.1,0.000394821,4.58E-05,-0.002397537,0,
00:07.1,0.000389099,5.15E-05,-0.002403259,0,
00:07.1,0.000394821,6.87E-05,-0.002408981,0,
00:07.1,0.000406265,7.44E-05,-0.002408981,0,
00:07.1,0.000406265,6.87E-05,-0.002414703,0,
00:07.1,0.000400543,5.72E-05,-0.002420425,0,
00:07.1,0.000389099,6.29E-05,-0.002397537,0,
00:07.1,0.000389099,5.72E-05,-0.002403259,0,
00:07.1,0.000400543,5.72E-05,-0.002408981,0,
00:07.2,0.000383377,6.29E-05,-0.002380371,0,
00:07.2,0.000383377,6.87E-05,-0.002374649,0,
00:07.2,0.000389099,6.87E-05,-0.002391815,0,
00:07.2,0.000394821,6.29E-05,-0.002403259,0,
00:07.2,0.000383377,6.29E-05,-0.002414703,0,
00:07.2,0.000371933,5.72E-05,-0.002397537,0,
00:07.2,0.000383377,6.29E-05,-0.002386093,0,
00:07.2,0.000383377,6.29E-05,-0.002397537,0,
00:07.2,0.000389099,6.87E-05,-0.002391815,0,
00:07.2,0.000383377,7.44E-05,-0.002380371,0,
00:07.2,0.000377655,6.87E-05,-0.002374649,0,
00:07.2,0.000383377,6.87E-05,-0.002374649,0,
00:07.2,0.000366211,5.15E-05,-0.002368927,0,
00:07.2,0.000371933,6.29E-05,-0.002363205,0,
00:07.2,0.000366211,6.87E-05,-0.002363205,0,
00:07.2,0.000366211,5.72E-05,-0.002363205,0,
00:07.2,0.000371933,6.29E-05,-0.002363205,0,
00:07.2,0.000366211,7.44E-05,-0.002357483,0,
00:07.2,0.000371933,8.01E-05,-0.002351761,0,
00:07.2,0.000371933,7.44E-05,-0.002357483,0,
00:07.2,0.000377655,6.87E-05,-0.002357483,0,
00:07.2,0.000366211,6.29E-05,-0.002357483,0,
00:07.2,0.000354767,6.29E-05,-0.002351761,0,
00:07.2,0.000360489,6.87E-05,-0.002363205,0,
00:07.2,0.000360489,7.44E-05,-0.002363205,0,
00:07.3,0.000366211,7.44E-05,-0.002363205,0,
00:07.3,0.000360489,8.01E-05,-0.002351761,0,
00:07.3,0.000360489,7.44E-05,-0.002357483,0,
00:07.3,0.000366211,8.01E-05,-0.002363205,0,
00:07.3,0.000354767,8.58E-05,-0.002357483,0,
00:07.3,0.000354767,8.01E-05,-0.002357483,0,
00:07.3,0.000360489,7.44E-05,-0.002351761,0,
00:07.3,0.000354767,7.44E-05,-0.002351761,0,
00:07.3,0.000343323,7.44E-05,-0.002351761,0,
00:07.3,0.000354767,7.44E-05,-0.002346039,0,
00:07.3,0.000377655,8.01E-05,-0.002351761,0,
00:07.3,0.000354767,6.29E-05,-0.002346039,0,
00:07.3,0.000354767,7.44E-05,-0.002346039,0,
00:07.3,0.000360489,9.16E-05,-0.002340317,0,
00:07.3,0.000349045,8.58E-05,-0.002334595,0,
00:07.3,0.000349045,8.58E-05,-0.002334595,0,
00:07.3,0.000354767,6.87E-05,-0.002340317,0,
00:07.3,0.000354767,8.01E-05,-0.002340317,0,
00:07.3,0.000349045,8.58E-05,-0.002334595,0,
00:07.3,0.000343323,8.58E-05,-0.002340317,0,
00:07.3,0.000349045,8.58E-05,-0.002346039,0,
00:07.3,0.000343323,8.01E-05,-0.002323151,0,
00:07.3,0.000343323,8.58E-05,-0.002323151,0,
00:07.3,0.000343323,8.58E-05,-0.002328873,0,
00:07.3,0.000337601,8.58E-05,-0.002311707,0,
00:07.4,0.000349045,8.01E-05,-0.002311707,0,
00:07.4,0.000349045,8.01E-05,-0.002311707,0,
00:07.4,0.000343323,8.01E-05,-0.002328873,0,
00:07.4,0.000360489,8.58E-05,-0.002334595,0,
00:07.4,0.000354767,7.44E-05,-0.002334595,0,
00:07.4,0.000337601,7.44E-05,-0.002311707,0,
00:07.4,0.000331879,8.58E-05,-0.002300262,0,
00:07.4,0.000331879,9.73E-05,-0.002317429,0,
00:07.4,0.000331879,8.01E-05,-0.002323151,0,
00:07.4,0.000337601,9.16E-05,-0.002317429,0,
00:07.4,0.000337601,8.58E-05,-0.002311707,0,
00:07.4,0.000331879,8.01E-05,-0.002305984,0,
00:07.4,0.000331879,8.58E-05,-0.00229454,0,
00:07.4,0.000331879,8.58E-05,-0.002300262,0,
00:07.4,0.000331879,8.01E-05,-0.002305984,0,
00:07.4,0.000326157,8.01E-05,-0.00229454,0,
00:07.4,0.000331879,7.44E-05,-0.002288818,0,
00:07.4,0.000331879,8.01E-05,-0.002305984,0,
00:07.4,0.000331879,8.01E-05,-0.002305984,0,
00:07.4,0.000331879,8.58E-05,-0.002305984,0,
00:07.4,0.000314713,9.16E-05,-0.002300262,0,
00:07.4,0.000314713,8.58E-05,-0.00229454,0,
00:07.4,0.000326157,8.58E-05,-0.00229454,0,
00:07.4,0.000337601,8.58E-05,-0.002311707,0,
00:07.4,0.000326157,7.44E-05,-0.002311707,0,
00:07.5,0.000326157,8.58E-05,-0.002300262,0,
00:07.5,0.000320435,8.58E-05,-0.002283096,0,
00:07.5,0.000314713,9.16E-05,-0.002300262,0,
00:07.5,0.000331879,9.73E-05,-0.002300262,0,
00:07.5,0.000331879,9.16E-05,-0.002305984,0,
00:07.5,0.000303268,9.73E-05,-0.002283096,0,
00:07.5,0.000303268,9.16E-05,-0.002283096,0,
00:07.5,0.000320435,9.16E-05,-0.002271652,0,
00:07.5,0.000314713,9.73E-05,-0.002283096,0,
00:07.5,0.00030899,9.16E-05,-0.002288818,0,
00:07.5,0.000314713,9.16E-05,-0.002288818,0,
00:07.5,0.000314713,9.16E-05,-0.00229454,0,
00:07.5,0.000314713,9.16E-05,-0.002288818,0,
00:07.5,0.000303268,8.58E-05,-0.00226593,0,
00:07.5,0.00030899,9.73E-05,-0.00226593,0,
00:07.5,0.00030899,9.73E-05,-0.002277374,0,
00:07.5,0.000314713,9.73E-05,-0.002283096,0,
00:07.5,0.000303268,9.73E-05,-0.002277374,0,
00:07.5,0.000297546,0.000102997,-0.00226593,0,
00:07.5,0.000286102,9.73E-05,-0.002277374,0,
00:07.5,0.000286102,9.73E-05,-0.002271652,0,
00:07.5,0.000297546,9.73E-05,-0.00226593,0,
00:07.5,0.000297546,9.73E-05,-0.002271652,0,
00:07.5,0.000291824,9.73E-05,-0.002288818,0,
00:07.5,0.000297546,8.58E-05,-0.002283096,0,
00:07.6,0.000297546,0.000102997,-0.002271652,0,
00:07.6,0.000297546,0.000108719,-0.002260208,0,
00:07.6,0.000286102,9.73E-05,-0.002254486,0,
00:07.6,0.000297546,0.000102997,-0.002271652,0,
00:07.6,0.000297546,0.000108719,-0.002277374,0,
00:07.6,0.000274658,0.000102997,-0.002254486,0,
00:07.6,0.000286102,0.000108719,-0.002254486,0,
00:07.6,0.000291824,0.000102997,-0.002260208,0,
00:07.6,0.000291824,0.000102997,-0.002271652,0,
00:07.6,0.000286102,0.000108719,-0.002254486,0,
00:07.6,0.000286102,9.73E-05,-0.002248764,0,
00:07.6,0.000286102,9.73E-05,-0.002254486,0,
00:07.6,0.00028038,9.16E-05,-0.00223732,0,
00:07.6,0.00028038,0.000102997,-0.002248764,0,
00:07.6,0.000286102,0.000102997,-0.002254486,0,
00:07.6,0.000286102,9.73E-05,-0.002248764,0,
00:07.6,0.00028038,9.16E-05,-0.002243042,0,
00:07.6,0.00028038,9.73E-05,-0.002254486,0,
00:07.6,0.000286102,9.73E-05,-0.00226593,0,
00:07.6,0.000274658,9.73E-05,-0.002254486,0,
00:07.6,0.00028038,9.73E-05,-0.00223732,0,
00:07.6,0.000297546,8.58E-05,-0.002248764,0,
00:07.6,0.000286102,0.000114441,-0.002231598,0,
00:07.6,0.00028038,0.000120163,-0.00223732,0,
00:07.6,0.000286102,0.000120163,-0.002243042,0,
00:07.7,0.00028038,0.000108719,-0.002243042,0,
00:07.7,0.000268936,0.000102997,-0.002248764,0,
00:07.7,0.000274658,0.000102997,-0.002243042,0,
00:07.7,0.000268936,0.000114441,-0.00223732,0,
00:07.7,0.000268936,0.000108719,-0.00223732,0,
00:07.7,0.000268936,0.000108719,-0.002225876,0,
00:07.7,0.000263214,0.000102997,-0.002220154,0,
00:07.7,0.000268936,0.000102997,-0.002231598,0,
00:07.7,0.000274658,0.000102997,-0.002225876,0,
00:07.7,0.000268936,0.000102997,-0.00223732,0,
00:07.7,0.000268936,0.000102997,-0.002231598,0,
00:07.7,0.000257492,0.000108719,-0.002225876,0,
00:07.7,0.000257492,0.000108719,-0.002220154,0,
00:07.7,0.000263214,0.000108719,-0.002214432,0,
00:07.7,0.000263214,0.000114441,-0.002220154,0,
00:07.7,0.000263214,0.000108719,-0.002225876,0,
00:07.7,0.000263214,0.000108719,-0.002220154,0,
00:07.7,0.00025177,0.000102997,-0.002214432,0,
00:07.7,0.000246048,0.000114441,-0.002225876,0,
00:07.7,0.00025177,0.000120163,-0.002220154,0,
00:07.7,0.000257492,0.000120163,-0.002220154,0,
00:07.7,0.000274658,0.000120163,-0.002225876,0,
00:07.7,0.000268936,0.000125885,-0.002225876,0,
00:07.7,0.00025177,0.000120163,-0.002225876,0,
00:07.7,0.000240326,0.000108719,-0.002220154,0,
00:07.8,0.000246048,0.000108719,-0.002202988,0,
00:07.8,0.00025177,0.000114441,-0.00220871,0,
00:07.8,0.00025177,0.000120163,-0.002202988,0,
00:07.8,0.00025177,0.000125885,-0.002191544,0,
00:07.8,0.00025177,0.000125885,-0.002202988,0,
00:07.8,0.000257492,0.000120163,-0.002197266,0,
00:07.8,0.000257492,0.000120163,-0.002202988,0,
00:07.8,0.00025177,0.000120163,-0.00220871,0,
00:07.8,0.000246048,0.000120163,-0.002197266,0,
00:07.8,0.00025177,0.000114441,-0.002191544,0,
00:07.8,0.000234604,0.000108719,-0.002174377,0,
00:07.8,0.000240326,0.000108719,-0.002180099,0,
00:07.8,0.000240326,0.000114441,-0.002191544,0,
00:07.8,0.000234604,0.000114441,-0.00220871,0,
00:07.8,0.000263214,0.000131607,-0.002214432,0,
00:07.8,0.000257492,0.000120163,-0.002185822,0,
00:07.8,0.000228882,0.000114441,-0.002180099,0,
00:07.8,0.00022316,0.000102997,-0.002180099,0,
00:07.8,0.000228882,0.000114441,-0.002185822,0,
00:07.8,0.000234604,0.000114441,-0.002180099,0,
00:07.8,0.000234604,0.000114441,-0.002180099,0,
00:07.8,0.000228882,0.000120163,-0.002191544,0,
00:07.8,0.000217438,0.000125885,-0.002185822,0,
00:07.8,0.000217438,0.000125885,-0.002191544,0,
00:07.8,0.000217438,0.000120163,-0.002191544,0,
00:07.9,0.000228882,0.000125885,-0.002180099,0,
00:07.9,0.000228882,0.000125885,-0.002174377,0,
00:07.9,0.000211716,0.000120163,-0.002174377,0,
00:07.9,0.00022316,0.000120163,-0.002180099,0,
00:07.9,0.000217438,0.000120163,-0.002185822,0,
00:07.9,0.000217438,0.000120163,-0.002185822,0,
00:07.9,0.000211716,0.000120163,-0.002185822,0,
00:07.9,0.00022316,0.000120163,-0.002191544,0,
00:07.9,0.00022316,0.000120163,-0.002191544,0,
00:07.9,0.000217438,0.000131607,-0.002185822,0,
00:07.9,0.000228882,0.000131607,-0.002180099,0,
00:07.9,0.000234604,0.000125885,-0.002191544,0,
00:07.9,0.000205994,0.000114441,-0.002185822,0,
00:07.9,0.000200272,0.000108719,-0.002174377,0,
00:07.9,0.000217438,0.000131607,-0.002174377,0,
00:07.9,0.00022316,0.000131607,-0.002180099,0,
00:07.9,0.000228882,0.000131607,-0.002174377,0,
00:07.9,0.00022316,0.000125885,-0.002214432,0,
00:07.9,0.000211716,0.000131607,-0.002191544,0,
00:07.9,0.000205994,0.000137329,-0.002162933,0,
00:07.9,0.000205994,0.000125885,-0.002157211,0,
00:07.9,0.000200272,0.000120163,-0.002168655,0,
00:07.9,0.000217438,0.000137329,-0.002168655,0,
00:07.9,0.000205994,0.000131607,-0.002168655,0,
00:07.9,0.000205994,0.000131607,-0.002168655,0,
00:08.0,0.000200272,0.000125885,-0.002162933,0,
00:08.0,0.000211716,0.000125885,-0.002168655,0,
00:08.0,0.00022316,0.000125885,-0.002168655,0,
00:08.0,0.000200272,0.000120163,-0.002162933,0,
00:08.0,0.000200272,0.000120163,-0.002157211,0,
00:08.0,0.000217438,0.000125885,-0.002162933,0,
00:08.0,0.000205994,0.000125885,-0.002157211,0,
00:08.0,0.00019455,0.000120163,-0.002151489,0,
00:08.0,0.000205994,0.000131607,-0.002157211,0,
00:08.0,0.000205994,0.000131607,-0.002162933,0,
00:08.0,0.000200272,0.000120163,-0.002162933,0,
00:08.0,0.000200272,0.000131607,-0.002157211,0,
00:00:08,0.000205994,0.000125885,-0.002151489,0,
00:08.0,0.000200272,0.000120163,-0.002157211,0,
00:08.0,0.000200272,0.000125885,-0.002145767,0,
00:08.0,0.000183105,0.000114441,-0.002145767,0,
00:08.0,0.000200272,0.000125885,-0.002140045,0,
00:08.0,0.000200272,0.000131607,-0.002140045,0,
00:08.0,0.000188828,0.000125885,-0.002151489,0,
00:08.0,0.00019455,0.000131607,-0.002157211,0,
00:08.0,0.000200272,0.000137329,-0.002157211,0,
00:08.0,0.000200272,0.000137329,-0.002157211,0,
00:08.0,0.000183105,0.000131607,-0.002151489,0,
00:08.0,0.000171661,0.000120163,-0.002151489,0,
00:08.0,0.000188828,0.000131607,-0.002151489,0,
00:08.1,0.00019455,0.000131607,-0.002151489,0,
00:08.1,0.00019455,0.000131607,-0.002145767,0,
00:08.1,0.000183105,0.000137329,-0.002134323,0,
00:08.1,0.000177383,0.000137329,-0.002145767,0,
00:08.1,0.000171661,0.000131607,-0.002145767,0,
00:08.1,0.000177383,0.000131607,-0.002140045,0,
00:08.1,0.000177383,0.000137329,-0.002128601,0,
00:08.1,0.000177383,0.000143051,-0.002128601,0,
00:08.1,0.000177383,0.000143051,-0.002140045,0,
00:08.1,0.000183105,0.000137329,-0.002145767,0,
00:08.1,0.000171661,0.000131607,-0.002134323,0,
00:08.1,0.000171661,0.000120163,-0.002128601,0,
00:08.1,0.000171661,0.000137329,-0.002122879,0,
00:08.1,0.000171661,0.000137329,-0.002134323,0,
00:08.1,0.000183105,0.000137329,-0.002145767,0,
00:08.1,0.000183105,0.000143051,-0.002145767,0,
00:08.1,0.000165939,0.000137329,-0.002151489,0,
00:08.1,0.000154495,0.000131607,-0.002145767,0,
00:08.1,0.000160217,0.000137329,-0.002111435,0,
00:08.1,0.000160217,0.000137329,-0.002122879,0,
00:08.1,0.000165939,0.000131607,-0.002128601,0,
00:08.1,0.000160217,0.000137329,-0.002134323,0,
00:08.1,0.000160217,0.000143051,-0.002134323,0,
00:08.1,0.000171661,0.000160217,-0.002117157,0,
00:08.1,0.000165939,0.000143051,-0.002128601,0,
00:08.2,0.000154495,0.000143051,-0.002122879,0,
00:08.2,0.000154495,0.000143051,-0.002128601,0,
00:08.2,0.000148773,0.000148773,-0.002122879,0,
00:08.2,0.000154495,0.000154495,-0.002128601,0,
00:08.2,0.000154495,0.000143051,-0.002111435,0,
00:08.2,0.000160217,0.000160217,-0.002117157,0,
00:08.2,0.000160217,0.000154495,-0.002117157,0,
00:08.2,0.000160217,0.000154495,-0.002099991,0,
00:08.2,0.000148773,0.000148773,-0.002111435,0,
00:08.2,0.000154495,0.000154495,-0.002117157,0,
00:08.2,0.000160217,0.000148773,-0.002117157,0,
00:08.2,0.000160217,0.000154495,-0.002105713,0,
00:08.2,0.000154495,0.000148773,-0.002111435,0,
00:08.2,0.000148773,0.000148773,-0.002117157,0,
00:08.2,0.000165939,0.000148773,-0.002111435,0,
00:08.2,0.000160217,0.000148773,-0.002105713,0,
00:08.2,0.000143051,0.000148773,-0.002094269,0,
00:08.2,0.000143051,0.000137329,-0.002094269,0,
00:08.2,0.000154495,0.000154495,-0.002094269,0,
00:08.2,0.000154495,0.000154495,-0.002088547,0,
00:08.2,0.000160217,0.000154495,-0.002094269,0,
00:08.2,0.000160217,0.000160217,-0.002099991,0,
00:08.2,0.000148773,0.000160217,-0.002094269,0,
00:08.2,0.000160217,0.000165939,-0.002105713,0,
00:08.2,0.000148773,0.000160217,-0.002099991,0,
00:08.3,0.000143051,0.000148773,-0.002088547,0,
00:08.3,0.000143051,0.000143051,-0.002088547,0,
00:08.3,0.000137329,0.000143051,-0.002077103,0,
00:08.3,0.000148773,0.000143051,-0.002088547,0,
00:08.3,0.000143051,0.000137329,-0.002088547,0,
00:08.3,0.000143051,0.000154495,-0.002094269,0,
00:08.3,0.000143051,0.000160217,-0.002088547,0,
00:08.3,0.000131607,0.000143051,-0.002088547,0,
00:08.3,0.000137329,0.000148773,-0.002082825,0,
00:08.3,0.000143051,0.000154495,-0.002088547,0,
00:08.3,0.000148773,0.000154495,-0.002094269,0,
00:08.3,0.000148773,0.000148773,-0.002099991,0,
00:08.3,0.000131607,0.000148773,-0.002082825,0,
00:08.3,0.000137329,0.000154495,-0.002077103,0,
00:08.3,0.000143051,0.000160217,-0.002082825,0,
00:08.3,0.000143051,0.000160217,-0.002082825,0,
00:08.3,0.000143051,0.000165939,-0.002071381,0,
00:08.3,0.000148773,0.000165939,-0.002082825,0,
00:08.3,0.000154495,0.000171661,-0.002099991,0,
00:08.3,0.000143051,0.000171661,-0.002082825,0,
00:08.3,0.000131607,0.000171661,-0.002082825,0,
00:08.3,0.000137329,0.000165939,-0.002065659,0,
00:08.3,0.000120163,0.000165939,-0.002059937,0,
00:08.3,0.000131607,0.000177383,-0.002077103,0,
00:08.3,0.000131607,0.000177383,-0.002071381,0,
00:08.4,0.000131607,0.000177383,-0.002065659,0,
00:08.4,0.000125885,0.000165939,-0.002071381,0,
00:08.4,0.000125885,0.000160217,-0.002065659,0,
00:08.4,0.000137329,0.000183105,-0.002082825,0,
00:08.4,0.000125885,0.000171661,-0.002071381,0,
00:08.4,0.000114441,0.000165939,-0.002059937,0,
00:08.4,0.000120163,0.000160217,-0.002054214,0,
00:08.4,0.000120163,0.000160217,-0.00204277,0,
00:08.4,0.000131607,0.000171661,-0.002054214,0,
00:08.4,0.000131607,0.000171661,-0.002054214,0,
00:08.4,0.000120163,0.000165939,-0.00204277,0,
00:08.4,0.000125885,0.000165939,-0.002048492,0,
00:08.4,0.000125885,0.000171661,-0.002048492,0,
00:08.4,0.000114441,0.000177383,-0.002048492,0,
00:08.4,0.000114441,0.000171661,-0.002037048,0,
00:08.4,0.000114441,0.000165939,-0.00204277,0,
00:08.4,0.000114441,0.000165939,-0.00204277,0,
00:08.4,0.000120163,0.000177383,-0.00204277,0,
00:08.4,0.000125885,0.000177383,-0.002048492,0,
00:08.4,0.000114441,0.000183105,-0.002048492,0,
00:08.4,0.000114441,0.000177383,-0.00204277,0,
00:08.4,0.000108719,0.000177383,-0.00204277,0,
00:08.4,0.000108719,0.000183105,-0.002048492,0,
00:08.4,9.16E-05,0.000183105,-0.002048492,0,
00:08.4,0.000102997,0.000183105,-0.002025604,0,
00:08.5,0.000108719,0.000188828,-0.002031326,0,
00:08.5,0.000120163,0.000183105,-0.002025604,0,
00:08.5,0.000120163,0.000183105,-0.002054214,0,
00:08.5,0.000102997,0.00019455,-0.00204277,0,
00:08.5,0.000102997,0.000188828,-0.00201416,0,
00:08.5,9.73E-05,0.000183105,-0.00201416,0,
00:08.5,0.000102997,0.00019455,-0.00201416,0,
00:08.5,9.73E-05,0.00019455,-0.002019882,0,
00:08.5,0.000102997,0.00019455,-0.002019882,0,
00:08.5,0.000102997,0.00019455,-0.002019882,0,
00:08.5,0.000102997,0.00019455,-0.002025604,0,
00:08.5,0.000102997,0.000188828,-0.002019882,0,
00:08.5,0.000102997,0.000188828,-0.002008438,0,
00:08.5,0.000102997,0.000183105,-0.002019882,0,
00:08.5,9.16E-05,0.000183105,-0.002008438,0,
00:08.5,9.16E-05,0.000183105,-0.002002716,0,
00:08.5,0.000120163,0.00019455,-0.00201416,0,
00:08.5,0.000108719,0.000183105,-0.002019882,0,
00:08.5,0.000102997,0.000188828,-0.002019882,0,
00:08.5,9.16E-05,0.000183105,-0.002008438,0,
00:08.5,8.58E-05,0.000171661,-0.00201416,0,
00:08.5,8.01E-05,0.000183105,-0.001996994,0,
00:08.5,9.16E-05,0.00019455,-0.001991272,0,
00:08.5,9.73E-05,0.000188828,-0.001996994,0,
00:08.5,0.000102997,0.00019455,-0.002019882,0,
00:08.6,9.16E-05,0.000188828,-0.002019882,0,
00:08.6,8.58E-05,0.000183105,-0.001996994,0,
00:08.6,8.01E-05,0.000188828,-0.001991272,0,
00:08.6,9.73E-05,0.00019455,-0.001996994,0,
00:08.6,8.58E-05,0.000188828,-0.002002716,0,
00:08.6,9.16E-05,0.000188828,-0.00198555,0,
00:08.6,8.58E-05,0.000188828,-0.001979828,0,
00:08.6,0.000102997,0.000188828,-0.001996994,0,
00:08.6,8.58E-05,0.000188828,-0.001996994,0,
00:08.6,8.01E-05,0.000200272,-0.001991272,0,
00:08.6,9.73E-05,0.000200272,-0.001991272,0,
00:08.6,9.16E-05,0.000200272,-0.001991272,0,
00:08.6,8.58E-05,0.000200272,-0.00198555,0,
00:08.6,9.16E-05,0.000200272,-0.001996994,0,
00:08.6,8.01E-05,0.000200272,-0.001979828,0,
00:08.6,7.44E-05,0.000200272,-0.00198555,0,
00:08.6,7.44E-05,0.000200272,-0.001974106,0,
00:08.6,7.44E-05,0.00019455,-0.001979828,0,
00:08.6,8.01E-05,0.00019455,-0.00198555,0,
00:08.6,7.44E-05,0.000188828,-0.001991272,0,
00:08.6,8.01E-05,0.000188828,-0.00198555,0,
00:08.6,9.16E-05,0.000200272,-0.001979828,0,
00:08.6,9.16E-05,0.00019455,-0.001974106,0,
00:08.6,8.01E-05,0.000200272,-0.001979828,0,
00:08.6,7.44E-05,0.000200272,-0.001979828,0,
00:08.7,8.01E-05,0.00019455,-0.001962662,0,
00:08.7,8.58E-05,0.000205994,-0.001968384,0,
00:08.7,8.58E-05,0.000200272,-0.001968384,0,
00:08.7,8.01E-05,0.00019455,-0.001968384,0,
00:08.7,6.87E-05,0.00019455,-0.001968384,0,
00:08.7,7.44E-05,0.000200272,-0.001968384,0,
00:08.7,8.58E-05,0.000211716,-0.001968384,0,
00:08.7,8.01E-05,0.000200272,-0.001968384,0,
00:08.7,9.16E-05,0.000200272,-0.00198555,0,
00:08.7,6.29E-05,0.00019455,-0.001968384,0,
00:08.7,6.87E-05,0.00019455,-0.00195694,0,
00:08.7,8.01E-05,0.000205994,-0.001968384,0,
00:08.7,7.44E-05,0.000205994,-0.001991272,0,
00:08.7,7.44E-05,0.000200272,-0.001979828,0,
00:08.7,8.01E-05,0.00019455,-0.001962662,0,
00:08.7,7.44E-05,0.000205994,-0.001962662,0,
00:08.7,6.87E-05,0.00019455,-0.00195694,0,
00:08.7,6.29E-05,0.00019455,-0.00195694,0,
00:08.7,6.29E-05,0.000205994,-0.001962662,0,
00:08.7,6.29E-05,0.000205994,-0.001974106,0,
00:08.7,6.29E-05,0.000205994,-0.001962662,0,
00:08.7,8.01E-05,0.000211716,-0.001962662,0,
00:08.7,5.72E-05,0.000200272,-0.001974106,0,
00:08.7,4.01E-05,0.000211716,-0.001968384,0,
00:08.7,5.72E-05,0.000217438,-0.001962662,0,
00:08.8,6.87E-05,0.000217438,-0.00195694,0,
00:08.8,6.87E-05,0.000211716,-0.001945496,0,
00:08.8,7.44E-05,0.000211716,-0.00195694,0,
00:08.8,8.01E-05,0.000211716,-0.00198555,0,
00:08.8,6.29E-05,0.000217438,-0.001968384,0,
00:08.8,5.15E-05,0.000211716,-0.00195694,0,
00:08.8,5.72E-05,0.000211716,-0.001951218,0,
00:08.8,6.29E-05,0.000211716,-0.001945496,0,
00:08.8,5.72E-05,0.000217438,-0.001939774,0,
00:08.8,5.72E-05,0.000211716,-0.001951218,0,
00:08.8,6.87E-05,0.00022316,-0.001945496,0,
00:08.8,6.87E-05,0.000211716,-0.00195694,0,
00:08.8,5.72E-05,0.000217438,-0.001939774,0,
00:08.8,5.72E-05,0.00022316,-0.001939774,0,
00:08.8,4.58E-05,0.000211716,-0.001939774,0,
00:08.8,4.01E-05,0.000211716,-0.001922607,0,
00:08.8,4.01E-05,0.000205994,-0.001922607,0,
00:08.8,4.58E-05,0.000211716,-0.001922607,0,
00:08.8,4.58E-05,0.000217438,-0.001916885,0,
00:08.8,4.58E-05,0.000217438,-0.001916885,0,
00:08.8,4.58E-05,0.000217438,-0.001922607,0,
00:08.8,4.01E-05,0.000205994,-0.001916885,0,
00:08.8,5.15E-05,0.000217438,-0.001922607,0,
00:08.8,5.15E-05,0.000228882,-0.001928329,0,
00:08.8,4.58E-05,0.000228882,-0.001916885,0,
00:08.9,4.01E-05,0.00022316,-0.001916885,0,
00:08.9,4.01E-05,0.000217438,-0.001916885,0,
00:08.9,4.58E-05,0.00022316,-0.001916885,0,
00:08.9,2.86E-05,0.000217438,-0.001922607,0,
00:08.9,4.01E-05,0.00022316,-0.001922607,0,
00:08.9,3.43E-05,0.00022316,-0.001911163,0,
00:08.9,4.01E-05,0.00022316,-0.001905441,0,
00:08.9,4.01E-05,0.00022316,-0.001916885,0,
00:08.9,4.01E-05,0.000228882,-0.001922607,0,
00:08.9,3.43E-05,0.00022316,-0.001916885,0,
00:08.9,2.29E-05,0.000228882,-0.001899719,0,
00:08.9,2.29E-05,0.000217438,-0.001905441,0,
00:08.9,3.43E-05,0.000217438,-0.001911163,0,
00:08.9,3.43E-05,0.000228882,-0.001916885,0,
00:08.9,2.29E-05,0.00022316,-0.001928329,0,
00:08.9,1.72E-05,0.00022316,-0.001905441,0,
00:08.9,3.43E-05,0.00022316,-0.001905441,0,
00:08.9,4.01E-05,0.00022316,-0.001899719,0,
00:08.9,2.86E-05,0.00022316,-0.001905441,0,
00:08.9,2.86E-05,0.00022316,-0.001911163,0,
00:08.9,2.86E-05,0.00022316,-0.001905441,0,
00:08.9,4.01E-05,0.000217438,-0.001905441,0,
00:08.9,3.43E-05,0.00022316,-0.001905441,0,
00:08.9,2.29E-05,0.00022316,-0.001893997,0,
00:08.9,4.01E-05,0.00022316,-0.001893997,0,
00:09.0,1.72E-05,0.000217438,-0.001888275,0,
00:09.0,1.72E-05,0.00022316,-0.001893997,0,
00:09.0,2.29E-05,0.00022316,-0.001893997,0,
00:09.0,2.29E-05,0.000228882,-0.001882553,0,
00:09.0,2.29E-05,0.000228882,-0.001888275,0,
00:09.0,2.86E-05,0.000228882,-0.001893997,0,
00:09.0,2.29E-05,0.00022316,-0.001888275,0,
00:09.0,2.29E-05,0.00022316,-0.001876831,0,
00:09.0,2.29E-05,0.00022316,-0.001899719,0,
00:09.0,2.29E-05,0.000234604,-0.001888275,0,
00:09.0,2.29E-05,0.000234604,-0.001888275,0,
00:09.0,2.29E-05,0.00022316,-0.001888275,0,
00:00:09,1.72E-05,0.000217438,-0.001876831,0,
00:09.0,1.72E-05,0.000228882,-0.001888275,0,
00:09.0,2.86E-05,0.000240326,-0.001888275,0,
00:09.0,1.14E-05,0.00022316,-0.001888275,0,
00:09.0,1.72E-05,0.000228882,-0.001882553,0,
00:09.0,2.29E-05,0.000234604,-0.001888275,0,
00:09.0,2.29E-05,0.000234604,-0.001893997,0,
00:09.0,2.29E-05,0.000228882,-0.001882553,0,
00:09.0,5.72E-06,0.000228882,-0.001848221,0,
00:09.0,1.14E-05,0.000234604,-0.001836777,0,
00:09.0,1.14E-05,0.000234604,-0.001853943,0,
00:09.0,2.29E-05,0.000234604,-0.001865387,0,
00:09.0,2.29E-05,0.000240326,-0.001871109,0,
00:09.1,1.14E-05,0.000228882,-0.001865387,0,
00:09.1,1.14E-05,0.000228882,-0.001859665,0,
00:09.1,5.72E-06,0.000234604,-0.001853943,0,
00:09.1,1.14E-05,0.000234604,-0.001859665,0,
00:09.1,1.14E-05,0.000234604,-0.001871109,0,
00:09.1,0,0.000234604,-0.001865387,0,
00:09.1,1.72E-05,0.000228882,-0.001859665,0,
00:09.1,5.72E-06,0.000228882,-0.001848221,0,
00:09.1,0,0.000228882,-0.001848221,0,
00:09.1,1.14E-05,0.000240326,-0.001848221,0,
00:09.1,1.72E-05,0.000234604,-0.001853943,0,
00:09.1,1.14E-05,0.000234604,-0.001865387,0,
00:09.1,-5.72E-06,0.000228882,-0.001853943,0,
00:09.1,-5.72E-06,0.000240326,-0.001853943,0,
00:09.1,-5.72E-06,0.000234604,-0.001853943,0,
00:09.1,-5.72E-06,0.000234604,-0.001842499,0,
00:09.1,-5.72E-06,0.000234604,-0.001831055,0,
00:09.1,1.14E-05,0.000246048,-0.001842499,0,
00:09.1,1.14E-05,0.00025177,-0.001853943,0,
00:09.1,1.72E-05,0.000246048,-0.001853943,0,
00:09.1,0,0.000234604,-0.001853943,0,
00:09.1,0,0.000240326,-0.001842499,0,
00:09.1,0,0.000246048,-0.001842499,0,
00:09.1,-1.14E-05,0.000240326,-0.001853943,0,
00:09.1,-2.86E-05,0.000234604,-0.001831055,0,
00:09.2,-1.72E-05,0.000240326,-0.001831055,0,
00:09.2,0,0.000240326,-0.001836777,0,
00:09.2,-5.72E-06,0.000240326,-0.001842499,0,
00:09.2,-5.72E-06,0.000246048,-0.001819611,0,
00:09.2,0,0.00025177,-0.001819611,0,
00:09.2,-1.14E-05,0.000240326,-0.001825333,0,
00:09.2,-1.72E-05,0.000240326,-0.001813889,0,
00:09.2,-1.14E-05,0.000246048,-0.001831055,0,
00:09.2,-1.14E-05,0.000246048,-0.001831055,0,
00:09.2,-2.29E-05,0.000234604,-0.001831055,0,
00:09.2,-1.72E-05,0.000240326,-0.001825333,0,
00:09.2,-1.72E-05,0.000240326,-0.001819611,0,
00:09.2,-1.14E-05,0.000240326,-0.001825333,0,
00:09.2,-1.14E-05,0.00025177,-0.001825333,0,
00:09.2,-1.72E-05,0.000240326,-0.001819611,0,
00:09.2,-1.72E-05,0.000240326,-0.001813889,0,
00:09.2,-5.72E-06,0.000246048,-0.001825333,0,
00:09.2,0,0.00025177,-0.001825333,0,
00:09.2,1.14E-05,0.00025177,-0.001842499,0,
00:09.2,-1.72E-05,0.00025177,-0.001831055,0,
00:09.2,-1.14E-05,0.00025177,-0.001813889,0,
00:09.2,-5.72E-06,0.00025177,-0.001808167,0,
00:09.2,-2.29E-05,0.000246048,-0.001796722,0,
00:09.2,-2.86E-05,0.000246048,-0.001808167,0,
00:09.2,-2.86E-05,0.00025177,-0.001808167,0,
00:09.3,-1.72E-05,0.00025177,-0.001802444,0,
00:09.3,-1.72E-05,0.00025177,-0.001796722,0,
00:09.3,-2.29E-05,0.000257492,-0.001802444,0,
00:09.3,-1.72E-05,0.000268936,-0.001808167,0,
00:09.3,-2.29E-05,0.000257492,-0.001802444,0,
00:09.3,-1.72E-05,0.000257492,-0.001802444,0,
00:09.3,-1.72E-05,0.00025177,-0.001813889,0,
00:09.3,-1.72E-05,0.000246048,-0.001802444,0,
00:09.3,-1.72E-05,0.000257492,-0.001796722,0,
00:09.3,-1.72E-05,0.000257492,-0.001802444,0,
00:09.3,-1.72E-05,0.00025177,-0.001808167,0,
00:09.3,-2.29E-05,0.00025177,-0.001785278,0,
00:09.3,-2.86E-05,0.00025177,-0.001785278,0,
00:09.3,-2.29E-05,0.00025177,-0.001791,0,
00:09.3,-1.72E-05,0.00025177,-0.001802444,0,
00:09.3,-1.72E-05,0.00025177,-0.001779556,0,
00:09.3,-3.43E-05,0.000246048,-0.001779556,0,
00:09.3,-4.01E-05,0.000240326,-0.001785278,0,
00:09.3,-4.01E-05,0.00025177,-0.001785278,0,
00:09.3,-3.43E-05,0.000268936,-0.001779556,0,
00:09.3,-2.29E-05,0.000263214,-0.001773834,0,
00:09.3,-4.01E-05,0.000257492,-0.001768112,0,
00:09.3,-3.43E-05,0.000257492,-0.001768112,0,
00:09.3,0,0.000263214,-0.001779556,0,
00:09.3,-3.43E-05,0.000263214,-0.001779556,0,
00:09.4,-4.01E-05,0.000257492,-0.00176239,0,
00:09.4,-3.43E-05,0.000263214,-0.00176239,0,
00:09.4,-3.43E-05,0.000268936,-0.001773834,0,
00:09.4,-4.01E-05,0.000257492,-0.001773834,0,
00:09.4,-4.58E-05,0.000257492,-0.001768112,0,
00:09.4,-4.01E-05,0.000268936,-0.00176239,0,
00:09.4,-4.01E-05,0.000263214,-0.001768112,0,
00:09.4,-4.01E-05,0.000268936,-0.001768112,0,
00:09.4,-4.01E-05,0.000257492,-0.001768112,0,
00:09.4,-4.01E-05,0.000274658,-0.001768112,0,
00:09.4,-4.58E-05,0.000274658,-0.001768112,0,
00:09.4,-4.01E-05,0.000274658,-0.001768112,0,
00:09.4,-5.72E-05,0.000263214,-0.001745224,0,
00:09.4,-4.01E-05,0.00028038,-0.001750946,0,
00:09.4,-4.01E-05,0.00028038,-0.001750946,0,
00:09.4,-4.01E-05,0.000268936,-0.001750946,0,
00:09.4,-4.01E-05,0.000274658,-0.001756668,0,
00:09.4,-5.15E-05,0.000274658,-0.001756668,0,
00:09.4,-4.58E-05,0.00028038,-0.001745224,0,
00:09.4,-5.15E-05,0.00028038,-0.001739502,0,
00:09.4,-4.58E-05,0.00028038,-0.001728058,0,
00:09.4,-2.86E-05,0.000274658,-0.001745224,0,
00:09.4,-4.58E-05,0.00028038,-0.001739502,0,
00:09.4,-6.29E-05,0.000286102,-0.001739502,0,
00:09.4,-6.29E-05,0.000274658,-0.00173378,0,
00:09.5,-5.15E-05,0.00028038,-0.00173378,0,
00:09.5,-6.29E-05,0.00028038,-0.00173378,0,
00:09.5,-6.29E-05,0.00028038,-0.001728058,0,
00:09.5,-5.15E-05,0.000286102,-0.001722336,0,
00:09.5,-5.15E-05,0.000291824,-0.001728058,0,
00:09.5,-4.58E-05,0.000286102,-0.001722336,0,
00:09.5,-4.58E-05,0.000286102,-0.001728058,0,
00:09.5,-4.58E-05,0.00028038,-0.001716614,0,
00:09.5,-5.72E-05,0.000274658,-0.00173378,0,
00:09.5,-5.72E-05,0.000286102,-0.001739502,0,
00:09.5,-5.72E-05,0.000297546,-0.001716614,0,
00:09.5,-5.72E-05,0.000291824,-0.001710892,0,
00:09.5,-5.72E-05,0.000286102,-0.00170517,0,
00:09.5,-4.58E-05,0.00028038,-0.001722336,0,
00:09.5,-6.29E-05,0.000291824,-0.001728058,0,
00:09.5,-6.87E-05,0.000291824,-0.001710892,0,
00:09.5,-6.29E-05,0.000286102,-0.00170517,0,
00:09.5,-6.29E-05,0.000286102,-0.001710892,0,
00:09.5,-5.72E-05,0.000291824,-0.001710892,0,
00:09.5,-6.29E-05,0.000291824,-0.001716614,0,
00:09.5,-8.01E-05,0.000297546,-0.001722336,0,
00:09.5,-6.87E-05,0.000291824,-0.001716614,0,
00:09.5,-6.87E-05,0.000286102,-0.00170517,0,
00:09.5,-6.87E-05,0.00028038,-0.001716614,0,
00:09.5,-6.29E-05,0.000297546,-0.001699448,0,
00:09.6,-6.29E-05,0.000297546,-0.00170517,0,
00:09.6,-7.44E-05,0.000286102,-0.00170517,0,
00:09.6,-8.01E-05,0.000297546,-0.001688004,0,
00:09.6,-6.29E-05,0.00030899,-0.001699448,0,
00:09.6,-7.44E-05,0.000297546,-0.001699448,0,
00:09.6,-7.44E-05,0.000297546,-0.001693726,0,
00:09.6,-7.44E-05,0.000291824,-0.001693726,0,
00:09.6,-7.44E-05,0.000291824,-0.001688004,0,
00:09.6,-6.87E-05,0.000297546,-0.001693726,0,
00:09.6,-5.15E-05,0.000320435,-0.001716614,0,
00:09.6,-8.01E-05,0.00030899,-0.00170517,0,
00:09.6,-8.58E-05,0.000291824,-0.001682281,0,
00:09.6,-9.16E-05,0.000286102,-0.001688004,0,
00:09.6,-8.58E-05,0.000297546,-0.001676559,0,
00:09.6,-8.01E-05,0.000291824,-0.001682281,0,
00:09.6,-7.44E-05,0.000291824,-0.001682281,0,
00:09.6,-7.44E-05,0.000291824,-0.001659393,0,
00:09.6,-6.87E-05,0.000291824,-0.001682281,0,
00:09.6,-5.72E-05,0.00030899,-0.001693726,0,
00:09.6,-8.01E-05,0.000291824,-0.001676559,0,
00:09.6,-8.01E-05,0.000291824,-0.001676559,0,
00:09.6,-8.58E-05,0.000297546,-0.001676559,0,
00:09.6,-7.44E-05,0.000291824,-0.001676559,0,
00:09.6,-7.44E-05,0.000286102,-0.001670837,0,
00:09.6,-8.58E-05,0.000291824,-0.001665115,0,
00:09.7,-8.58E-05,0.000286102,-0.001670837,0,
00:09.7,-8.01E-05,0.000286102,-0.001670837,0,
00:09.7,-8.58E-05,0.000286102,-0.001665115,0,
00:09.7,-8.58E-05,0.000286102,-0.001676559,0,
00:09.7,-8.01E-05,0.000303268,-0.001682281,0,
00:09.7,-8.58E-05,0.000297546,-0.001676559,0,
00:09.7,-8.58E-05,0.000291824,-0.001676559,0,
00:09.7,-8.01E-05,0.000297546,-0.001653671,0,
00:09.7,-8.01E-05,0.000297546,-0.001653671,0,
00:09.7,-8.58E-05,0.000303268,-0.001659393,0,
00:09.7,-9.16E-05,0.000297546,-0.001665115,0,
00:09.7,-8.58E-05,0.00030899,-0.001659393,0,
00:09.7,-8.58E-05,0.000303268,-0.001653671,0,
00:09.7,-9.16E-05,0.000297546,-0.001659393,0,
00:09.7,-0.000102997,0.000297546,-0.001653671,0,
00:09.7,-8.01E-05,0.000297546,-0.001653671,0,
00:09.7,-9.16E-05,0.000297546,-0.001647949,0,
00:09.7,-9.16E-05,0.000297546,-0.001642227,0,
00:09.7,-8.01E-05,0.000303268,-0.001653671,0,
00:09.7,-9.73E-05,0.000297546,-0.001642227,0,
00:09.7,-8.58E-05,0.000303268,-0.001642227,0,
00:09.7,-9.16E-05,0.000297546,-0.001630783,0,
00:09.7,-8.58E-05,0.000297546,-0.001636505,0,
00:09.7,-9.16E-05,0.000303268,-0.001647949,0,
00:09.7,-9.16E-05,0.00030899,-0.001647949,0,
00:09.8,-9.73E-05,0.000303268,-0.001630783,0,
00:09.8,-0.000102997,0.000291824,-0.001630783,0,
00:09.8,-9.73E-05,0.000286102,-0.001630783,0,
00:09.8,-9.16E-05,0.00030899,-0.001625061,0,
00:09.8,-9.16E-05,0.000314713,-0.001630783,0,
00:09.8,-9.16E-05,0.000314713,-0.001636505,0,
00:09.8,-9.73E-05,0.000303268,-0.001630783,0,
00:09.8,-9.73E-05,0.000297546,-0.001630783,0,
00:09.8,-9.73E-05,0.000303268,-0.001625061,0,
00:09.8,-8.58E-05,0.000303268,-0.001636505,0,
00:09.8,-8.58E-05,0.000303268,-0.001647949,0,
00:09.8,-0.000102997,0.000314713,-0.001625061,0,
00:09.8,-0.000102997,0.00030899,-0.001613617,0,
00:09.8,-0.000102997,0.000303268,-0.001619339,0,
00:09.8,-0.000102997,0.00030899,-0.001619339,0,
00:09.8,-9.73E-05,0.000297546,-0.001625061,0,
00:09.8,-9.73E-05,0.000303268,-0.001625061,0,
00:09.8,-0.000114441,0.000297546,-0.001619339,0,
00:09.8,-9.73E-05,0.00030899,-0.001607895,0,
00:09.8,-9.73E-05,0.00030899,-0.001619339,0,
00:09.8,-9.16E-05,0.000314713,-0.001630783,0,
00:09.8,-0.000108719,0.000314713,-0.001613617,0,
00:09.8,-9.73E-05,0.000320435,-0.001613617,0,
00:09.8,-9.73E-05,0.000314713,-0.001613617,0,
00:09.8,-9.73E-05,0.000320435,-0.001607895,0,
00:09.9,-9.73E-05,0.00030899,-0.001613617,0,
00:09.9,-8.58E-05,0.00030899,-0.001625061,0,
00:09.9,-9.73E-05,0.00030899,-0.001613617,0,
00:09.9,-9.73E-05,0.000314713,-0.001607895,0,
00:09.9,-0.000102997,0.000314713,-0.001619339,0,
00:09.9,-0.000114441,0.000314713,-0.001613617,0,
00:09.9,-0.000102997,0.00030899,-0.001607895,0,
00:09.9,-9.16E-05,0.00030899,-0.001596451,0,
00:09.9,-9.16E-05,0.000314713,-0.001613617,0,
00:09.9,-0.000102997,0.000314713,-0.001619339,0,
00:09.9,-0.000102997,0.00030899,-0.001607895,0,
00:09.9,-0.000108719,0.00030899,-0.001613617,0,
00:09.9,-0.000108719,0.00030899,-0.001607895,0,
00:09.9,-0.000114441,0.000297546,-0.001596451,0,
00:09.9,-0.000108719,0.000320435,-0.001596451,0,
00:09.9,-0.000108719,0.000314713,-0.001590729,0,
00:09.9,-9.73E-05,0.000314713,-0.001585007,0,
00:09.9,-0.000102997,0.000314713,-0.001585007,0,
00:09.9,-0.000114441,0.000320435,-0.001585007,0,
00:09.9,-0.000108719,0.000326157,-0.001590729,0,
00:09.9,-9.73E-05,0.000326157,-0.001602173,0,
00:09.9,-0.000108719,0.000314713,-0.001607895,0,
00:09.9,-0.000114441,0.000314713,-0.001590729,0,
00:09.9,-0.000114441,0.000314713,-0.001579285,0,
00:09.9,-0.000114441,0.00030899,-0.001579285,0,
00:10.0,-0.000114441,0.000314713,-0.001573563,0,
00:10.0,-0.000120163,0.00030899,-0.001573563,0,
00:10.0,-0.000114441,0.00030899,-0.001579285,0,
00:10.0,-0.000114441,0.000320435,-0.001585007,0,
00:10.0,-0.000108719,0.000331879,-0.001590729,0,
00:10.0,-0.000114441,0.000314713,-0.001602173,0,
00:10.0,-0.000120163,0.000320435,-0.001596451,0,
00:10.0,-0.000114441,0.000326157,-0.001602173,0,
00:10.0,-0.000120163,0.000326157,-0.001590729,0,
00:10.0,-0.000108719,0.000331879,-0.001585007,0,
00:10.0,-0.000114441,0.000314713,-0.001579285,0,
00:10.0,-0.000114441,0.00030899,-0.001585007,0,
00:00:10,-0.000114441,0.000314713,-0.001567841,0,
00:10.0,-0.000108719,0.00030899,-0.001562119,0,
00:10.0,-0.000114441,0.000320435,-0.001573563,0,
00:10.0,-0.000114441,0.000331879,-0.001567841,0,
00:10.0,-0.000114441,0.000320435,-0.001562119,0,
00:10.0,-0.000114441,0.000314713,-0.001562119,0,
00:10.0,-0.000120163,0.000320435,-0.001567841,0,
00:10.0,-0.000108719,0.000331879,-0.001573563,0,
00:10.0,-0.000108719,0.000331879,-0.001567841,0,
00:10.0,-0.000108719,0.000320435,-0.001567841,0,
00:10.0,-0.000125885,0.000314713,-0.001567841,0,
00:10.0,-0.000120163,0.000320435,-0.001567841,0,
00:10.0,-0.000120163,0.000320435,-0.001573563,0,
00:10.1,-0.000125885,0.000320435,-0.001567841,0,
00:10.1,-0.000120163,0.000314713,-0.001556396,0,
00:10.1,-0.000108719,0.000326157,-0.001562119,0,
00:10.1,-0.000114441,0.000314713,-0.001567841,0,
00:10.1,-0.000114441,0.000331879,-0.001579285,0,
00:10.1,-0.000108719,0.000331879,-0.001573563,0,
00:10.1,-0.000131607,0.000320435,-0.001550674,0,
00:10.1,-0.000131607,0.000320435,-0.001550674,0,
00:10.1,-0.000131607,0.000320435,-0.001562119,0,
00:10.1,-0.000125885,0.000320435,-0.001562119,0,
00:10.1,-0.000125885,0.000326157,-0.001550674,0,
00:10.1,-0.000125885,0.000326157,-0.001544952,0,
00:10.1,-0.000131607,0.000326157,-0.001550674,0,
