Elapsed_Time,EMG1,EMG2,EMG3,BioRadio Event,Unnamed: 5
00:00:00,0.000652313,-0.002614975,0.016433716,0,
00:00.0,0.000612259,-0.002649307,0.016427994,0,
00:00.0,0.000589371,-0.002649307,0.016399384,0,
00:00.0,0.000600815,-0.002626419,0.016387939,0,
00:00.0,0.000617981,-0.002609253,0.016433716,0,
00:00.0,0.000612259,-0.002626419,0.01644516,0,
00:00.0,0.000600815,-0.002643585,0.016439438,0,
00:00.0,0.000606537,-0.002637863,0.016422272,0,
00:00.0,0.000617981,-0.002632141,0.01641655,0,
00:00.0,0.000629425,-0.002626419,0.016422272,0,
00:00.0,0.000623703,-0.002637863,0.016450882,0,
00:00.0,0.000629425,-0.002632141,0.016433716,0,
00:00.0,0.000640869,-0.002637863,0.016410828,0,
00:00.1,0.000669479,-0.002643585,0.016410828,0,
00:00.1,0.000640869,-0.002620697,0.016399384,0,
00:00.1,0.000623703,-0.002620697,0.016468048,0,
00:00.1,0.000635147,-0.002637863,0.01647377,0,
00:00.1,0.000583649,-0.002637863,0.016450882,0,
00:00.1,0.000589371,-0.002637863,0.01644516,0,
00:00.1,0.000612259,-0.002632141,0.01644516,0,
00:00.1,0.000635147,-0.002637863,0.01644516,0,
00:00.1,0.000600815,-0.002660751,0.016450882,0,
00:00.1,0.000600815,-0.002574921,0.01644516,0,
00:00.1,0.000617981,-0.002620697,0.01644516,0,
00:00.1,0.000612259,-0.002626419,0.01644516,0,
00:00.1,0.000623703,-0.002637863,0.016462326,0,
00:00.1,0.000623703,-0.002649307,0.016427994,0,
00:00.1,0.000606537,-0.002637863,0.016439438,0,
00:00.1,0.000595093,-0.002637863,0.016479492,0,
00:00.1,0.000612259,-0.002620697,0.016468048,0,
00:00.1,0.000646591,-0.002614975,0.016462326,0,
00:00.1,0.000612259,-0.002649307,0.01644516,0,
00:00.1,0.000600815,-0.002649307,0.016450882,0,
00:00.1,0.000606537,-0.002637863,0.01647377,0,
00:00.1,0.000663757,-0.002609253,0.016456604,0,
00:00.1,0.000663757,-0.002637863,0.016450882,0,
00:00.1,0.000606537,-0.002637863,0.016439438,0,
00:00.1,0.000606537,-0.002632141,0.016439438,0,
00:00.2,0.000617981,-0.002637863,0.016479492,0,
00:00.2,0.000595093,-0.002620697,0.016490936,0,
00:00.2,0.000606537,-0.002620697,0.016490936,0,
00:00.2,0.000612259,-0.002649307,0.016456604,0,
00:00.2,0.000617981,-0.002643585,0.01647377,0,
00:00.2,0.000612259,-0.002649307,0.016485214,0,
00:00.2,0.000635147,-0.002626419,0.016485214,0,
00:00.2,0.000623703,-0.002609253,0.01647377,0,
00:00.2,0.000595093,-0.002632141,0.016490936,0,
00:00.2,0.000606537,-0.002632141,0.016468048,0,
00:00.2,0.000612259,-0.002655029,0.016456604,0,
00:00.2,0.000629425,-0.002643585,0.016479492,0,
00:00.2,0.000606537,-0.002637863,0.016490936,0,
00:00.2,0.000589371,-0.002632141,0.016508102,0,
00:00.2,0.000600815,-0.002632141,0.016490936,0,
00:00.2,0.000612259,-0.002649307,0.016479492,0,
00:00.2,0.000617981,-0.002643585,0.01647377,0,
00:00.2,0.000606537,-0.002649307,0.01650238,0,
00:00.2,0.000635147,-0.002649307,0.016490936,0,
00:00.2,0.000635147,-0.002637863,0.016456604,0,
00:00.2,0.000652313,-0.002614975,0.01647377,0,
00:00.2,0.000612259,-0.002643585,0.016490936,0,
00:00.2,0.000589371,-0.002655029,0.016530991,0,
00:00.2,0.000583649,-0.002666473,0.016519547,0,
00:00.2,0.000595093,-0.002637863,0.016513824,0,
00:00.3,0.000640869,-0.002655029,0.016508102,0,
00:00.3,0.000629425,-0.002626419,0.01647377,0,
00:00.3,0.000595093,-0.002609253,0.016479492,0,
00:00.3,0.000583649,-0.002626419,0.016530991,0,
00:00.3,0.000612259,-0.002643585,0.016513824,0,
00:00.3,0.000606537,-0.002649307,0.01650238,0,
00:00.3,0.000595093,-0.002660751,0.016519547,0,
00:00.3,0.000595093,-0.002660751,0.016525269,0,
00:00.3,0.000606537,-0.002649307,0.016508102,0,
00:00.3,0.000606537,-0.002655029,0.016525269,0,
00:00.3,0.000595093,-0.002666473,0.016513824,0,
00:00.3,0.000589371,-0.002643585,0.016525269,0,
00:00.3,0.000600815,-0.002643585,0.016525269,0,
00:00.3,0.000617981,-0.002637863,0.016530991,0,
00:00.3,0.000612259,-0.002632141,0.016519547,0,
00:00.3,0.000629425,-0.002643585,0.016519547,0,
00:00.3,0.000663757,-0.002643585,0.016519547,0,
00:00.3,0.000612259,-0.002643585,0.016508102,0,
00:00.3,0.000606537,-0.002666473,0.016490936,0,
00:00.3,0.000635147,-0.002649307,0.016536713,0,
00:00.3,0.000577927,-0.002643585,0.016525269,0,
00:00.3,0.000589371,-0.002660751,0.016536713,0,
00:00.3,0.000606537,-0.002649307,0.016519547,0,
00:00.3,0.000589371,-0.002632141,0.016548157,0,
00:00.3,0.000600815,-0.002637863,0.016530991,0,
00:00.4,0.000595093,-0.002643585,0.016553879,0,
00:00.4,0.000589371,-0.002649307,0.016542435,0,
00:00.4,0.000629425,-0.002660751,0.016530991,0,
00:00.4,0.000617981,-0.002655029,0.016508102,0,
00:00.4,0.000583649,-0.002649307,0.016553879,0,
00:00.4,0.000600815,-0.002649307,0.016548157,0,
00:00.4,0.000595093,-0.002637863,0.016548157,0,
00:00.4,0.000583649,-0.002649307,0.016553879,0,
00:00.4,0.000612259,-0.002626419,0.016525269,0,
00:00.4,0.000652313,-0.002637863,0.016536713,0,
00:00.4,0.000595093,-0.002666473,0.016559601,0,
00:00.4,0.000595093,-0.002643585,0.016513824,0,
00:00.4,0.000595093,-0.002637863,0.016530991,0,
00:00.4,0.000600815,-0.002643585,0.016582489,0,
00:00.4,0.000600815,-0.002655029,0.016565323,0,
00:00.4,0.000595093,-0.002637863,0.016559601,0,
00:00.4,0.000589371,-0.002637863,0.016553879,0,
00:00.4,0.000595093,-0.002649307,0.016548157,0,
00:00.4,0.000595093,-0.002655029,0.016542435,0,
00:00.4,0.000600815,-0.002643585,0.016542435,0,
00:00.4,0.000640869,-0.002626419,0.016542435,0,
00:00.4,0.000635147,-0.002626419,0.016553879,0,
00:00.4,0.000589371,-0.002643585,0.016559601,0,
00:00.4,0.000577927,-0.002660751,0.016530991,0,
00:00.4,0.000589371,-0.002643585,0.016525269,0,
00:00.5,0.000595093,-0.002643585,0.016559601,0,
00:00.5,0.000623703,-0.002643585,0.016571045,0,
00:00.5,0.000612259,-0.002643585,0.016576767,0,
00:00.5,0.000583649,-0.002649307,0.016559601,0,
00:00.5,0.000577927,-0.002643585,0.016553879,0,
00:00.5,0.000612259,-0.002632141,0.016553879,0,
00:00.5,0.000646591,-0.002643585,0.016519547,0,
00:00.5,0.000589371,-0.002643585,0.016508102,0,
00:00.5,0.000583649,-0.002649307,0.016593933,0,
00:00.5,0.000583649,-0.002637863,0.016571045,0,
00:00.5,0.000606537,-0.002632141,0.016588211,0,
00:00.5,0.000606537,-0.002637863,0.016582489,0,
00:00.5,0.000572205,-0.002643585,0.016553879,0,
00:00.5,0.000577927,-0.002660751,0.016559601,0,
00:00.5,0.000595093,-0.002649307,0.016565323,0,
00:00.5,0.000583649,-0.002637863,0.016559601,0,
00:00.5,0.000589371,-0.002614975,0.016559601,0,
00:00.5,0.000595093,-0.002643585,0.016571045,0,
00:00.5,0.000606537,-0.002649307,0.016565323,0,
00:00.5,0.000617981,-0.002637863,0.016559601,0,
00:00.5,0.000600815,-0.002637863,0.016565323,0,
00:00.5,0.000600815,-0.002660751,0.016530991,0,
00:00.5,0.000589371,-0.002643585,0.016553879,0,
00:00.5,0.000589371,-0.002614975,0.016576767,0,
00:00.5,0.000600815,-0.002637863,0.016576767,0,
00:00.6,0.000583649,-0.002637863,0.016582489,0,
00:00.6,0.000600815,-0.002643585,0.016553879,0,
00:00.6,0.000612259,-0.002632141,0.016530991,0,
00:00.6,0.000595093,-0.002632141,0.016593933,0,
00:00.6,0.000612259,-0.002660751,0.016593933,0,
00:00.6,0.000589371,-0.002655029,0.016576767,0,
00:00.6,0.000583649,-0.002649307,0.016576767,0,
00:00.6,0.000577927,-0.002643585,0.016542435,0,
00:00.6,0.000595093,-0.002632141,0.016571045,0,
00:00.6,0.000617981,-0.002637863,0.016559601,0,
00:00.6,0.000595093,-0.002672195,0.016582489,0,
00:00.6,0.000583649,-0.002614975,0.016571045,0,
00:00.6,0.000577927,-0.002614975,0.016582489,0,
00:00.6,0.000589371,-0.002643585,0.016582489,0,
00:00.6,0.000583649,-0.002643585,0.016582489,0,
00:00.6,0.000572205,-0.002655029,0.016582489,0,
00:00.6,0.000589371,-0.002649307,0.016576767,0,
00:00.6,0.000646591,-0.002632141,0.016576767,0,
00:00.6,0.000623703,-0.002637863,0.016548157,0,
00:00.6,0.000577927,-0.002632141,0.016536713,0,
00:00.6,0.00056076,-0.002614975,0.016571045,0,
00:00.6,0.000589371,-0.002632141,0.016593933,0,
00:00.6,0.000617981,-0.002643585,0.016542435,0,
00:00.6,0.000612259,-0.002649307,0.016565323,0,
00:00.6,0.000572205,-0.002655029,0.016599655,0,
00:00.7,0.000566483,-0.002632141,0.016593933,0,
00:00.7,0.000566483,-0.002626419,0.016571045,0,
00:00.7,0.000572205,-0.002643585,0.016576767,0,
00:00.7,0.000583649,-0.002637863,0.016582489,0,
00:00.7,0.000589371,-0.002655029,0.016571045,0,
00:00.7,0.000595093,-0.002660751,0.016599655,0,
00:00.7,0.000589371,-0.002649307,0.016588211,0,
00:00.7,0.000617981,-0.002632141,0.016588211,0,
00:00.7,0.000583649,-0.002626419,0.016582489,0,
00:00.7,0.000566483,-0.002632141,0.016582489,0,
00:00.7,0.000572205,-0.002637863,0.016576767,0,
00:00.7,0.000595093,-0.002620697,0.016571045,0,
00:00.7,0.000606537,-0.002637863,0.016576767,0,
00:00.7,0.000577927,-0.002649307,0.016582489,0,
00:00.7,0.000572205,-0.002649307,0.016588211,0,
00:00.7,0.000600815,-0.002632141,0.016571045,0,
00:00.7,0.000629425,-0.002620697,0.016553879,0,
00:00.7,0.000572205,-0.002637863,0.016542435,0,
00:00.7,0.000566483,-0.002655029,0.016605377,0,
00:00.7,0.000600815,-0.002655029,0.016536713,0,
00:00.7,0.000589371,-0.002655029,0.016576767,0,
00:00.7,0.000612259,-0.002609253,0.016593933,0,
00:00.7,0.000606537,-0.002609253,0.016588211,0,
00:00.7,0.000572205,-0.002637863,0.016605377,0,
00:00.7,0.000549316,-0.002677917,0.016593933,0,
00:00.8,0.00056076,-0.002637863,0.016593933,0,
00:00.8,0.000572205,-0.002626419,0.016593933,0,
00:00.8,0.000595093,-0.002637863,0.016576767,0,
00:00.8,0.000595093,-0.002643585,0.016571045,0,
00:00.8,0.000566483,-0.002643585,0.016582489,0,
00:00.8,0.00056076,-0.002643585,0.016576767,0,
00:00.8,0.000577927,-0.002632141,0.016565323,0,
00:00.8,0.000600815,-0.002632141,0.016582489,0,
00:00.8,0.000600815,-0.002643585,0.016588211,0,
00:00.8,0.000583649,-0.002660751,0.016588211,0,
00:00.8,0.000572205,-0.002632141,0.016559601,0,
00:00.8,0.000577927,-0.002637863,0.016559601,0,
00:00.8,0.000595093,-0.002632141,0.016571045,0,
00:00.8,0.000600815,-0.002632141,0.016513824,0,
00:00.8,0.000640869,-0.002632141,0.016576767,0,
00:00.8,0.000589371,-0.002655029,0.016628265,0,
00:00.8,0.000543594,-0.002660751,0.016628265,0,
00:00.8,0.000577927,-0.002637863,0.016605377,0,
00:00.8,0.000577927,-0.002649307,0.016576767,0,
00:00.8,0.000566483,-0.002655029,0.016582489,0,
00:00.8,0.000572205,-0.002649307,0.016582489,0,
00:00.8,0.000572205,-0.002614975,0.016588211,0,
00:00.8,0.000572205,-0.002620697,0.016588211,0,
00:00.8,0.000589371,-0.002649307,0.016582489,0,
00:00.8,0.000583649,-0.002637863,0.016576767,0,
00:00.9,0.000572205,-0.002637863,0.016588211,0,
00:00.9,0.000577927,-0.002637863,0.016593933,0,
00:00.9,0.000595093,-0.002632141,0.016588211,0,
00:00.9,0.000589371,-0.002643585,0.016576767,0,
00:00.9,0.000606537,-0.002637863,0.016582489,0,
00:00.9,0.000577927,-0.002643585,0.016599655,0,
00:00.9,0.000572205,-0.002643585,0.016582489,0,
00:00.9,0.000572205,-0.002614975,0.016582489,0,
00:00.9,0.000555038,-0.002643585,0.016548157,0,
00:00.9,0.000572205,-0.002649307,0.016576767,0,
00:00.9,0.000606537,-0.002637863,0.016611099,0,
00:00.9,0.000606537,-0.002643585,0.016559601,0,
00:00.9,0.000617981,-0.002660751,0.016565323,0,
00:00.9,0.00056076,-0.002660751,0.016593933,0,
00:00.9,0.000555038,-0.002614975,0.016622543,0,
00:00.9,0.00056076,-0.002614975,0.016599655,0,
00:00.9,0.000595093,-0.002620697,0.016599655,0,
00:00.9,0.000595093,-0.002626419,0.016582489,0,
00:00.9,0.000572205,-0.002655029,0.016576767,0,
00:00.9,0.000589371,-0.002666473,0.016599655,0,
00:00.9,0.000555038,-0.002632141,0.016599655,0,
00:00.9,0.000549316,-0.002626419,0.016605377,0,
00:00.9,0.000566483,-0.002649307,0.016599655,0,
00:00.9,0.000566483,-0.002626419,0.016593933,0,
00:00.9,0.000589371,-0.002643585,0.016565323,0,
00:01.0,0.000612259,-0.002649307,0.016582489,0,
00:01.0,0.000589371,-0.002643585,0.016611099,0,
00:01.0,0.000549316,-0.002637863,0.016571045,0,
00:01.0,0.000555038,-0.002649307,0.016588211,0,
00:01.0,0.000577927,-0.002643585,0.016605377,0,
00:01.0,0.000583649,-0.002643585,0.016599655,0,
00:01.0,0.000572205,-0.002649307,0.016548157,0,
00:01.0,0.000595093,-0.002620697,0.016553879,0,
00:01.0,0.00056076,-0.002637863,0.016616821,0,
00:01.0,0.000577927,-0.002626419,0.016588211,0,
00:01.0,0.000577927,-0.002637863,0.016588211,0,
00:01.0,0.00056076,-0.002632141,0.016588211,0,
00:00:01,0.000566483,-0.002649307,0.016593933,0,
00:01.0,0.000583649,-0.002666473,0.016593933,0,
00:01.0,0.000612259,-0.002655029,0.016588211,0,
00:01.0,0.000583649,-0.002666473,0.016588211,0,
00:01.0,0.000543594,-0.002649307,0.016542435,0,
00:01.0,0.000577927,-0.002643585,0.016582489,0,
00:01.0,0.000595093,-0.002637863,0.016616821,0,
00:01.0,0.000549316,-0.002643585,0.016588211,0,
00:01.0,0.000566483,-0.002655029,0.016582489,0,
00:01.0,0.000595093,-0.002643585,0.016559601,0,
00:01.0,0.000595093,-0.002643585,0.016565323,0,
00:01.0,0.000572205,-0.002637863,0.016599655,0,
00:01.0,0.00056076,-0.002643585,0.016605377,0,
00:01.1,0.000572205,-0.002666473,0.016593933,0,
00:01.1,0.000549316,-0.002655029,0.016599655,0,
00:01.1,0.000566483,-0.002649307,0.016576767,0,
00:01.1,0.000600815,-0.002620697,0.016565323,0,
00:01.1,0.000606537,-0.002643585,0.016576767,0,
00:01.1,0.000566483,-0.002649307,0.016565323,0,
00:01.1,0.000555038,-0.002649307,0.016542435,0,
00:01.1,0.000566483,-0.002649307,0.016611099,0,
00:01.1,0.000566483,-0.002666473,0.016611099,0,
00:01.1,0.000572205,-0.002649307,0.016593933,0,
00:01.1,0.000577927,-0.002660751,0.016576767,0,
00:01.1,0.000583649,-0.002637863,0.016576767,0,
00:01.1,0.000572205,-0.002643585,0.016588211,0,
00:01.1,0.000612259,-0.002637863,0.016565323,0,
00:01.1,0.000600815,-0.002637863,0.016582489,0,
00:01.1,0.000555038,-0.002649307,0.016582489,0,
00:01.1,0.000577927,-0.002660751,0.016530991,0,
00:01.1,0.000577927,-0.002649307,0.016553879,0,
00:01.1,0.00056076,-0.002626419,0.016611099,0,
00:01.1,0.000577927,-0.002637863,0.016582489,0,
00:01.1,0.000589371,-0.002655029,0.016571045,0,
00:01.1,0.000572205,-0.002666473,0.016593933,0,
00:01.1,0.000572205,-0.002649307,0.016565323,0,
00:01.1,0.000577927,-0.002620697,0.016553879,0,
00:01.1,0.000589371,-0.002643585,0.016571045,0,
00:01.2,0.000555038,-0.002660751,0.016576767,0,
00:01.2,0.000589371,-0.002643585,0.016559601,0,
00:01.2,0.000583649,-0.002643585,0.016530991,0,
00:01.2,0.000589371,-0.002660751,0.016565323,0,
00:01.2,0.000595093,-0.002677917,0.016593933,0,
00:01.2,0.00056076,-0.002637863,0.016571045,0,
00:01.2,0.000566483,-0.002632141,0.016576767,0,
00:01.2,0.000577927,-0.002632141,0.016582489,0,
00:01.2,0.000555038,-0.002649307,0.016571045,0,
00:01.2,0.00056076,-0.002655029,0.016571045,0,
00:01.2,0.00056076,-0.002649307,0.016565323,0,
00:01.2,0.000577927,-0.002632141,0.016559601,0,
00:01.2,0.000600815,-0.002637863,0.016525269,0,
00:01.2,0.000577927,-0.002643585,0.016565323,0,
00:01.2,0.000566483,-0.002666473,0.016576767,0,
00:01.2,0.000600815,-0.002637863,0.016565323,0,
00:01.2,0.000600815,-0.002649307,0.016530991,0,
00:01.2,0.00056076,-0.002666473,0.016542435,0,
00:01.2,0.00056076,-0.002643585,0.016565323,0,
00:01.2,0.000566483,-0.002632141,0.016559601,0,
00:01.2,0.00056076,-0.002637863,0.016582489,0,
00:01.2,0.000612259,-0.002649307,0.016565323,0,
00:01.2,0.000629425,-0.002660751,0.016559601,0,
00:01.2,0.000572205,-0.002660751,0.016542435,0,
00:01.2,0.000543594,-0.002632141,0.016565323,0,
00:01.3,0.000549316,-0.002632141,0.016519547,0,
00:01.3,0.000572205,-0.002637863,0.016548157,0,
00:01.3,0.000583649,-0.002632141,0.016576767,0,
00:01.3,0.000566483,-0.002637863,0.016553879,0,
00:01.3,0.000566483,-0.002649307,0.016571045,0,
00:01.3,0.000566483,-0.002660751,0.016548157,0,
00:01.3,0.000577927,-0.002643585,0.016548157,0,
00:01.3,0.000577927,-0.002626419,0.016559601,0,
00:01.3,0.000577927,-0.002626419,0.016548157,0,
00:01.3,0.000606537,-0.002649307,0.016553879,0,
00:01.3,0.000617981,-0.002643585,0.016542435,0,
00:01.3,0.000555038,-0.002655029,0.016548157,0,
00:01.3,0.00056076,-0.002637863,0.016530991,0,
00:01.3,0.000577927,-0.002614975,0.016525269,0,
00:01.3,0.000595093,-0.002637863,0.016559601,0,
00:01.3,0.00056076,-0.002649307,0.016542435,0,
00:01.3,0.00056076,-0.002672195,0.016542435,0,
00:01.3,0.00056076,-0.002672195,0.016553879,0,
00:01.3,0.000595093,-0.002649307,0.016536713,0,
00:01.3,0.000612259,-0.002620697,0.016553879,0,
00:01.3,0.00056076,-0.002626419,0.016559601,0,
00:01.3,0.000537872,-0.002637863,0.016548157,0,
00:01.3,0.00056076,-0.002643585,0.016548157,0,
00:01.3,0.00056076,-0.002649307,0.016542435,0,
00:01.3,0.000566483,-0.002643585,0.016513824,0,
00:01.4,0.000595093,-0.002626419,0.016485214,0,
00:01.4,0.000577927,-0.002643585,0.016542435,0,
00:01.4,0.00056076,-0.002655029,0.016565323,0,
00:01.4,0.00056076,-0.002643585,0.016565323,0,
00:01.4,0.000566483,-0.002637863,0.016548157,0,
00:01.4,0.000600815,-0.002620697,0.016536713,0,
00:01.4,0.000595093,-0.002637863,0.016536713,0,
00:01.4,0.000606537,-0.002643585,0.016519547,0,
00:01.4,0.000577927,-0.002649307,0.016536713,0,
00:01.4,0.000555038,-0.002637863,0.016536713,0,
00:01.4,0.000572205,-0.002632141,0.016565323,0,
00:01.4,0.000583649,-0.002632141,0.016548157,0,
00:01.4,0.000583649,-0.002649307,0.016519547,0,
00:01.4,0.000589371,-0.002649307,0.016485214,0,
00:01.4,0.000572205,-0.002626419,0.016525269,0,
00:01.4,0.000572205,-0.002637863,0.016565323,0,
00:01.4,0.000577927,-0.002626419,0.016536713,0,
00:01.4,0.000555038,-0.002632141,0.016508102,0,
00:01.4,0.000549316,-0.002649307,0.016565323,0,
00:01.4,0.000566483,-0.002660751,0.016536713,0,
00:01.4,0.000583649,-0.002643585,0.016490936,0,
00:01.4,0.00056076,-0.002637863,0.016542435,0,
00:01.4,0.000566483,-0.002626419,0.016553879,0,
00:01.4,0.000572205,-0.002637863,0.016548157,0,
00:01.4,0.000595093,-0.002626419,0.016525269,0,
00:01.5,0.000595093,-0.002643585,0.016508102,0,
00:01.5,0.000623703,-0.002626419,0.016542435,0,
00:01.5,0.000543594,-0.002620697,0.016553879,0,
00:01.5,0.000543594,-0.002637863,0.016530991,0,
00:01.5,0.000572205,-0.002649307,0.016525269,0,
00:01.5,0.00056076,-0.002637863,0.016536713,0,
00:01.5,0.000583649,-0.002637863,0.016530991,0,
00:01.5,0.000589371,-0.002649307,0.016513824,0,
00:01.5,0.00053215,-0.002637863,0.016530991,0,
00:01.5,0.00056076,-0.002626419,0.016513824,0,
00:01.5,0.000555038,-0.002649307,0.016490936,0,
00:01.5,0.000589371,-0.002626419,0.016542435,0,
00:01.5,0.000600815,-0.002614975,0.016490936,0,
00:01.5,0.000543594,-0.002626419,0.01647377,0,
00:01.5,0.000549316,-0.002660751,0.016559601,0,
00:01.5,0.00056076,-0.002655029,0.016542435,0,
00:01.5,0.000595093,-0.002649307,0.016525269,0,
00:01.5,0.000600815,-0.002614975,0.016519547,0,
00:01.5,0.00056076,-0.002609253,0.01650238,0,
00:01.5,0.000543594,-0.002643585,0.016530991,0,
00:01.5,0.00056076,-0.002632141,0.01650238,0,
00:01.5,0.000577927,-0.002632141,0.016496658,0,
00:01.5,0.000600815,-0.002620697,0.016548157,0,
00:01.5,0.000549316,-0.002626419,0.016525269,0,
00:01.5,0.000549316,-0.002632141,0.016525269,0,
00:01.6,0.00056076,-0.002649307,0.016525269,0,
00:01.6,0.000549316,-0.002660751,0.016519547,0,
00:01.6,0.000555038,-0.002637863,0.016508102,0,
00:01.6,0.000555038,-0.002643585,0.016513824,0,
00:01.6,0.00056076,-0.002626419,0.01650238,0,
00:01.6,0.000566483,-0.002614975,0.016490936,0,
00:01.6,0.000583649,-0.002632141,0.016496658,0,
00:01.6,0.000629425,-0.002643585,0.016456604,0,
00:01.6,0.000589371,-0.002632141,0.016496658,0,
00:01.6,0.000537872,-0.002637863,0.016519547,0,
00:01.6,0.000555038,-0.002649307,0.016508102,0,
00:01.6,0.000543594,-0.002643585,0.016456604,0,
00:01.6,0.000537872,-0.002632141,0.016496658,0,
00:01.6,0.00056076,-0.002632141,0.016542435,0,
00:01.6,0.00056076,-0.002632141,0.016508102,0,
00:01.6,0.000566483,-0.002620697,0.016508102,0,
00:01.6,0.000623703,-0.002620697,0.016519547,0,
00:01.6,0.000555038,-0.002626419,0.016508102,0,
00:01.6,0.000549316,-0.002637863,0.01650238,0,
00:01.6,0.000566483,-0.002637863,0.016462326,0,
00:01.6,0.000543594,-0.002614975,0.01650238,0,
00:01.6,0.000549316,-0.002626419,0.016525269,0,
00:01.6,0.000555038,-0.002632141,0.016508102,0,
00:01.6,0.000549316,-0.002632141,0.01650238,0,
00:01.6,0.000577927,-0.002626419,0.016496658,0,
00:01.7,0.000612259,-0.002626419,0.016485214,0,
00:01.7,0.000549316,-0.002649307,0.01650238,0,
00:01.7,0.000555038,-0.002643585,0.016508102,0,
00:01.7,0.000543594,-0.002637863,0.01647377,0,
00:01.7,0.000549316,-0.002626419,0.016468048,0,
00:01.7,0.000572205,-0.002626419,0.016508102,0,
00:01.7,0.000572205,-0.002637863,0.016496658,0,
00:01.7,0.00056076,-0.002626419,0.016508102,0,
00:01.7,0.000555038,-0.002614975,0.01650238,0,
00:01.7,0.000549316,-0.002637863,0.01650238,0,
00:01.7,0.000543594,-0.002637863,0.01650238,0,
00:01.7,0.000549316,-0.002620697,0.016508102,0,
00:01.7,0.00056076,-0.002626419,0.016508102,0,
00:01.7,0.000555038,-0.002620697,0.01650238,0,
00:01.7,0.000549316,-0.002637863,0.01650238,0,
00:01.7,0.000566483,-0.002643585,0.01650238,0,
00:01.7,0.000635147,-0.002626419,0.016468048,0,
00:01.7,0.000589371,-0.002620697,0.016422272,0,
00:01.7,0.000526428,-0.002637863,0.016490936,0,
00:01.7,0.000543594,-0.002632141,0.016519547,0,
00:01.7,0.000537872,-0.002626419,0.016513824,0,
00:01.7,0.00056076,-0.002632141,0.016490936,0,
00:01.7,0.00053215,-0.002643585,0.016485214,0,
00:01.7,0.000537872,-0.002643585,0.016513824,0,
00:01.7,0.000555038,-0.002632141,0.016490936,0,
00:01.8,0.000577927,-0.002620697,0.016490936,0,
00:01.8,0.000566483,-0.002643585,0.01650238,0,
00:01.8,0.000566483,-0.002626419,0.01647377,0,
00:01.8,0.000577927,-0.002614975,0.016479492,0,
00:01.8,0.000537872,-0.002620697,0.016496658,0,
00:01.8,0.000537872,-0.002643585,0.016490936,0,
00:01.8,0.000543594,-0.002649307,0.01650238,0,
00:01.8,0.000526428,-0.002626419,0.016496658,0,
00:01.8,0.000549316,-0.002603531,0.016490936,0,
00:01.8,0.000566483,-0.002603531,0.016485214,0,
00:01.8,0.00056076,-0.002620697,0.016485214,0,
00:01.8,0.000566483,-0.002620697,0.016490936,0,
00:01.8,0.000572205,-0.002632141,0.01647377,0,
00:01.8,0.00056076,-0.002643585,0.01644516,0,
00:01.8,0.000543594,-0.002649307,0.016485214,0,
00:01.8,0.000549316,-0.002626419,0.01650238,0,
00:01.8,0.000577927,-0.002614975,0.016496658,0,
00:01.8,0.000555038,-0.002609253,0.016485214,0,
00:01.8,0.00053215,-0.002626419,0.016479492,0,
00:01.8,0.000555038,-0.002643585,0.016462326,0,
00:01.8,0.000543594,-0.002643585,0.016479492,0,
00:01.8,0.00053215,-0.002626419,0.016490936,0,
00:01.8,0.000537872,-0.002603531,0.016462326,0,
00:01.8,0.000549316,-0.002609253,0.016490936,0,
00:01.8,0.000566483,-0.002620697,0.016468048,0,
00:01.9,0.000572205,-0.002620697,0.016485214,0,
00:01.9,0.000577927,-0.002626419,0.016485214,0,
00:01.9,0.000514984,-0.002637863,0.016485214,0,
00:01.9,0.000549316,-0.002626419,0.016479492,0,
00:01.9,0.000583649,-0.002597809,0.016479492,0,
00:01.9,0.000543594,-0.002609253,0.016468048,0,
00:01.9,0.000549316,-0.002620697,0.016485214,0,
00:01.9,0.000583649,-0.002620697,0.016479492,0,
00:01.9,0.000566483,-0.002620697,0.016468048,0,
00:01.9,0.000537872,-0.002609253,0.016462326,0,
00:01.9,0.000526428,-0.002637863,0.016433716,0,
00:01.9,0.000526428,-0.002637863,0.016479492,0,
00:01.9,0.000520706,-0.002655029,0.01650238,0,
00:01.9,0.000537872,-0.002637863,0.01647377,0,
00:01.9,0.000555038,-0.002626419,0.01647377,0,
00:01.9,0.00056076,-0.002637863,0.016468048,0,
00:01.9,0.000566483,-0.002614975,0.016479492,0,
00:01.9,0.00053215,-0.002609253,0.016479492,0,
00:01.9,0.00056076,-0.002614975,0.016462326,0,
00:01.9,0.000549316,-0.002609253,0.016450882,0,
00:01.9,0.000555038,-0.002603531,0.016462326,0,
00:01.9,0.000566483,-0.002614975,0.016485214,0,
00:01.9,0.000520706,-0.002626419,0.016479492,0,
00:01.9,0.000537872,-0.002620697,0.016462326,0,
00:01.9,0.000555038,-0.002614975,0.016462326,0,
00:02.0,0.000555038,-0.002609253,0.016433716,0,
00:02.0,0.00056076,-0.002609253,0.016422272,0,
00:02.0,0.000537872,-0.002614975,0.016496658,0,
00:02.0,0.000526428,-0.002620697,0.016490936,0,
00:02.0,0.000537872,-0.002626419,0.016462326,0,
00:02.0,0.000549316,-0.002620697,0.01647377,0,
00:02.0,0.000583649,-0.002626419,0.016462326,0,
00:02.0,0.000526428,-0.002620697,0.016450882,0,
00:02.0,0.000526428,-0.002626419,0.016485214,0,
00:02.0,0.000537872,-0.002626419,0.016468048,0,
00:02.0,0.000537872,-0.002620697,0.016450882,0,
00:02.0,0.000526428,-0.002609253,0.016450882,0,
00:00:02,0.000543594,-0.002614975,0.016456604,0,
00:02.0,0.000566483,-0.002620697,0.016456604,0,
00:02.0,0.000543594,-0.002620697,0.016450882,0,
00:02.0,0.000514984,-0.002626419,0.016450882,0,
00:02.0,0.000537872,-0.002632141,0.016456604,0,
00:02.0,0.000526428,-0.002614975,0.016462326,0,
00:02.0,0.000555038,-0.002614975,0.01644516,0,
00:02.0,0.00053215,-0.002597809,0.016450882,0,
00:02.0,0.000526428,-0.002597809,0.016439438,0,
00:02.0,0.000537872,-0.002614975,0.01644516,0,
00:02.0,0.000537872,-0.002620697,0.016468048,0,
00:02.0,0.000572205,-0.002620697,0.016422272,0,
00:02.0,0.000572205,-0.002620697,0.016410828,0,
00:02.1,0.000520706,-0.002626419,0.016468048,0,
00:02.1,0.000526428,-0.002609253,0.016456604,0,
00:02.1,0.000583649,-0.002603531,0.016456604,0,
00:02.1,0.000537872,-0.002609253,0.016456604,0,
00:02.1,0.00053215,-0.002609253,0.016433716,0,
00:02.1,0.000520706,-0.002637863,0.016410828,0,
00:02.1,0.000537872,-0.002626419,0.016450882,0,
00:02.1,0.000566483,-0.002614975,0.01644516,0,
00:02.1,0.000537872,-0.002603531,0.016439438,0,
00:02.1,0.000514984,-0.002586365,0.01644516,0,
00:02.1,0.000520706,-0.002597809,0.016450882,0,
00:02.1,0.000520706,-0.002614975,0.016456604,0,
00:02.1,0.000526428,-0.002626419,0.016439438,0,
00:02.1,0.000537872,-0.002626419,0.016427994,0,
00:02.1,0.000526428,-0.002632141,0.016433716,0,
00:02.1,0.000555038,-0.002609253,0.016427994,0,
00:02.1,0.000583649,-0.002592087,0.01641655,0,
00:02.1,0.000520706,-0.002626419,0.016439438,0,
00:02.1,0.000514984,-0.002626419,0.01644516,0,
00:02.1,0.00056076,-0.002609253,0.016427994,0,
00:02.1,0.000555038,-0.002603531,0.01641655,0,
00:02.1,0.000543594,-0.002614975,0.016359329,0,
00:02.1,0.000526428,-0.002620697,0.016427994,0,
00:02.1,0.000572205,-0.002626419,0.016468048,0,
00:02.1,0.000549316,-0.002620697,0.016427994,0,
00:02.2,0.000520706,-0.002637863,0.016433716,0,
00:02.2,0.00053215,-0.002620697,0.016427994,0,
00:02.2,0.000509262,-0.002592087,0.016427994,0,
00:02.2,0.000520706,-0.002609253,0.01641655,0,
00:02.2,0.00053215,-0.002614975,0.016393661,0,
00:02.2,0.000526428,-0.002603531,0.016365051,0,
00:02.2,0.000526428,-0.002626419,0.016439438,0,
00:02.2,0.000526428,-0.002632141,0.016433716,0,
00:02.2,0.000520706,-0.002620697,0.016405106,0,
00:02.2,0.000509262,-0.002614975,0.01641655,0,
00:02.2,0.000537872,-0.002603531,0.016427994,0,
00:02.2,0.000537872,-0.002586365,0.016410828,0,
00:02.2,0.000514984,-0.002597809,0.016405106,0,
00:02.2,0.000526428,-0.002626419,0.01641655,0,
00:02.2,0.000555038,-0.002632141,0.016410828,0,
00:02.2,0.000543594,-0.002597809,0.016405106,0,
00:02.2,0.000509262,-0.002614975,0.016405106,0,
00:02.2,0.000526428,-0.002609253,0.016393661,0,
00:02.2,0.000572205,-0.002603531,0.016387939,0,
00:02.2,0.000577927,-0.002603531,0.016382217,0,
00:02.2,0.000492096,-0.002626419,0.016410828,0,
00:02.2,0.00050354,-0.002620697,0.016365051,0,
00:02.2,0.000537872,-0.002614975,0.016405106,0,
00:02.2,0.000520706,-0.002626419,0.016427994,0,
00:02.2,0.000509262,-0.002609253,0.016405106,0,
00:02.3,0.000520706,-0.002597809,0.016405106,0,
00:02.3,0.000526428,-0.002603531,0.016405106,0,
00:02.3,0.000555038,-0.002609253,0.016393661,0,
00:02.3,0.000555038,-0.002603531,0.016359329,0,
00:02.3,0.000514984,-0.002603531,0.016399384,0,
00:02.3,0.000509262,-0.002620697,0.016387939,0,
00:02.3,0.000509262,-0.002609253,0.016393661,0,
00:02.3,0.000514984,-0.002603531,0.016405106,0,
00:02.3,0.000520706,-0.002614975,0.016393661,0,
00:02.3,0.00053215,-0.002609253,0.016382217,0,
00:02.3,0.000549316,-0.002592087,0.016376495,0,
00:02.3,0.000537872,-0.002603531,0.016387939,0,
00:02.3,0.00056076,-0.002609253,0.016376495,0,
00:02.3,0.000543594,-0.002614975,0.016376495,0,
00:02.3,0.000492096,-0.002614975,0.016399384,0,
00:02.3,0.000492096,-0.002626419,0.016387939,0,
00:02.3,0.000509262,-0.002649307,0.016393661,0,
00:02.3,0.000549316,-0.002620697,0.016353607,0,
00:02.3,0.000514984,-0.002614975,0.016319275,0,
00:02.3,0.00050354,-0.002586365,0.016405106,0,
00:02.3,0.000537872,-0.002597809,0.016410828,0,
00:02.3,0.00050354,-0.002603531,0.016393661,0,
00:02.3,0.000497818,-0.002614975,0.016382217,0,
00:02.3,0.000520706,-0.002614975,0.016376495,0,
00:02.3,0.000549316,-0.002597809,0.016365051,0,
00:02.4,0.000537872,-0.002609253,0.016365051,0,
00:02.4,0.00053215,-0.002609253,0.016382217,0,
00:02.4,0.000526428,-0.002620697,0.016359329,0,
00:02.4,0.000537872,-0.002609253,0.016330719,0,
00:02.4,0.00056076,-0.002597809,0.016359329,0,
00:02.4,0.00056076,-0.002597809,0.016410828,0,
00:02.4,0.000514984,-0.002603531,0.016365051,0,
00:02.4,0.000520706,-0.002609253,0.016353607,0,
00:02.4,0.000526428,-0.002614975,0.016370773,0,
00:02.4,0.000486374,-0.002626419,0.01641655,0,
00:02.4,0.000492096,-0.002626419,0.016399384,0,
00:02.4,0.000509262,-0.002632141,0.016382217,0,
00:02.4,0.000543594,-0.002637863,0.016347885,0,
00:02.4,0.00053215,-0.002586365,0.016365051,0,
00:02.4,0.000497818,-0.002580643,0.016399384,0,
00:02.4,0.000514984,-0.002632141,0.016393661,0,
00:02.4,0.00050354,-0.002620697,0.016376495,0,
00:02.4,0.000526428,-0.002603531,0.016313553,0,
00:02.4,0.00053215,-0.002597809,0.016336441,0,
00:02.4,0.000514984,-0.002592087,0.016410828,0,
00:02.4,0.000492096,-0.002620697,0.016399384,0,
00:02.4,0.000497818,-0.002632141,0.016353607,0,
00:02.4,0.000514984,-0.002609253,0.016336441,0,
00:02.4,0.000543594,-0.002597809,0.016393661,0,
00:02.4,0.000514984,-0.002603531,0.016376495,0,
00:02.5,0.000509262,-0.002620697,0.016387939,0,
00:02.5,0.000543594,-0.002626419,0.016387939,0,
00:02.5,0.000543594,-0.002614975,0.016365051,0,
00:02.5,0.000526428,-0.002609253,0.016347885,0,
00:02.5,0.000509262,-0.002614975,0.016359329,0,
00:02.5,0.000509262,-0.002620697,0.016393661,0,
00:02.5,0.00050354,-0.002637863,0.016376495,0,
00:02.5,0.000514984,-0.002620697,0.016365051,0,
00:02.5,0.000537872,-0.002592087,0.016370773,0,
00:02.5,0.000492096,-0.002603531,0.016376495,0,
00:02.5,0.000486374,-0.002597809,0.016365051,0,
00:02.5,0.00050354,-0.002609253,0.016353607,0,
00:02.5,0.000514984,-0.002597809,0.016359329,0,
00:02.5,0.000509262,-0.002603531,0.016359329,0,
00:02.5,0.000514984,-0.002626419,0.016353607,0,
00:02.5,0.000543594,-0.002620697,0.016353607,0,
00:02.5,0.000486374,-0.002609253,0.016365051,0,
00:02.5,0.000497818,-0.002603531,0.016382217,0,
00:02.5,0.000514984,-0.002603531,0.016370773,0,
00:02.5,0.000492096,-0.002609253,0.016353607,0,
00:02.5,0.000520706,-0.002614975,0.016336441,0,
00:02.5,0.000549316,-0.002620697,0.016324997,0,
00:02.5,0.000497818,-0.002620697,0.016382217,0,
00:02.5,0.00053215,-0.002603531,0.016370773,0,
00:02.5,0.000469208,-0.002597809,0.016387939,0,
00:02.6,0.000486374,-0.002603531,0.016387939,0,
00:02.6,0.000509262,-0.002614975,0.016376495,0,
00:02.6,0.000497818,-0.002626419,0.016359329,0,
00:02.6,0.000480652,-0.002614975,0.016365051,0,
00:02.6,0.000486374,-0.002603531,0.016365051,0,
00:02.6,0.000514984,-0.002603531,0.016365051,0,
00:02.6,0.000549316,-0.002637863,0.016365051,0,
00:02.6,0.000480652,-0.002614975,0.016370773,0,
00:02.6,0.00047493,-0.002592087,0.016365051,0,
00:02.6,0.000492096,-0.002592087,0.016353607,0,
00:02.6,0.00050354,-0.002609253,0.016359329,0,
00:02.6,0.000514984,-0.002626419,0.016347885,0,
00:02.6,0.00053215,-0.002626419,0.016319275,0,
00:02.6,0.000520706,-0.002614975,0.016382217,0,
00:02.6,0.000514984,-0.002597809,0.016370773,0,
00:02.6,0.000497818,-0.002603531,0.016302109,0,
00:02.6,0.00050354,-0.002597809,0.016353607,0,
00:02.6,0.000537872,-0.002609253,0.016336441,0,
00:02.6,0.000480652,-0.002626419,0.016365051,0,
00:02.6,0.000469208,-0.002626419,0.016376495,0,
00:02.6,0.00047493,-0.002609253,0.016370773,0,
00:02.6,0.000480652,-0.002609253,0.016382217,0,
00:02.6,0.000514984,-0.002614975,0.016365051,0,
00:02.6,0.000514984,-0.002643585,0.016296387,0,
00:02.6,0.00047493,-0.002626419,0.016336441,0,
00:02.7,0.000480652,-0.002603531,0.016410828,0,
00:02.7,0.000486374,-0.002597809,0.016376495,0,
00:02.7,0.000492096,-0.002609253,0.016365051,0,
00:02.7,0.000543594,-0.002597809,0.016353607,0,
00:02.7,0.000537872,-0.002597809,0.016330719,0,
00:02.7,0.000457764,-0.002603531,0.016319275,0,
00:02.7,0.000463486,-0.002626419,0.016387939,0,
00:02.7,0.000486374,-0.002614975,0.016359329,0,
00:02.7,0.00050354,-0.002603531,0.016365051,0,
00:02.7,0.00050354,-0.002603531,0.016347885,0,
00:02.7,0.000492096,-0.002609253,0.016353607,0,
00:02.7,0.000480652,-0.002597809,0.016353607,0,
00:02.7,0.000480652,-0.002614975,0.016347885,0,
00:02.7,0.00050354,-0.002626419,0.016376495,0,
00:02.7,0.000526428,-0.002626419,0.016347885,0,
00:02.7,0.00047493,-0.002626419,0.016336441,0,
00:02.7,0.000469208,-0.002609253,0.016376495,0,
00:02.7,0.000514984,-0.002597809,0.016359329,0,
00:02.7,0.00050354,-0.002597809,0.016359329,0,
00:02.7,0.000457764,-0.002626419,0.016365051,0,
00:02.7,0.000492096,-0.002637863,0.016347885,0,
00:02.7,0.000497818,-0.002637863,0.016336441,0,
00:02.7,0.000463486,-0.002603531,0.016370773,0,
00:02.7,0.000497818,-0.002586365,0.016347885,0,
00:02.7,0.000497818,-0.002592087,0.016347885,0,
00:02.8,0.000514984,-0.002603531,0.016342163,0,
00:02.8,0.000492096,-0.002603531,0.016307831,0,
00:02.8,0.00044632,-0.002614975,0.016393661,0,
00:02.8,0.000469208,-0.002626419,0.016370773,0,
00:02.8,0.000480652,-0.002620697,0.016342163,0,
00:02.8,0.00047493,-0.002609253,0.016353607,0,
00:02.8,0.000486374,-0.002586365,0.016359329,0,
00:02.8,0.000486374,-0.002597809,0.016376495,0,
00:02.8,0.000486374,-0.002597809,0.016359329,0,
00:02.8,0.000480652,-0.002614975,0.016353607,0,
00:02.8,0.00047493,-0.002603531,0.016347885,0,
00:02.8,0.00050354,-0.002597809,0.016359329,0,
00:02.8,0.000486374,-0.002626419,0.016353607,0,
00:02.8,0.000469208,-0.002632141,0.016342163,0,
00:02.8,0.000497818,-0.002626419,0.016342163,0,
00:02.8,0.000480652,-0.002609253,0.016347885,0,
00:02.8,0.000463486,-0.002597809,0.016365051,0,
00:02.8,0.000509262,-0.002609253,0.016365051,0,
00:02.8,0.000486374,-0.002626419,0.016313553,0,
00:02.8,0.000497818,-0.002614975,0.016330719,0,
00:02.8,0.000457764,-0.002603531,0.016359329,0,
00:02.8,0.000480652,-0.002603531,0.016376495,0,
00:02.8,0.000509262,-0.002597809,0.016359329,0,
00:02.8,0.000463486,-0.002603531,0.016365051,0,
00:02.8,0.000452042,-0.002614975,0.016365051,0,
00:02.9,0.000469208,-0.002614975,0.016353607,0,
00:02.9,0.000480652,-0.002614975,0.016313553,0,
00:02.9,0.000463486,-0.002620697,0.016370773,0,
00:02.9,0.00047493,-0.002632141,0.016353607,0,
00:02.9,0.000492096,-0.002614975,0.016365051,0,
00:02.9,0.000492096,-0.002592087,0.016359329,0,
00:02.9,0.000520706,-0.002597809,0.016330719,0,
00:02.9,0.000520706,-0.002603531,0.016342163,0,
00:02.9,0.000452042,-0.002614975,0.016370773,0,
00:02.9,0.000480652,-0.002609253,0.016370773,0,
00:02.9,0.000492096,-0.002620697,0.016365051,0,
00:02.9,0.000480652,-0.002620697,0.016359329,0,
00:02.9,0.000497818,-0.002609253,0.016279221,0,
00:02.9,0.00044632,-0.002603531,0.016336441,0,
00:02.9,0.000452042,-0.002626419,0.016393661,0,
00:02.9,0.000463486,-0.002609253,0.016382217,0,
00:02.9,0.000463486,-0.002609253,0.016359329,0,
00:02.9,0.000492096,-0.002609253,0.016330719,0,
00:02.9,0.000514984,-0.002586365,0.016353607,0,
00:02.9,0.00047493,-0.002614975,0.016313553,0,
00:02.9,0.000457764,-0.002614975,0.016342163,0,
00:02.9,0.00050354,-0.002620697,0.016359329,0,
00:02.9,0.000457764,-0.002620697,0.016330719,0,
00:02.9,0.000434875,-0.002626419,0.016370773,0,
00:02.9,0.000469208,-0.002614975,0.016376495,0,
00:03.0,0.00047493,-0.002609253,0.016359329,0,
00:03.0,0.000492096,-0.002609253,0.016342163,0,
00:03.0,0.000514984,-0.002614975,0.016302109,0,
00:03.0,0.000440598,-0.002609253,0.016365051,0,
00:03.0,0.000452042,-0.002609253,0.016382217,0,
00:03.0,0.000457764,-0.002614975,0.016359329,0,
00:03.0,0.00047493,-0.002586365,0.016342163,0,
00:03.0,0.00047493,-0.002609253,0.016359329,0,
00:03.0,0.000492096,-0.002620697,0.016347885,0,
00:03.0,0.000463486,-0.002609253,0.016342163,0,
00:03.0,0.000486374,-0.002597809,0.016347885,0,
00:03.0,0.000492096,-0.002597809,0.016359329,0,
00:00:03,0.00044632,-0.002609253,0.016353607,0,
00:03.0,0.00044632,-0.002614975,0.016324997,0,
00:03.0,0.000486374,-0.002614975,0.016302109,0,
00:03.0,0.00047493,-0.002609253,0.016382217,0,
00:03.0,0.00044632,-0.002597809,0.016347885,0,
00:03.0,0.000463486,-0.002609253,0.016347885,0,
00:03.0,0.00044632,-0.002620697,0.016347885,0,
00:03.0,0.000457764,-0.002620697,0.016353607,0,
00:03.0,0.000469208,-0.002597809,0.016353607,0,
00:03.0,0.000452042,-0.002586365,0.016347885,0,
00:03.0,0.000469208,-0.002609253,0.016336441,0,
00:03.0,0.000492096,-0.002620697,0.016336441,0,
00:03.0,0.000457764,-0.002649307,0.016342163,0,
00:03.1,0.000452042,-0.002609253,0.016319275,0,
00:03.1,0.000457764,-0.002574921,0.016365051,0,
00:03.1,0.00050354,-0.002609253,0.016359329,0,
00:03.1,0.000469208,-0.002632141,0.016319275,0,
00:03.1,0.000423431,-0.002626419,0.016342163,0,
00:03.1,0.000463486,-0.002603531,0.016365051,0,
00:03.1,0.000457764,-0.002603531,0.016347885,0,
00:03.1,0.000452042,-0.002609253,0.016359329,0,
00:03.1,0.000469208,-0.002597809,0.016342163,0,
00:03.1,0.000463486,-0.002609253,0.016336441,0,
00:03.1,0.00044632,-0.002620697,0.016359329,0,
00:03.1,0.00044632,-0.002603531,0.016330719,0,
00:03.1,0.00044632,-0.002597809,0.016290665,0,
00:03.1,0.00044632,-0.002603531,0.016353607,0,
00:03.1,0.000457764,-0.002603531,0.016365051,0,
00:03.1,0.00047493,-0.002586365,0.016347885,0,
00:03.1,0.000486374,-0.002597809,0.016324997,0,
00:03.1,0.00047493,-0.002609253,0.016342163,0,
00:03.1,0.000486374,-0.002603531,0.016347885,0,
00:03.1,0.000486374,-0.002597809,0.016353607,0,
00:03.1,0.000469208,-0.002632141,0.016353607,0,
00:03.1,0.000434875,-0.002609253,0.016319275,0,
00:03.1,0.00044632,-0.002597809,0.016324997,0,
00:03.1,0.000486374,-0.002614975,0.016336441,0,
00:03.1,0.00050354,-0.002603531,0.016353607,0,
00:03.2,0.000423431,-0.002603531,0.016359329,0,
00:03.2,0.000480652,-0.002597809,0.016324997,0,
00:03.2,0.000480652,-0.002620697,0.016342163,0,
00:03.2,0.000417709,-0.002637863,0.016359329,0,
00:03.2,0.000417709,-0.002597809,0.016342163,0,
00:03.2,0.000452042,-0.002592087,0.016342163,0,
00:03.2,0.00044632,-0.002609253,0.016342163,0,
00:03.2,0.000469208,-0.002614975,0.016313553,0,
00:03.2,0.000469208,-0.002597809,0.016302109,0,
00:03.2,0.000480652,-0.002614975,0.016330719,0,
00:03.2,0.00044632,-0.002609253,0.016336441,0,
00:03.2,0.000452042,-0.002632141,0.016376495,0,
00:03.2,0.000457764,-0.002637863,0.016313553,0,
00:03.2,0.000434875,-0.002643585,0.016319275,0,
00:03.2,0.000463486,-0.002637863,0.016376495,0,
00:03.2,0.00047493,-0.002603531,0.016353607,0,
00:03.2,0.000452042,-0.002580643,0.016336441,0,
00:03.2,0.000440598,-0.002563477,0.016347885,0,
00:03.2,0.00044632,-0.002603531,0.016347885,0,
00:03.2,0.000457764,-0.002614975,0.016353607,0,
00:03.2,0.000429153,-0.002609253,0.016342163,0,
00:03.2,0.00044632,-0.002603531,0.016347885,0,
00:03.2,0.000452042,-0.002597809,0.016342163,0,
00:03.2,0.00044632,-0.002609253,0.016342163,0,
00:03.2,0.000452042,-0.002609253,0.016324997,0,
00:03.3,0.000452042,-0.002586365,0.016330719,0,
00:03.3,0.000440598,-0.002592087,0.016342163,0,
00:03.3,0.00044632,-0.002609253,0.016347885,0,
00:03.3,0.000480652,-0.002603531,0.016330719,0,
00:03.3,0.000463486,-0.002609253,0.016319275,0,
00:03.3,0.000469208,-0.002609253,0.016336441,0,
00:03.3,0.00044632,-0.002614975,0.016319275,0,
00:03.3,0.000423431,-0.002614975,0.016324997,0,
00:03.3,0.000452042,-0.002609253,0.016296387,0,
00:03.3,0.00047493,-0.002586365,0.016353607,0,
00:03.3,0.000457764,-0.002603531,0.016376495,0,
00:03.3,0.000411987,-0.002620697,0.016370773,0,
00:03.3,0.000429153,-0.002586365,0.016353607,0,
00:03.3,0.000434875,-0.002597809,0.016336441,0,
00:03.3,0.000440598,-0.002626419,0.016336441,0,
00:03.3,0.000440598,-0.002614975,0.016342163,0,
00:03.3,0.000429153,-0.002597809,0.016336441,0,
00:03.3,0.000434875,-0.002580643,0.016330719,0,
00:03.3,0.00044632,-0.002586365,0.016336441,0,
00:03.3,0.000434875,-0.002609253,0.016353607,0,
00:03.3,0.000463486,-0.002614975,0.016359329,0,
00:03.3,0.00047493,-0.002592087,0.016324997,0,
00:03.3,0.000452042,-0.002586365,0.016324997,0,
00:03.3,0.000411987,-0.002597809,0.016342163,0,
00:03.3,0.000434875,-0.002609253,0.016347885,0,
00:03.4,0.00047493,-0.002597809,0.016342163,0,
00:03.4,0.000434875,-0.002597809,0.016336441,0,
00:03.4,0.000411987,-0.002592087,0.016324997,0,
00:03.4,0.000417709,-0.002592087,0.016353607,0,
00:03.4,0.000434875,-0.002597809,0.016342163,0,
00:03.4,0.000457764,-0.002609253,0.016330719,0,
00:03.4,0.000486374,-0.002592087,0.016273499,0,
00:03.4,0.000429153,-0.002592087,0.016273499,0,
00:03.4,0.000394821,-0.002597809,0.016370773,0,
00:03.4,0.000417709,-0.002620697,0.016365051,0,
00:03.4,0.00044632,-0.002603531,0.016342163,0,
00:03.4,0.000429153,-0.002592087,0.016365051,0,
00:03.4,0.000434875,-0.002597809,0.016347885,0,
00:03.4,0.000457764,-0.002586365,0.016330719,0,
00:03.4,0.000452042,-0.002603531,0.016330719,0,
00:03.4,0.000434875,-0.002603531,0.016342163,0,
00:03.4,0.000480652,-0.002609253,0.016330719,0,
00:03.4,0.000463486,-0.002597809,0.016324997,0,
00:03.4,0.000429153,-0.002597809,0.016347885,0,
00:03.4,0.000429153,-0.002597809,0.016342163,0,
00:03.4,0.000429153,-0.002597809,0.016336441,0,
00:03.4,0.000434875,-0.002592087,0.016313553,0,
00:03.4,0.000452042,-0.002592087,0.016296387,0,
00:03.4,0.000429153,-0.002586365,0.016313553,0,
00:03.4,0.000411987,-0.002586365,0.016353607,0,
00:03.5,0.000429153,-0.002592087,0.016359329,0,
00:03.5,0.000509262,-0.002597809,0.016359329,0,
00:03.5,0.000452042,-0.002603531,0.016330719,0,
00:03.5,0.000452042,-0.002603531,0.016313553,0,
00:03.5,0.000457764,-0.002580643,0.016313553,0,
00:03.5,0.000417709,-0.002569199,0.016319275,0,
00:03.5,0.000429153,-0.002603531,0.016313553,0,
00:03.5,0.000400543,-0.002632141,0.016307831,0,
00:03.5,0.000394821,-0.002620697,0.016365051,0,
00:03.5,0.000429153,-0.002574921,0.016336441,0,
00:03.5,0.000429153,-0.002574921,0.016347885,0,
00:03.5,0.000429153,-0.002580643,0.016347885,0,
00:03.5,0.000457764,-0.002586365,0.016336441,0,
00:03.5,0.000434875,-0.002592087,0.016330719,0,
00:03.5,0.000417709,-0.002592087,0.016330719,0,
00:03.5,0.000411987,-0.002597809,0.016330719,0,
00:03.5,0.000434875,-0.002603531,0.016319275,0,
00:03.5,0.00044632,-0.002592087,0.016296387,0,
00:03.5,0.000452042,-0.002586365,0.016359329,0,
00:03.5,0.000417709,-0.002586365,0.016336441,0,
00:03.5,0.000423431,-0.002603531,0.016319275,0,
00:03.5,0.000423431,-0.002597809,0.016336441,0,
00:03.5,0.000469208,-0.002592087,0.016330719,0,
00:03.5,0.000452042,-0.002609253,0.016313553,0,
00:03.5,0.000429153,-0.002574921,0.016324997,0,
00:03.6,0.000406265,-0.002586365,0.016324997,0,
00:03.6,0.000429153,-0.002592087,0.016330719,0,
00:03.6,0.000434875,-0.002603531,0.016324997,0,
00:03.6,0.000411987,-0.002597809,0.016302109,0,
00:03.6,0.000434875,-0.002586365,0.016324997,0,
00:03.6,0.000423431,-0.002592087,0.016319275,0,
00:03.6,0.000429153,-0.002586365,0.016296387,0,
00:03.6,0.000434875,-0.002580643,0.016336441,0,
00:03.6,0.00047493,-0.002574921,0.016347885,0,
00:03.6,0.000423431,-0.002592087,0.016336441,0,
00:03.6,0.000389099,-0.002592087,0.016324997,0,
00:03.6,0.000434875,-0.002597809,0.016313553,0,
00:03.6,0.000429153,-0.002603531,0.016290665,0,
00:03.6,0.000423431,-0.002586365,0.016342163,0,
00:03.6,0.000429153,-0.002586365,0.016319275,0,
00:03.6,0.000429153,-0.002586365,0.016313553,0,
00:03.6,0.000417709,-0.002597809,0.016324997,0,
00:03.6,0.00044632,-0.002586365,0.016330719,0,
00:03.6,0.000440598,-0.002557755,0.016307831,0,
00:03.6,0.000406265,-0.002586365,0.016313553,0,
00:03.6,0.000394821,-0.002609253,0.016330719,0,
00:03.6,0.000406265,-0.002609253,0.016319275,0,
00:03.6,0.000429153,-0.002586365,0.016313553,0,
00:03.6,0.000463486,-0.002586365,0.016319275,0,
00:03.6,0.000417709,-0.002592087,0.016290665,0,
00:03.7,0.000394821,-0.002597809,0.016342163,0,
00:03.7,0.000417709,-0.002592087,0.016324997,0,
00:03.7,0.000429153,-0.002592087,0.016319275,0,
00:03.7,0.000423431,-0.002574921,0.016313553,0,
00:03.7,0.000417709,-0.002580643,0.016307831,0,
00:03.7,0.000423431,-0.002597809,0.016284943,0,
00:03.7,0.00047493,-0.002603531,0.016262054,0,
00:03.7,0.000434875,-0.002580643,0.016319275,0,
00:03.7,0.000389099,-0.002597809,0.016319275,0,
00:03.7,0.000411987,-0.002609253,0.016313553,0,
00:03.7,0.000417709,-0.002597809,0.016324997,0,
00:03.7,0.00044632,-0.002586365,0.016324997,0,
00:03.7,0.000417709,-0.002592087,0.016307831,0,
00:03.7,0.000389099,-0.002603531,0.016313553,0,
00:03.7,0.000383377,-0.002603531,0.016313553,0,
00:03.7,0.000423431,-0.002574921,0.016296387,0,
00:03.7,0.000429153,-0.002574921,0.016284943,0,
00:03.7,0.000400543,-0.002592087,0.016324997,0,
00:03.7,0.00044632,-0.002580643,0.016324997,0,
00:03.7,0.000423431,-0.002580643,0.016307831,0,
00:03.7,0.000394821,-0.002597809,0.016313553,0,
00:03.7,0.000423431,-0.002586365,0.016302109,0,
00:03.7,0.000429153,-0.002592087,0.016296387,0,
00:03.7,0.000406265,-0.002586365,0.016279221,0,
00:03.7,0.000400543,-0.002586365,0.016319275,0,
00:03.8,0.000406265,-0.002592087,0.016319275,0,
00:03.8,0.000440598,-0.002592087,0.016307831,0,
00:03.8,0.000469208,-0.002597809,0.016262054,0,
00:03.8,0.000434875,-0.002597809,0.016307831,0,
00:03.8,0.000406265,-0.002592087,0.016307831,0,
00:03.8,0.000411987,-0.002586365,0.016313553,0,
00:03.8,0.000406265,-0.002592087,0.016324997,0,
00:03.8,0.000389099,-0.002586365,0.016319275,0,
00:03.8,0.000411987,-0.002586365,0.016313553,0,
00:03.8,0.000423431,-0.002614975,0.016296387,0,
00:03.8,0.000377655,-0.002603531,0.016313553,0,
00:03.8,0.000400543,-0.002586365,0.016319275,0,
00:03.8,0.000411987,-0.002592087,0.016307831,0,
00:03.8,0.000411987,-0.002586365,0.016302109,0,
00:03.8,0.000411987,-0.002586365,0.016302109,0,
00:03.8,0.000417709,-0.002580643,0.016313553,0,
00:03.8,0.000429153,-0.002580643,0.016296387,0,
00:03.8,0.000423431,-0.002592087,0.016302109,0,
00:03.8,0.000394821,-0.002592087,0.016307831,0,
00:03.8,0.000406265,-0.002586365,0.016302109,0,
00:03.8,0.000400543,-0.002603531,0.016319275,0,
00:03.8,0.000417709,-0.002592087,0.016296387,0,
00:03.8,0.000452042,-0.002603531,0.016296387,0,
00:03.8,0.000457764,-0.002592087,0.016262054,0,
00:03.8,0.000417709,-0.002586365,0.016244888,0,
00:03.9,0.000434875,-0.002580643,0.016336441,0,
00:03.9,0.000389099,-0.002614975,0.016279221,0,
00:03.9,0.000383377,-0.002586365,0.016302109,0,
00:03.9,0.000383377,-0.002574921,0.016330719,0,
00:03.9,0.000394821,-0.002563477,0.016313553,0,
00:03.9,0.000406265,-0.002586365,0.016302109,0,
00:03.9,0.000394821,-0.002592087,0.016302109,0,
00:03.9,0.000394821,-0.002597809,0.016313553,0,
00:03.9,0.000411987,-0.002580643,0.016302109,0,
00:03.9,0.000411987,-0.002580643,0.016296387,0,
00:03.9,0.000394821,-0.002574921,0.016302109,0,
00:03.9,0.000389099,-0.002580643,0.016296387,0,
00:03.9,0.000400543,-0.002586365,0.016302109,0,
00:03.9,0.000429153,-0.002580643,0.016296387,0,
00:03.9,0.000411987,-0.002603531,0.016302109,0,
00:03.9,0.000383377,-0.002609253,0.016302109,0,
00:03.9,0.000440598,-0.002592087,0.016290665,0,
00:03.9,0.000406265,-0.002580643,0.016302109,0,
00:03.9,0.000366211,-0.002586365,0.016313553,0,
00:03.9,0.000434875,-0.002586365,0.016284943,0,
00:03.9,0.000383377,-0.002592087,0.016279221,0,
00:03.9,0.000371933,-0.002580643,0.016284943,0,
00:03.9,0.000394821,-0.002580643,0.016262054,0,
00:03.9,0.000389099,-0.002586365,0.016290665,0,
00:03.9,0.000417709,-0.002574921,0.016342163,0,
00:04.0,0.000417709,-0.002586365,0.016307831,0,
00:04.0,0.000406265,-0.002603531,0.016279221,0,
00:04.0,0.000417709,-0.002614975,0.016273499,0,
00:04.0,0.000354767,-0.002597809,0.016319275,0,
00:04.0,0.000389099,-0.002569199,0.016307831,0,
00:04.0,0.000406265,-0.002586365,0.016296387,0,
00:04.0,0.000366211,-0.002586365,0.016290665,0,
00:04.0,0.000389099,-0.002580643,0.016262054,0,
00:04.0,0.000411987,-0.002580643,0.016279221,0,
00:04.0,0.000383377,-0.002580643,0.016302109,0,
00:04.0,0.000371933,-0.002592087,0.016313553,0,
00:04.0,0.000394821,-0.002597809,0.016296387,0,
00:00:04,0.000429153,-0.002609253,0.016273499,0,
00:04.0,0.00044632,-0.002580643,0.016267776,0,
00:04.0,0.000394821,-0.002586365,0.016302109,0,
00:04.0,0.000383377,-0.002592087,0.016307831,0,
00:04.0,0.000360489,-0.002603531,0.016302109,0,
00:04.0,0.000383377,-0.002580643,0.016273499,0,
00:04.0,0.000377655,-0.002586365,0.016256332,0,
00:04.0,0.000371933,-0.002574921,0.016319275,0,
00:04.0,0.000389099,-0.002557755,0.016307831,0,
00:04.0,0.000411987,-0.002586365,0.016302109,0,
00:04.0,0.000423431,-0.002597809,0.016284943,0,
00:04.0,0.000377655,-0.002609253,0.016256332,0,
00:04.0,0.000377655,-0.002597809,0.016267776,0,
00:04.1,0.000394821,-0.002592087,0.016319275,0,
00:04.1,0.000389099,-0.002580643,0.016296387,0,
00:04.1,0.000371933,-0.002580643,0.016267776,0,
00:04.1,0.000371933,-0.002586365,0.016279221,0,
00:04.1,0.000383377,-0.002586365,0.016279221,0,
00:04.1,0.000383377,-0.002586365,0.016319275,0,
00:04.1,0.000394821,-0.002580643,0.016302109,0,
00:04.1,0.000429153,-0.002592087,0.016296387,0,
00:04.1,0.000366211,-0.002597809,0.016262054,0,
00:04.1,0.000389099,-0.002592087,0.016302109,0,
00:04.1,0.000411987,-0.002609253,0.016296387,0,
00:04.1,0.000360489,-0.002580643,0.016284943,0,
00:04.1,0.000377655,-0.002557755,0.016256332,0,
00:04.1,0.000377655,-0.002569199,0.016239166,0,
00:04.1,0.000366211,-0.002586365,0.016319275,0,
00:04.1,0.000389099,-0.002592087,0.016296387,0,
00:04.1,0.000389099,-0.002603531,0.016307831,0,
00:04.1,0.000383377,-0.002580643,0.016290665,0,
00:04.1,0.000394821,-0.002580643,0.016273499,0,
00:04.1,0.000389099,-0.002620697,0.016290665,0,
00:04.1,0.000394821,-0.002597809,0.016279221,0,
00:04.1,0.000377655,-0.002580643,0.016256332,0,
00:04.1,0.000377655,-0.002597809,0.016279221,0,
00:04.1,0.000400543,-0.002592087,0.016302109,0,
00:04.1,0.000417709,-0.002597809,0.016296387,0,
00:04.2,0.000354767,-0.002614975,0.016273499,0,
00:04.2,0.000349045,-0.002597809,0.016273499,0,
00:04.2,0.000383377,-0.002574921,0.016302109,0,
00:04.2,0.000383377,-0.002597809,0.016284943,0,
00:04.2,0.000371933,-0.002597809,0.016284943,0,
00:04.2,0.000394821,-0.002609253,0.016290665,0,
00:04.2,0.000366211,-0.002620697,0.016290665,0,
00:04.2,0.000360489,-0.002620697,0.016284943,0,
00:04.2,0.000389099,-0.002603531,0.016279221,0,
00:04.2,0.000400543,-0.002592087,0.016256332,0,
00:04.2,0.000377655,-0.002586365,0.016262054,0,
00:04.2,0.000349045,-0.002609253,0.016330719,0,
00:04.2,0.000389099,-0.002620697,0.016290665,0,
00:04.2,0.000411987,-0.002626419,0.016279221,0,
00:04.2,0.000406265,-0.002586365,0.016290665,0,
00:04.2,0.000389099,-0.002592087,0.016267776,0,
00:04.2,0.000354767,-0.002614975,0.016273499,0,
00:04.2,0.000371933,-0.002609253,0.016267776,0,
00:04.2,0.000389099,-0.002609253,0.016244888,0,
00:04.2,0.000343323,-0.002632141,0.016324997,0,
00:04.2,0.000349045,-0.002614975,0.016296387,0,
00:04.2,0.000389099,-0.002597809,0.016273499,0,
00:04.2,0.000411987,-0.002609253,0.016267776,0,
00:04.2,0.000360489,-0.002626419,0.016296387,0,
00:04.2,0.000349045,-0.002614975,0.016296387,0,
00:04.3,0.000343323,-0.002620697,0.016284943,0,
00:04.3,0.000354767,-0.002614975,0.016279221,0,
00:04.3,0.000371933,-0.002586365,0.016267776,0,
00:04.3,0.000377655,-0.002609253,0.016284943,0,
00:04.3,0.000366211,-0.002626419,0.016296387,0,
00:04.3,0.000371933,-0.002620697,0.016279221,0,
00:04.3,0.000371933,-0.002620697,0.016262054,0,
00:04.3,0.000394821,-0.002626419,0.016233444,0,
00:04.3,0.000366211,-0.002614975,0.016307831,0,
00:04.3,0.000371933,-0.002609253,0.016296387,0,
00:04.3,0.000400543,-0.002614975,0.016262054,0,
00:04.3,0.000389099,-0.002620697,0.01625061,0,
00:04.3,0.000360489,-0.002603531,0.016256332,0,
00:04.3,0.000366211,-0.002603531,0.016279221,0,
00:04.3,0.000354767,-0.002614975,0.016267776,0,
00:04.3,0.000417709,-0.002632141,0.016290665,0,
00:04.3,0.000371933,-0.002592087,0.016296387,0,
00:04.3,0.000343323,-0.002597809,0.016279221,0,
00:04.3,0.000366211,-0.002620697,0.016284943,0,
00:04.3,0.000343323,-0.002626419,0.016279221,0,
00:04.3,0.000360489,-0.002620697,0.016279221,0,
00:04.3,0.000377655,-0.002614975,0.016284943,0,
00:04.3,0.000354767,-0.002620697,0.016284943,0,
00:04.3,0.000349045,-0.002592087,0.016279221,0,
00:04.3,0.000377655,-0.002592087,0.016273499,0,
00:04.4,0.000383377,-0.002597809,0.016267776,0,
00:04.4,0.000343323,-0.002620697,0.016279221,0,
00:04.4,0.000337601,-0.002632141,0.016279221,0,
00:04.4,0.000394821,-0.002603531,0.016267776,0,
00:04.4,0.00044632,-0.002603531,0.016216278,0,
00:04.4,0.000371933,-0.002574921,0.016227722,0,
00:04.4,0.000343323,-0.002597809,0.016313553,0,
00:04.4,0.000337601,-0.002614975,0.016307831,0,
00:04.4,0.000360489,-0.002592087,0.016262054,0,
00:04.4,0.000366211,-0.002609253,0.016244888,0,
00:04.4,0.000383377,-0.002614975,0.016307831,0,
00:04.4,0.000343323,-0.002603531,0.016284943,0,
00:04.4,0.000383377,-0.002597809,0.016284943,0,
00:04.4,0.000400543,-0.002609253,0.016267776,0,
00:04.4,0.000343323,-0.002597809,0.016267776,0,
00:04.4,0.000360489,-0.002592087,0.016284943,0,
00:04.4,0.000337601,-0.002626419,0.016279221,0,
00:04.4,0.000343323,-0.002609253,0.016279221,0,
00:04.4,0.000354767,-0.002597809,0.016273499,0,
00:04.4,0.000349045,-0.002597809,0.016273499,0,
00:04.4,0.000349045,-0.002614975,0.016267776,0,
00:04.4,0.000354767,-0.002614975,0.01625061,0,
00:04.4,0.000349045,-0.002609253,0.016244888,0,
00:04.4,0.000366211,-0.002603531,0.016267776,0,
00:04.4,0.000411987,-0.002603531,0.016284943,0,
00:04.5,0.000371933,-0.002609253,0.016284943,0,
00:04.5,0.000326157,-0.002597809,0.016273499,0,
00:04.5,0.000389099,-0.002592087,0.016239166,0,
00:04.5,0.000394821,-0.002597809,0.01616478,0,
00:04.5,0.000326157,-0.002603531,0.016262054,0,
00:04.5,0.000354767,-0.002614975,0.016324997,0,
00:04.5,0.000366211,-0.002620697,0.016296387,0,
00:04.5,0.000343323,-0.002603531,0.016262054,0,
00:04.5,0.000326157,-0.002603531,0.016262054,0,
00:04.5,0.000366211,-0.002609253,0.016279221,0,
00:04.5,0.000354767,-0.002614975,0.016267776,0,
00:04.5,0.000331879,-0.002620697,0.016273499,0,
00:04.5,0.000331879,-0.002597809,0.016262054,0,
00:04.5,0.000349045,-0.002574921,0.016273499,0,
00:04.5,0.000349045,-0.002609253,0.016262054,0,
00:04.5,0.000360489,-0.002592087,0.016244888,0,
00:04.5,0.000360489,-0.002603531,0.016267776,0,
00:04.5,0.000400543,-0.002614975,0.016267776,0,
00:04.5,0.000389099,-0.002580643,0.016256332,0,
00:04.5,0.000331879,-0.002597809,0.01625061,0,
00:04.5,0.000331879,-0.002603531,0.016239166,0,
00:04.5,0.000326157,-0.002609253,0.01625061,0,
00:04.5,0.000366211,-0.002614975,0.01625061,0,
00:04.5,0.000337601,-0.002597809,0.01625061,0,
00:04.5,0.000331879,-0.002586365,0.016296387,0,
00:04.6,0.000337601,-0.002614975,0.016273499,0,
00:04.6,0.000343323,-0.002614975,0.016262054,0,
00:04.6,0.000354767,-0.002626419,0.016227722,0,
00:04.6,0.000337601,-0.002609253,0.016273499,0,
00:04.6,0.000349045,-0.002603531,0.016273499,0,
00:04.6,0.000389099,-0.002609253,0.016262054,0,
00:04.6,0.000337601,-0.002592087,0.016262054,0,
00:04.6,0.000320435,-0.002586365,0.016267776,0,
00:04.6,0.000349045,-0.002580643,0.016244888,0,
00:04.6,0.000394821,-0.002586365,0.016267776,0,
00:04.6,0.000411987,-0.002592087,0.016239166,0,
00:04.6,0.000331879,-0.002597809,0.016262054,0,
00:04.6,0.000320435,-0.002603531,0.016256332,0,
00:04.6,0.000326157,-0.002609253,0.01625061,0,
00:04.6,0.000343323,-0.002609253,0.01625061,0,
00:04.6,0.000349045,-0.002592087,0.016273499,0,
00:04.6,0.000349045,-0.002592087,0.016256332,0,
00:04.6,0.000354767,-0.002609253,0.016199112,0,
00:04.6,0.000337601,-0.002603531,0.016233444,0,
00:04.6,0.000354767,-0.002597809,0.016302109,0,
00:04.6,0.000331879,-0.002603531,0.016279221,0,
00:04.6,0.000337601,-0.002609253,0.016262054,0,
00:04.6,0.000371933,-0.002597809,0.016210556,0,
00:04.6,0.000326157,-0.002592087,0.01625061,0,
00:04.6,0.000326157,-0.002592087,0.016290665,0,
00:04.7,0.000331879,-0.002609253,0.016267776,0,
00:04.7,0.000343323,-0.002592087,0.016244888,0,
00:04.7,0.000354767,-0.002609253,0.01625061,0,
00:04.7,0.000343323,-0.002603531,0.01625061,0,
00:04.7,0.000366211,-0.002592087,0.01625061,0,
00:04.7,0.000371933,-0.002592087,0.01625061,0,
00:04.7,0.000331879,-0.002614975,0.016273499,0,
00:04.7,0.000383377,-0.002597809,0.016267776,0,
00:04.7,0.000406265,-0.002586365,0.016222,0,
00:04.7,0.000349045,-0.002597809,0.016239166,0,
00:04.7,0.000320435,-0.002592087,0.016284943,0,
00:04.7,0.000303268,-0.002592087,0.016273499,0,
00:04.7,0.000320435,-0.002592087,0.016262054,0,
00:04.7,0.000343323,-0.002603531,0.016227722,0,
00:04.7,0.000360489,-0.002597809,0.016233444,0,
00:04.7,0.000343323,-0.002603531,0.016290665,0,
00:04.7,0.000343323,-0.002603531,0.016279221,0,
00:04.7,0.000360489,-0.002597809,0.016267776,0,
00:04.7,0.000303268,-0.002586365,0.016262054,0,
00:04.7,0.000320435,-0.002580643,0.016256332,0,
00:04.7,0.000337601,-0.002586365,0.016233444,0,
00:04.7,0.000360489,-0.002597809,0.016227722,0,
00:04.7,0.000343323,-0.002603531,0.01625061,0,
00:04.7,0.000337601,-0.002586365,0.016256332,0,
00:04.7,0.000366211,-0.002586365,0.016267776,0,
00:04.8,0.000337601,-0.002597809,0.016256332,0,
00:04.8,0.00030899,-0.002597809,0.016267776,0,
00:04.8,0.000331879,-0.002569199,0.016239166,0,
00:04.8,0.000326157,-0.002592087,0.016262054,0,
00:04.8,0.000343323,-0.002614975,0.016262054,0,
00:04.8,0.000354767,-0.002592087,0.016262054,0,
00:04.8,0.000349045,-0.002592087,0.016244888,0,
00:04.8,0.000326157,-0.002586365,0.01625061,0,
00:04.8,0.000337601,-0.002592087,0.01625061,0,
00:04.8,0.000354767,-0.002586365,0.016244888,0,
00:04.8,0.000354767,-0.002574921,0.016210556,0,
00:04.8,0.000343323,-0.002563477,0.01625061,0,
00:04.8,0.000331879,-0.002586365,0.016284943,0,
00:04.8,0.000331879,-0.002597809,0.016267776,0,
00:04.8,0.000326157,-0.002597809,0.016256332,0,
00:04.8,0.000314713,-0.002592087,0.016227722,0,
00:04.8,0.000331879,-0.002597809,0.016233444,0,
00:04.8,0.000326157,-0.002592087,0.016267776,0,
00:04.8,0.000326157,-0.002580643,0.016262054,0,
00:04.8,0.000326157,-0.002574921,0.016267776,0,
00:04.8,0.000331879,-0.002569199,0.016256332,0,
00:04.8,0.000331879,-0.002574921,0.01625061,0,
00:04.8,0.000326157,-0.002586365,0.01625061,0,
00:04.8,0.000337601,-0.002592087,0.016256332,0,
00:04.8,0.000343323,-0.002586365,0.016244888,0,
00:04.9,0.000349045,-0.002574921,0.016244888,0,
00:04.9,0.000343323,-0.002597809,0.016273499,0,
00:04.9,0.000320435,-0.002609253,0.016256332,0,
00:04.9,0.000343323,-0.002592087,0.016256332,0,
00:04.9,0.000343323,-0.002580643,0.016239166,0,
00:04.9,0.000314713,-0.002592087,0.016244888,0,
00:04.9,0.000337601,-0.002586365,0.016273499,0,
00:04.9,0.000371933,-0.002592087,0.01625061,0,
00:04.9,0.000326157,-0.002597809,0.016239166,0,
00:04.9,0.000291824,-0.002574921,0.016262054,0,
00:04.9,0.000314713,-0.002603531,0.016244888,0,
00:04.9,0.000349045,-0.002609253,0.016210556,0,
00:04.9,0.000326157,-0.002557755,0.016216278,0,
00:04.9,0.000297546,-0.002586365,0.016273499,0,
00:04.9,0.000314713,-0.002603531,0.016279221,0,
00:04.9,0.000320435,-0.002586365,0.016267776,0,
00:04.9,0.00030899,-0.002586365,0.016262054,0,
00:04.9,0.000314713,-0.002586365,0.016256332,0,
00:04.9,0.000314713,-0.002580643,0.016244888,0,
00:04.9,0.000314713,-0.002586365,0.016244888,0,
00:04.9,0.000326157,-0.002592087,0.01625061,0,
00:04.9,0.000337601,-0.002597809,0.016256332,0,
00:04.9,0.000326157,-0.002592087,0.01625061,0,
00:04.9,0.000331879,-0.002580643,0.01625061,0,
00:04.9,0.000320435,-0.002580643,0.01625061,0,
00:05.0,0.000343323,-0.002574921,0.016227722,0,
00:05.0,0.000326157,-0.002580643,0.016216278,0,
00:05.0,0.000349045,-0.002580643,0.016256332,0,
00:05.0,0.000360489,-0.002586365,0.016244888,0,
00:05.0,0.000349045,-0.002592087,0.016262054,0,
00:05.0,0.000314713,-0.002592087,0.016239166,0,
00:05.0,0.000303268,-0.002586365,0.016244888,0,
00:05.0,0.000320435,-0.002620697,0.016239166,0,
00:05.0,0.000274658,-0.002586365,0.016302109,0,
00:05.0,0.000297546,-0.002569199,0.016267776,0,
00:05.0,0.000326157,-0.002574921,0.016267776,0,
00:05.0,0.000314713,-0.002580643,0.016267776,0,
00:00:05,0.000326157,-0.002563477,0.016244888,0,
00:05.0,0.000303268,-0.002580643,0.016256332,0,
00:05.0,0.000297546,-0.002580643,0.016262054,0,
00:05.0,0.00030899,-0.002586365,0.01625061,0,
00:05.0,0.000343323,-0.002614975,0.016262054,0,
00:05.0,0.000320435,-0.002586365,0.016267776,0,
00:05.0,0.000297546,-0.002574921,0.016244888,0,
00:05.0,0.00030899,-0.002569199,0.01625061,0,
00:05.0,0.000320435,-0.002580643,0.016262054,0,
00:05.0,0.000337601,-0.002574921,0.016239166,0,
00:05.0,0.000337601,-0.002580643,0.016210556,0,
00:05.0,0.000286102,-0.002586365,0.01625061,0,
00:05.0,0.000314713,-0.002574921,0.016307831,0,
00:05.1,0.000360489,-0.002586365,0.016267776,0,
00:05.1,0.000331879,-0.002580643,0.016267776,0,
00:05.1,0.000303268,-0.002580643,0.016239166,0,
00:05.1,0.000297546,-0.002597809,0.016233444,0,
00:05.1,0.000303268,-0.002580643,0.016307831,0,
00:05.1,0.000343323,-0.002557755,0.016279221,0,
00:05.1,0.000286102,-0.002563477,0.016244888,0,
00:05.1,0.000286102,-0.002574921,0.016273499,0,
00:05.1,0.000314713,-0.002580643,0.016267776,0,
00:05.1,0.000331879,-0.002580643,0.016267776,0,
00:05.1,0.000291824,-0.002569199,0.016267776,0,
00:05.1,0.000303268,-0.002580643,0.016273499,0,
00:05.1,0.00030899,-0.002580643,0.016262054,0,
00:05.1,0.000314713,-0.002592087,0.016267776,0,
00:05.1,0.00030899,-0.002569199,0.016267776,0,
00:05.1,0.000291824,-0.002563477,0.016256332,0,
00:05.1,0.00030899,-0.002563477,0.016284943,0,
00:05.1,0.000320435,-0.002586365,0.016262054,0,
00:05.1,0.00030899,-0.002580643,0.016262054,0,
00:05.1,0.000291824,-0.002574921,0.016279221,0,
00:05.1,0.000286102,-0.002574921,0.016284943,0,
00:05.1,0.00030899,-0.002569199,0.016273499,0,
00:05.1,0.000314713,-0.002580643,0.016262054,0,
00:05.1,0.000291824,-0.002580643,0.016279221,0,
00:05.1,0.000286102,-0.002586365,0.016284943,0,
00:05.2,0.000303268,-0.002580643,0.016279221,0,
00:05.2,0.00030899,-0.002552032,0.016273499,0,
00:05.2,0.000303268,-0.002574921,0.016279221,0,
00:05.2,0.000303268,-0.002580643,0.016273499,0,
00:05.2,0.000291824,-0.002574921,0.016262054,0,
00:05.2,0.00028038,-0.002592087,0.016290665,0,
00:05.2,0.00028038,-0.002592087,0.016302109,0,
00:05.2,0.000286102,-0.002580643,0.016284943,0,
00:05.2,0.000297546,-0.002569199,0.016279221,0,
00:05.2,0.00030899,-0.002563477,0.016279221,0,
00:05.2,0.000291824,-0.002569199,0.016284943,0,
00:05.2,0.000297546,-0.002574921,0.016290665,0,
00:05.2,0.00030899,-0.002569199,0.016284943,0,
00:05.2,0.000366211,-0.002552032,0.016273499,0,
00:05.2,0.000326157,-0.002557755,0.016262054,0,
00:05.2,0.000303268,-0.002574921,0.016267776,0,
00:05.2,0.00030899,-0.002580643,0.016290665,0,
00:05.2,0.000291824,-0.002557755,0.016239166,0,
00:05.2,0.000268936,-0.002563477,0.016313553,0,
00:05.2,0.00028038,-0.002574921,0.016324997,0,
00:05.2,0.000320435,-0.002557755,0.016296387,0,
00:05.2,0.000286102,-0.002569199,0.016313553,0,
00:05.2,0.00025177,-0.002563477,0.016302109,0,
00:05.2,0.000263214,-0.002580643,0.016307831,0,
00:05.2,0.000263214,-0.002569199,0.016307831,0,
00:05.3,0.000268936,-0.002563477,0.016313553,0,
00:05.3,0.00028038,-0.002569199,0.016313553,0,
00:05.3,0.00028038,-0.002574921,0.016307831,0,
00:05.3,0.00028038,-0.002580643,0.016307831,0,
00:05.3,0.000286102,-0.002574921,0.016307831,0,
00:05.3,0.000263214,-0.002580643,0.016307831,0,
00:05.3,0.000297546,-0.002552032,0.016307831,0,
00:05.3,0.000297546,-0.002552032,0.016307831,0,
00:05.3,0.000303268,-0.00254631,0.016324997,0,
00:05.3,0.000343323,-0.002586365,0.016290665,0,
00:05.3,0.000274658,-0.002569199,0.016267776,0,
00:05.3,0.000240326,-0.002557755,0.016353607,0,
00:05.3,0.00025177,-0.002563477,0.016353607,0,
00:05.3,0.000268936,-0.002569199,0.016330719,0,
00:05.3,0.000303268,-0.002569199,0.016273499,0,
00:05.3,0.00028038,-0.002574921,0.016313553,0,
00:05.3,0.000234604,-0.002569199,0.016376495,0,
00:05.3,0.000246048,-0.002574921,0.016342163,0,
00:05.3,0.000263214,-0.002563477,0.016336441,0,
00:05.3,0.000291824,-0.002563477,0.016324997,0,
00:05.3,0.00030899,-0.002557755,0.016336441,0,
00:05.3,0.000257492,-0.002552032,0.016342163,0,
00:05.3,0.000246048,-0.002569199,0.016330719,0,
00:05.3,0.00025177,-0.002574921,0.016353607,0,
00:05.3,0.00025177,-0.002597809,0.016347885,0,
00:05.4,0.000291824,-0.002586365,0.016347885,0,
00:05.4,0.00030899,-0.00254631,0.016353607,0,
00:05.4,0.000274658,-0.002534866,0.016347885,0,
00:05.4,0.000240326,-0.002540588,0.016353607,0,
00:05.4,0.00025177,-0.002557755,0.016365051,0,
00:05.4,0.000257492,-0.002574921,0.016359329,0,
00:05.4,0.000268936,-0.002580643,0.016342163,0,
00:05.4,0.000314713,-0.002586365,0.016353607,0,
00:05.4,0.00028038,-0.002552032,0.016353607,0,
00:05.4,0.000274658,-0.002563477,0.016324997,0,
00:05.4,0.000240326,-0.002574921,0.016296387,0,
00:05.4,0.000234604,-0.002569199,0.016387939,0,
00:05.4,0.000263214,-0.002540588,0.016370773,0,
00:05.4,0.000286102,-0.002557755,0.016370773,0,
00:05.4,0.000257492,-0.002569199,0.016393661,0,
00:05.4,0.000246048,-0.002552032,0.016387939,0,
00:05.4,0.000257492,-0.002552032,0.016365051,0,
00:05.4,0.000274658,-0.002557755,0.016370773,0,
00:05.4,0.000246048,-0.002569199,0.016370773,0,
00:05.4,0.000257492,-0.002574921,0.016376495,0,
00:05.4,0.000257492,-0.002557755,0.016382217,0,
00:05.4,0.000257492,-0.00254631,0.016376495,0,
00:05.4,0.00025177,-0.002563477,0.016382217,0,
00:05.4,0.000263214,-0.002580643,0.016376495,0,
00:05.4,0.000268936,-0.002557755,0.016376495,0,
00:05.5,0.000228882,-0.002569199,0.016382217,0,
00:05.5,0.000268936,-0.002552032,0.016365051,0,
00:05.5,0.000286102,-0.002557755,0.016387939,0,
00:05.5,0.00028038,-0.002552032,0.016410828,0,
00:05.5,0.000303268,-0.00254631,0.016393661,0,
00:05.5,0.00025177,-0.002557755,0.016405106,0,
00:05.5,0.00022316,-0.002563477,0.016370773,0,
00:05.5,0.000234604,-0.002580643,0.016302109,0,
00:05.5,0.00022316,-0.002569199,0.016410828,0,
00:05.5,0.000257492,-0.002557755,0.016468048,0,
00:05.5,0.000274658,-0.00254631,0.01641655,0,
00:05.5,0.00025177,-0.002552032,0.01641655,0,
00:05.5,0.000228882,-0.002569199,0.016399384,0,
00:05.5,0.00022316,-0.002574921,0.01641655,0,
00:05.5,0.00025177,-0.002563477,0.016410828,0,
00:05.5,0.00025177,-0.002534866,0.01641655,0,
00:05.5,0.000228882,-0.002557755,0.01641655,0,
00:05.5,0.000240326,-0.002563477,0.016410828,0,
00:05.5,0.000234604,-0.002540588,0.01641655,0,
00:05.5,0.000234604,-0.002552032,0.01641655,0,
00:05.5,0.000246048,-0.002569199,0.016410828,0,
00:05.5,0.000246048,-0.002557755,0.016427994,0,
00:05.5,0.000268936,-0.002557755,0.016433716,0,
00:05.5,0.000257492,-0.002552032,0.016422272,0,
00:05.5,0.000257492,-0.002557755,0.016422272,0,
00:05.6,0.000257492,-0.00254631,0.016410828,0,
00:05.6,0.000240326,-0.002552032,0.016433716,0,
00:05.6,0.000228882,-0.002563477,0.016450882,0,
00:05.6,0.00028038,-0.002563477,0.016427994,0,
00:05.6,0.00022316,-0.002563477,0.016399384,0,
00:05.6,0.000211716,-0.002580643,0.016462326,0,
00:05.6,0.00022316,-0.002563477,0.016450882,0,
00:05.6,0.000263214,-0.002534866,0.01644516,0,
00:05.6,0.000257492,-0.00254631,0.01644516,0,
00:05.6,0.000228882,-0.002563477,0.016450882,0,
00:05.6,0.000228882,-0.002574921,0.016439438,0,
00:05.6,0.00022316,-0.002552032,0.016427994,0,
00:05.6,0.00022316,-0.002552032,0.016456604,0,
00:05.6,0.000234604,-0.00254631,0.016468048,0,
00:05.6,0.000217438,-0.002552032,0.016468048,0,
00:05.6,0.00022316,-0.00254631,0.016456604,0,
00:05.6,0.000234604,-0.002563477,0.01644516,0,
00:05.6,0.000217438,-0.002557755,0.016456604,0,
00:05.6,0.000240326,-0.002552032,0.016479492,0,
00:05.6,0.000257492,-0.002557755,0.016462326,0,
00:05.6,0.00022316,-0.002540588,0.016462326,0,
00:05.6,0.000211716,-0.002540588,0.016468048,0,
00:05.6,0.000211716,-0.002552032,0.016468048,0,
00:05.6,0.00022316,-0.002557755,0.01647377,0,
00:05.6,0.000257492,-0.002563477,0.01647377,0,
00:05.7,0.000234604,-0.002563477,0.016456604,0,
00:05.7,0.000211716,-0.002557755,0.016479492,0,
00:05.7,0.000205994,-0.002580643,0.016462326,0,
00:05.7,0.000228882,-0.002534866,0.01644516,0,
00:05.7,0.000217438,-0.002552032,0.016485214,0,
00:05.7,0.000205994,-0.002557755,0.016496658,0,
00:05.7,0.000217438,-0.002569199,0.016479492,0,
00:05.7,0.00025177,-0.002569199,0.016456604,0,
00:05.7,0.00022316,-0.002580643,0.016439438,0,
00:05.7,0.000205994,-0.002557755,0.016513824,0,
00:05.7,0.000217438,-0.002552032,0.01650238,0,
00:05.7,0.000228882,-0.00254631,0.016496658,0,
00:05.7,0.00022316,-0.002552032,0.016485214,0,
00:05.7,0.000205994,-0.002563477,0.016468048,0,
00:05.7,0.00019455,-0.002557755,0.016490936,0,
00:05.7,0.000200272,-0.002552032,0.016513824,0,
00:05.7,0.000211716,-0.002557755,0.016496658,0,
00:05.7,0.00022316,-0.002574921,0.016468048,0,
00:05.7,0.000257492,-0.002574921,0.016468048,0,
00:05.7,0.00022316,-0.002557755,0.016508102,0,
00:05.7,0.00019455,-0.00254631,0.016496658,0,
00:05.7,0.000205994,-0.002534866,0.016513824,0,
00:05.7,0.000211716,-0.002540588,0.016496658,0,
00:05.7,0.000200272,-0.002552032,0.016490936,0,
00:05.7,0.000200272,-0.002540588,0.016525269,0,
00:05.8,0.000211716,-0.00254631,0.016513824,0,
00:05.8,0.000217438,-0.002552032,0.01650238,0,
00:05.8,0.000228882,-0.002563477,0.01650238,0,
00:05.8,0.000217438,-0.002557755,0.016479492,0,
00:05.8,0.000171661,-0.002552032,0.016485214,0,
00:05.8,0.000188828,-0.002552032,0.016542435,0,
00:05.8,0.000188828,-0.00254631,0.016536713,0,
00:05.8,0.000188828,-0.002557755,0.016513824,0,
00:05.8,0.000188828,-0.002563477,0.016508102,0,
00:05.8,0.000217438,-0.002552032,0.016513824,0,
00:05.8,0.00022316,-0.002552032,0.016496658,0,
00:05.8,0.00022316,-0.002552032,0.01650238,0,
00:05.8,0.000177383,-0.002540588,0.016530991,0,
00:05.8,0.000183105,-0.00254631,0.016513824,0,
00:05.8,0.000188828,-0.002552032,0.016525269,0,
00:05.8,0.000211716,-0.002523422,0.016513824,0,
00:05.8,0.000228882,-0.00254631,0.016530991,0,
00:05.8,0.000183105,-0.00254631,0.016519547,0,
00:05.8,0.000200272,-0.002552032,0.016513824,0,
00:05.8,0.000205994,-0.002563477,0.016485214,0,
00:05.8,0.000183105,-0.002552032,0.01650238,0,
00:05.8,0.000183105,-0.002552032,0.016525269,0,
00:05.8,0.000171661,-0.002563477,0.016542435,0,
00:05.8,0.000183105,-0.00254631,0.016542435,0,
00:05.8,0.000205994,-0.00254631,0.016548157,0,
00:05.9,0.000188828,-0.00254631,0.016530991,0,
00:05.9,0.000177383,-0.002540588,0.016525269,0,
00:05.9,0.00019455,-0.00254631,0.016525269,0,
00:05.9,0.00019455,-0.00254631,0.016519547,0,
00:05.9,0.000205994,-0.00254631,0.016485214,0,
00:05.9,0.000183105,-0.002540588,0.016548157,0,
00:05.9,0.000165939,-0.002563477,0.016530991,0,
00:05.9,0.000200272,-0.002529144,0.016548157,0,
00:05.9,0.000228882,-0.002529144,0.016536713,0,
00:05.9,0.000160217,-0.002557755,0.016525269,0,
00:05.9,0.000165939,-0.002563477,0.016525269,0,
00:05.9,0.000200272,-0.00254631,0.016553879,0,
00:05.9,0.000205994,-0.002540588,0.016548157,0,
00:05.9,0.000165939,-0.002552032,0.016530991,0,
00:05.9,0.000165939,-0.00254631,0.016542435,0,
00:05.9,0.000177383,-0.002552032,0.016542435,0,
00:05.9,0.000154495,-0.002563477,0.016548157,0,
00:05.9,0.000165939,-0.002557755,0.016553879,0,
00:05.9,0.000165939,-0.002569199,0.016548157,0,
00:05.9,0.000165939,-0.002563477,0.016542435,0,
00:05.9,0.000200272,-0.00254631,0.016508102,0,
00:05.9,0.000183105,-0.0025177,0.01650238,0,
00:05.9,0.000183105,-0.0025177,0.016582489,0,
00:05.9,0.000200272,-0.00254631,0.016565323,0,
00:05.9,0.000183105,-0.002569199,0.016542435,0,
00:06.0,0.000188828,-0.002552032,0.016553879,0,
00:06.0,0.000200272,-0.002529144,0.016548157,0,
00:06.0,0.00019455,-0.002534866,0.016508102,0,
00:06.0,0.00019455,-0.00254631,0.016548157,0,
00:06.0,0.000125885,-0.002563477,0.016588211,0,
00:06.0,0.000148773,-0.002523422,0.016559601,0,
00:06.0,0.000160217,-0.002529144,0.016548157,0,
00:06.0,0.000188828,-0.002552032,0.016548157,0,
00:06.0,0.000171661,-0.002534866,0.016553879,0,
00:06.0,0.000143051,-0.002534866,0.016559601,0,
00:06.0,0.000165939,-0.002540588,0.016559601,0,
00:06.0,0.000148773,-0.002563477,0.016576767,0,
00:00:06,0.000160217,-0.002552032,0.016565323,0,
00:06.0,0.000183105,-0.002534866,0.016559601,0,
00:06.0,0.000171661,-0.002529144,0.016559601,0,
00:06.0,0.000183105,-0.002523422,0.016559601,0,
00:06.0,0.000165939,-0.00254631,0.016536713,0,
00:06.0,0.000143051,-0.00254631,0.016548157,0,
00:06.0,0.000165939,-0.002540588,0.016530991,0,
00:06.0,0.00022316,-0.002534866,0.016571045,0,
00:06.0,0.000183105,-0.00254631,0.016588211,0,
00:06.0,0.000114441,-0.00254631,0.016582489,0,
00:06.0,0.000131607,-0.002557755,0.016576767,0,
00:06.0,0.000143051,-0.002563477,0.016548157,0,
00:06.0,0.000177383,-0.002529144,0.016508102,0,
00:06.1,0.000177383,-0.002534866,0.016571045,0,
00:06.1,0.000160217,-0.002511978,0.016576767,0,
00:06.1,0.000160217,-0.002529144,0.016576767,0,
00:06.1,0.000120163,-0.00254631,0.016588211,0,
00:06.1,0.000137329,-0.002540588,0.016571045,0,
00:06.1,0.000137329,-0.002552032,0.016565323,0,
00:06.1,0.000154495,-0.002540588,0.016571045,0,
00:06.1,0.000165939,-0.002529144,0.016571045,0,
00:06.1,0.000137329,-0.002534866,0.016565323,0,
00:06.1,0.000160217,-0.002540588,0.016565323,0,
00:06.1,0.000143051,-0.002540588,0.016559601,0,
00:06.1,0.000137329,-0.00254631,0.016565323,0,
00:06.1,0.000148773,-0.00254631,0.016548157,0,
00:06.1,0.00019455,-0.002540588,0.016536713,0,
00:06.1,0.000177383,-0.002540588,0.016571045,0,
00:06.1,0.000137329,-0.002540588,0.016571045,0,
00:06.1,0.000114441,-0.00254631,0.016576767,0,
00:06.1,0.000120163,-0.002557755,0.016582489,0,
00:06.1,0.000120163,-0.002574921,0.016576767,0,
00:06.1,0.000131607,-0.002569199,0.016582489,0,
00:06.1,0.000137329,-0.002540588,0.016559601,0,
00:06.1,0.000183105,-0.002494812,0.016559601,0,
00:06.1,0.000171661,-0.002534866,0.016542435,0,
00:06.1,0.000171661,-0.00254631,0.016576767,0,
00:06.1,0.000125885,-0.002540588,0.016599655,0,
00:06.2,9.73E-05,-0.002540588,0.016576767,0,
00:06.2,0.000131607,-0.002523422,0.016565323,0,
00:06.2,0.000131607,-0.00254631,0.016565323,0,
00:06.2,0.000125885,-0.002557755,0.016565323,0,
00:06.2,0.000160217,-0.002563477,0.016571045,0,
00:06.2,0.000131607,-0.002534866,0.016565323,0,
00:06.2,0.000148773,-0.002523422,0.016576767,0,
00:06.2,0.000137329,-0.002529144,0.016548157,0,
00:06.2,0.000102997,-0.002540588,0.016582489,0,
00:06.2,0.000125885,-0.002540588,0.016582489,0,
00:06.2,0.000160217,-0.002534866,0.016588211,0,
00:06.2,0.000131607,-0.002540588,0.016559601,0,
00:06.2,0.000143051,-0.002540588,0.016530991,0,
00:06.2,0.000183105,-0.002552032,0.016588211,0,
00:06.2,0.000120163,-0.002552032,0.016576767,0,
00:06.2,9.73E-05,-0.002563477,0.016559601,0,
00:06.2,0.000154495,-0.0025177,0.016519547,0,
00:06.2,0.000120163,-0.002540588,0.016571045,0,
00:06.2,0.000114441,-0.002529144,0.016599655,0,
00:06.2,0.000120163,-0.002534866,0.016582489,0,
00:06.2,9.73E-05,-0.002552032,0.016576767,0,
00:06.2,0.000108719,-0.002552032,0.016559601,0,
00:06.2,0.000114441,-0.002523422,0.016548157,0,
00:06.2,0.000131607,-0.002523422,0.016588211,0,
00:06.2,0.000120163,-0.002523422,0.016565323,0,
00:06.3,0.000120163,-0.002523422,0.016571045,0,
00:06.3,0.000102997,-0.002523422,0.016576767,0,
00:06.3,0.000102997,-0.002540588,0.016565323,0,
00:06.3,0.000108719,-0.002540588,0.016571045,0,
00:06.3,0.000120163,-0.002529144,0.016571045,0,
00:06.3,0.000165939,-0.002523422,0.016565323,0,
00:06.3,0.000177383,-0.002540588,0.016548157,0,
00:06.3,8.58E-05,-0.002557755,0.016513824,0,
00:06.3,0.000102997,-0.002540588,0.016593933,0,
00:06.3,0.000137329,-0.002529144,0.016559601,0,
00:06.3,0.000114441,-0.0025177,0.016571045,0,
00:06.3,6.87E-05,-0.0025177,0.016582489,0,
00:06.3,8.01E-05,-0.0025177,0.016548157,0,
00:06.3,0.000125885,-0.00254631,0.016519547,0,
00:06.3,0.000114441,-0.002534866,0.016565323,0,
00:06.3,7.44E-05,-0.0025177,0.016571045,0,
00:06.3,8.58E-05,-0.002540588,0.016593933,0,
00:06.3,8.58E-05,-0.002540588,0.016565323,0,
00:06.3,8.58E-05,-0.00254631,0.016565323,0,
00:06.3,9.16E-05,-0.002529144,0.016571045,0,
00:06.3,0.000108719,-0.0025177,0.016553879,0,
00:06.3,0.000108719,-0.0025177,0.016553879,0,
00:06.3,8.01E-05,-0.002523422,0.016559601,0,
00:06.3,0.000102997,-0.002523422,0.016559601,0,
00:06.3,0.000131607,-0.002523422,0.016548157,0,
00:06.4,0.000114441,-0.002534866,0.016548157,0,
00:06.4,9.16E-05,-0.00254631,0.016536713,0,
00:06.4,0.000125885,-0.00254631,0.016571045,0,
00:06.4,6.29E-05,-0.002540588,0.016553879,0,
00:06.4,4.58E-05,-0.002534866,0.016559601,0,
00:06.4,8.01E-05,-0.002523422,0.016571045,0,
00:06.4,8.58E-05,-0.002511978,0.016565323,0,
00:06.4,9.16E-05,-0.0025177,0.016542435,0,
00:06.4,0.000120163,-0.002534866,0.016508102,0,
00:06.4,0.000114441,-0.002540588,0.016548157,0,
00:06.4,6.29E-05,-0.002534866,0.016536713,0,
00:06.4,5.15E-05,-0.002552032,0.016536713,0,
00:06.4,6.29E-05,-0.002540588,0.016582489,0,
00:06.4,9.16E-05,-0.002511978,0.016565323,0,
00:06.4,0.000120163,-0.002511978,0.016565323,0,
00:06.4,0.000114441,-0.0025177,0.016553879,0,
00:06.4,6.87E-05,-0.0025177,0.016548157,0,
00:06.4,5.15E-05,-0.002529144,0.016559601,0,
00:06.4,6.87E-05,-0.002534866,0.016542435,0,
00:06.4,9.73E-05,-0.002523422,0.016536713,0,
00:06.4,9.16E-05,-0.002529144,0.016536713,0,
00:06.4,8.01E-05,-0.002523422,0.016553879,0,
00:06.4,0.000131607,-0.002529144,0.016553879,0,
00:06.4,8.01E-05,-0.002529144,0.016548157,0,
00:06.4,8.01E-05,-0.002523422,0.016559601,0,
00:06.5,5.15E-05,-0.002529144,0.016553879,0,
00:06.5,4.58E-05,-0.002534866,0.016542435,0,
00:06.5,4.58E-05,-0.002540588,0.016542435,0,
00:06.5,5.72E-05,-0.002529144,0.016553879,0,
00:06.5,8.01E-05,-0.002523422,0.016542435,0,
00:06.5,6.29E-05,-0.002540588,0.016542435,0,
00:06.5,5.72E-05,-0.002529144,0.016536713,0,
00:06.5,7.44E-05,-0.002529144,0.016548157,0,
00:06.5,9.16E-05,-0.002511978,0.016530991,0,
00:06.5,6.29E-05,-0.002523422,0.016496658,0,
00:06.5,6.87E-05,-0.002529144,0.016530991,0,
00:06.5,6.29E-05,-0.002529144,0.016582489,0,
00:06.5,6.87E-05,-0.002540588,0.016553879,0,
00:06.5,5.15E-05,-0.002529144,0.016530991,0,
00:06.5,5.72E-05,-0.0025177,0.016536713,0,
00:06.5,0.000108719,-0.002494812,0.016530991,0,
00:06.5,8.01E-05,-0.0025177,0.016525269,0,
00:06.5,3.43E-05,-0.002529144,0.016559601,0,
00:06.5,4.58E-05,-0.002529144,0.016548157,0,
00:06.5,4.58E-05,-0.002523422,0.016548157,0,
00:06.5,4.01E-05,-0.002511978,0.016548157,0,
00:06.5,5.15E-05,-0.002529144,0.016536713,0,
00:06.5,7.44E-05,-0.002523422,0.016536713,0,
00:06.5,8.58E-05,-0.002523422,0.016525269,0,
00:06.5,4.01E-05,-0.00254631,0.016530991,0,
00:06.6,4.58E-05,-0.002563477,0.016519547,0,
00:06.6,4.01E-05,-0.002500534,0.016530991,0,
00:06.6,3.43E-05,-0.00248909,0.016519547,0,
00:06.6,4.01E-05,-0.0025177,0.016496658,0,
00:06.6,5.15E-05,-0.002529144,0.016571045,0,
00:06.6,5.72E-05,-0.002534866,0.016553879,0,
00:06.6,2.29E-05,-0.002529144,0.016553879,0,
00:06.6,3.43E-05,-0.002523422,0.016525269,0,
00:06.6,4.01E-05,-0.002523422,0.016536713,0,
00:06.6,5.15E-05,-0.002523422,0.016542435,0,
00:06.6,4.58E-05,-0.002511978,0.016536713,0,
00:06.6,6.29E-05,-0.0025177,0.016536713,0,
00:06.6,6.87E-05,-0.002523422,0.016530991,0,
00:06.6,4.01E-05,-0.002534866,0.016490936,0,
00:06.6,5.15E-05,-0.0025177,0.016525269,0,
00:06.6,4.01E-05,-0.0025177,0.016548157,0,
00:06.6,3.43E-05,-0.002506256,0.016530991,0,
00:06.6,5.15E-05,-0.002511978,0.016490936,0,
00:06.6,5.15E-05,-0.002552032,0.016548157,0,
00:06.6,5.72E-05,-0.00254631,0.016519547,0,
00:06.6,3.43E-05,-0.002511978,0.016530991,0,
00:06.6,1.14E-05,-0.002500534,0.016553879,0,
00:06.6,1.14E-05,-0.0025177,0.016536713,0,
00:06.6,2.86E-05,-0.002523422,0.016536713,0,
00:06.6,1.72E-05,-0.00254631,0.016530991,0,
00:06.7,2.29E-05,-0.002523422,0.016542435,0,
00:06.7,4.01E-05,-0.002500534,0.016530991,0,
00:06.7,8.58E-05,-0.0025177,0.016479492,0,
00:06.7,2.86E-05,-0.0025177,0.016519547,0,
00:06.7,5.72E-06,-0.002523422,0.016559601,0,
00:06.7,3.43E-05,-0.0025177,0.016542435,0,
00:06.7,2.86E-05,-0.002529144,0.016525269,0,
00:06.7,4.01E-05,-0.002511978,0.016519547,0,
00:06.7,7.44E-05,-0.002529144,0.016525269,0,
00:06.7,5.15E-05,-0.002540588,0.016508102,0,
00:06.7,-1.14E-05,-0.002534866,0.016508102,0,
00:06.7,-1.14E-05,-0.0025177,0.016536713,0,
00:06.7,2.86E-05,-0.002494812,0.016525269,0,
00:06.7,4.58E-05,-0.002506256,0.016519547,0,
00:06.7,5.72E-06,-0.002506256,0.016519547,0,
00:06.7,0,-0.002523422,0.016519547,0,
00:06.7,5.72E-06,-0.002529144,0.016513824,0,
00:06.7,2.29E-05,-0.002540588,0.016525269,0,
00:06.7,1.72E-05,-0.002534866,0.01650238,0,
00:06.7,0,-0.002511978,0.016513824,0,
00:06.7,0,-0.002511978,0.016536713,0,
00:06.7,5.72E-06,-0.002506256,0.016530991,0,
00:06.7,1.14E-05,-0.002511978,0.016519547,0,
00:06.7,2.86E-05,-0.0025177,0.016508102,0,
00:06.7,4.58E-05,-0.0025177,0.016513824,0,
00:06.8,5.72E-06,-0.002529144,0.016530991,0,
00:06.8,2.86E-05,-0.0025177,0.016513824,0,
00:06.8,7.44E-05,-0.002511978,0.016479492,0,
00:06.8,1.72E-05,-0.002523422,0.01647377,0,
00:06.8,5.72E-06,-0.0025177,0.016542435,0,
00:06.8,-2.86E-05,-0.002511978,0.016542435,0,
00:06.8,-1.72E-05,-0.002511978,0.016513824,0,
00:06.8,1.14E-05,-0.0025177,0.016525269,0,
00:06.8,-5.72E-06,-0.002529144,0.016519547,0,
00:06.8,-1.14E-05,-0.0025177,0.01650238,0,
00:06.8,-1.14E-05,-0.002511978,0.016513824,0,
00:06.8,1.14E-05,-0.002511978,0.016513824,0,
00:06.8,1.72E-05,-0.002506256,0.016479492,0,
00:06.8,-1.72E-05,-0.00254631,0.016496658,0,
00:06.8,-1.14E-05,-0.002523422,0.016496658,0,
00:06.8,1.72E-05,-0.002483368,0.016490936,0,
00:06.8,2.29E-05,-0.0025177,0.016513824,0,
00:06.8,5.72E-06,-0.002523422,0.016485214,0,
00:06.8,-2.86E-05,-0.002529144,0.016508102,0,
00:06.8,-1.14E-05,-0.002511978,0.016525269,0,
00:06.8,2.86E-05,-0.002494812,0.01650238,0,
00:06.8,4.58E-05,-0.002511978,0.016513824,0,
00:06.8,-2.29E-05,-0.002523422,0.016508102,0,
00:06.8,-4.58E-05,-0.002529144,0.01650238,0,
00:06.8,-1.14E-05,-0.002529144,0.016490936,0,
00:06.9,1.14E-05,-0.0025177,0.016490936,0,
00:06.9,-5.72E-06,-0.002540588,0.016468048,0,
00:06.9,1.72E-05,-0.002529144,0.016479492,0,
00:06.9,-1.14E-05,-0.002511978,0.016525269,0,
00:06.9,-2.29E-05,-0.00248909,0.016508102,0,
00:06.9,1.14E-05,-0.00248909,0.016496658,0,
00:06.9,-2.86E-05,-0.002511978,0.016479492,0,
00:06.9,-2.86E-05,-0.002511978,0.01647377,0,
00:06.9,0,-0.0025177,0.016485214,0,
00:06.9,-1.72E-05,-0.002534866,0.016508102,0,
00:06.9,-2.86E-05,-0.002529144,0.016508102,0,
00:06.9,-3.43E-05,-0.0025177,0.016490936,0,
00:06.9,-2.86E-05,-0.002506256,0.016485214,0,
00:06.9,4.01E-05,-0.002506256,0.016450882,0,
00:06.9,2.29E-05,-0.002523422,0.016490936,0,
00:06.9,-6.87E-05,-0.002523422,0.016513824,0,
00:06.9,-4.58E-05,-0.002523422,0.01650238,0,
00:06.9,-2.29E-05,-0.0025177,0.016490936,0,
00:06.9,5.72E-06,-0.0025177,0.016490936,0,
00:06.9,-1.14E-05,-0.002529144,0.016450882,0,
00:06.9,-2.86E-05,-0.0025177,0.016485214,0,
00:06.9,-4.01E-05,-0.002523422,0.01650238,0,
00:06.9,-2.86E-05,-0.002529144,0.016485214,0,
00:06.9,-2.86E-05,-0.002506256,0.01647377,0,
00:06.9,-2.29E-05,-0.002494812,0.016433716,0,
00:07.0,-1.72E-05,-0.002500534,0.01650238,0,
00:07.0,-2.29E-05,-0.0025177,0.016519547,0,
00:07.0,-5.72E-06,-0.002511978,0.016479492,0,
00:07.0,1.14E-05,-0.002500534,0.016468048,0,
00:07.0,-5.15E-05,-0.002511978,0.016490936,0,
00:07.0,-4.01E-05,-0.002500534,0.016485214,0,
00:07.0,-3.43E-05,-0.002511978,0.01647377,0,
00:07.0,-2.86E-05,-0.002529144,0.01647377,0,
00:07.0,-4.58E-05,-0.002534866,0.016479492,0,
00:07.0,-1.14E-05,-0.002534866,0.016485214,0,
00:07.0,-2.29E-05,-0.002529144,0.016468048,0,
00:07.0,-1.14E-05,-0.00248909,0.016450882,0,
00:00:07,-2.86E-05,-0.002506256,0.016479492,0,
00:07.0,-5.15E-05,-0.002506256,0.016468048,0,
00:07.0,-5.15E-05,-0.002523422,0.016479492,0,
00:07.0,-4.58E-05,-0.002523422,0.016468048,0,
00:07.0,-4.58E-05,-0.002523422,0.016485214,0,
00:07.0,-4.58E-05,-0.0025177,0.016462326,0,
00:07.0,-5.15E-05,-0.002511978,0.016479492,0,
00:07.0,-4.58E-05,-0.002494812,0.016479492,0,
00:07.0,-4.58E-05,-0.002506256,0.016468048,0,
00:07.0,-4.01E-05,-0.0025177,0.016462326,0,
00:07.0,-2.86E-05,-0.0025177,0.016450882,0,
00:07.0,-3.43E-05,-0.002500534,0.016462326,0,
00:07.0,-2.86E-05,-0.002500534,0.016456604,0,
00:07.1,-2.86E-05,-0.002511978,0.016433716,0,
00:07.1,-4.01E-05,-0.002523422,0.016468048,0,
00:07.1,-5.15E-05,-0.002506256,0.016422272,0,
00:07.1,-5.15E-05,-0.002511978,0.016462326,0,
00:07.1,-2.86E-05,-0.0025177,0.01647377,0,
00:07.1,-3.43E-05,-0.002534866,0.016422272,0,
00:07.1,-6.87E-05,-0.002534866,0.016485214,0,
00:07.1,-5.72E-05,-0.002506256,0.016485214,0,
00:07.1,-3.43E-05,-0.00248909,0.016468048,0,
00:07.1,-1.72E-05,-0.002494812,0.016456604,0,
00:07.1,-5.72E-05,-0.002511978,0.016462326,0,
00:07.1,-6.87E-05,-0.002540588,0.016433716,0,
00:07.1,-8.58E-05,-0.002523422,0.016439438,0,
00:07.1,-8.01E-05,-0.0025177,0.01647377,0,
00:07.1,-5.15E-05,-0.002511978,0.016456604,0,
00:07.1,-4.01E-05,-0.002500534,0.016439438,0,
00:07.1,-7.44E-05,-0.002511978,0.016462326,0,
00:07.1,-6.87E-05,-0.002506256,0.016456604,0,
00:07.1,-5.72E-05,-0.002511978,0.01644516,0,
00:07.1,-5.72E-05,-0.002511978,0.01644516,0,
00:07.1,-6.87E-05,-0.002511978,0.016433716,0,
00:07.1,-5.15E-05,-0.002511978,0.01644516,0,
00:07.1,-4.01E-05,-0.0025177,0.016450882,0,
00:07.1,-7.44E-05,-0.002523422,0.016450882,0,
00:07.1,-9.16E-05,-0.002511978,0.01644516,0,
00:07.2,-5.15E-05,-0.00248909,0.016439438,0,
00:07.2,-5.72E-05,-0.002511978,0.016462326,0,
00:07.2,-8.01E-05,-0.002523422,0.016450882,0,
00:07.2,-7.44E-05,-0.002534866,0.016439438,0,
00:07.2,-8.01E-05,-0.002529144,0.016393661,0,
00:07.2,-5.72E-05,-0.002506256,0.016439438,0,
00:07.2,-2.86E-05,-0.002500534,0.01647377,0,
00:07.2,-5.15E-05,-0.002511978,0.016427994,0,
00:07.2,-9.16E-05,-0.0025177,0.016450882,0,
00:07.2,-2.86E-05,-0.002500534,0.016405106,0,
00:07.2,-3.43E-05,-0.002483368,0.016387939,0,
00:07.2,-0.000102997,-0.002494812,0.016456604,0,
00:07.2,-7.44E-05,-0.002511978,0.016456604,0,
00:07.2,-5.15E-05,-0.002511978,0.016410828,0,
00:07.2,-5.72E-05,-0.002500534,0.016439438,0,
00:07.2,-6.87E-05,-0.002500534,0.016433716,0,
00:07.2,-4.58E-05,-0.002506256,0.016462326,0,
00:07.2,-9.16E-05,-0.002511978,0.01644516,0,
00:07.2,-0.000102997,-0.002511978,0.016439438,0,
00:07.2,-8.01E-05,-0.002500534,0.016433716,0,
00:07.2,-8.01E-05,-0.002511978,0.016427994,0,
00:07.2,-7.44E-05,-0.002506256,0.016427994,0,
00:07.2,-6.29E-05,-0.002511978,0.016433716,0,
00:07.2,-8.58E-05,-0.0025177,0.016427994,0,
00:07.2,-9.16E-05,-0.0025177,0.016422272,0,
00:07.3,-8.01E-05,-0.0025177,0.016405106,0,
00:07.3,-6.29E-05,-0.002523422,0.016427994,0,
00:07.3,-4.01E-05,-0.002529144,0.016370773,0,
00:07.3,-0.000108719,-0.002511978,0.016427994,0,
00:07.3,-6.87E-05,-0.002494812,0.016456604,0,
00:07.3,-6.29E-05,-0.0025177,0.016427994,0,
00:07.3,-6.87E-05,-0.002511978,0.016405106,0,
00:07.3,-1.72E-05,-0.002494812,0.016382217,0,
00:07.3,-5.72E-05,-0.002523422,0.016410828,0,
00:07.3,-0.000131607,-0.0025177,0.016422272,0,
00:07.3,-0.000108719,-0.002500534,0.016456604,0,
00:07.3,-9.73E-05,-0.002500534,0.016433716,0,
00:07.3,-8.01E-05,-0.002506256,0.016427994,0,
00:07.3,-9.16E-05,-0.002511978,0.01641655,0,
00:07.3,-9.16E-05,-0.002511978,0.01641655,0,
00:07.3,-9.16E-05,-0.002500534,0.016399384,0,
00:07.3,-5.15E-05,-0.002500534,0.016410828,0,
00:07.3,-8.01E-05,-0.002511978,0.016422272,0,
00:07.3,-0.000114441,-0.002523422,0.01641655,0,
00:07.3,-0.000108719,-0.002506256,0.016405106,0,
00:07.3,-0.000102997,-0.002506256,0.01641655,0,
00:07.3,-9.73E-05,-0.002494812,0.01641655,0,
00:07.3,-8.01E-05,-0.002494812,0.016399384,0,
00:07.3,-6.29E-05,-0.002500534,0.016405106,0,
00:07.3,-9.73E-05,-0.002494812,0.016410828,0,
00:07.4,-0.000102997,-0.002506256,0.016393661,0,
00:07.4,-9.16E-05,-0.002511978,0.016353607,0,
00:07.4,-6.87E-05,-0.002511978,0.016427994,0,
00:07.4,5.72E-06,-0.002511978,0.016399384,0,
00:07.4,-7.44E-05,-0.002477646,0.016393661,0,
00:07.4,-0.000114441,-0.002477646,0.016439438,0,
00:07.4,-0.000102997,-0.0025177,0.016410828,0,
00:07.4,-0.000120163,-0.002534866,0.016370773,0,
00:07.4,-0.000102997,-0.002483368,0.016387939,0,
00:07.4,-0.000102997,-0.002506256,0.016422272,0,
00:07.4,-0.000108719,-0.002511978,0.01641655,0,
00:07.4,-9.16E-05,-0.002483368,0.016399384,0,
00:07.4,-8.58E-05,-0.002483368,0.016382217,0,
00:07.4,-0.000102997,-0.00248909,0.016382217,0,
00:07.4,-0.000114441,-0.002494812,0.016410828,0,
00:07.4,-0.000108719,-0.002511978,0.016410828,0,
00:07.4,-0.000108719,-0.002529144,0.016405106,0,
00:07.4,-0.000108719,-0.002511978,0.016393661,0,
00:07.4,-0.000102997,-0.002506256,0.016387939,0,
00:07.4,-0.000102997,-0.00248909,0.016387939,0,
00:07.4,-0.000114441,-0.00248909,0.016393661,0,
00:07.4,-9.73E-05,-0.002506256,0.016382217,0,
00:07.4,-8.01E-05,-0.002494812,0.016376495,0,
00:07.4,-6.87E-05,-0.002471924,0.016376495,0,
00:07.4,-2.29E-05,-0.002494812,0.016359329,0,
00:07.5,-8.01E-05,-0.002494812,0.016347885,0,
00:07.5,-0.000108719,-0.002500534,0.016382217,0,
00:07.5,-0.000137329,-0.002494812,0.016382217,0,
00:07.5,-0.000108719,-0.002494812,0.016410828,0,
00:07.5,-0.000102997,-0.002500534,0.016405106,0,
00:07.5,-0.000125885,-0.002511978,0.016393661,0,
00:07.5,-0.000137329,-0.002506256,0.016376495,0,
00:07.5,-0.000125885,-0.002506256,0.016370773,0,
00:07.5,-0.000120163,-0.002500534,0.016376495,0,
00:07.5,-0.000114441,-0.002483368,0.016382217,0,
00:07.5,-0.000102997,-0.002483368,0.016382217,0,
00:07.5,-0.000108719,-0.00248909,0.016382217,0,
00:07.5,-0.000114441,-0.002506256,0.016382217,0,
00:07.5,-0.000108719,-0.002494812,0.016376495,0,
00:07.5,-0.000108719,-0.002466202,0.016370773,0,
00:07.5,-0.000114441,-0.002477646,0.016376495,0,
00:07.5,-0.000108719,-0.002483368,0.016370773,0,
00:07.5,-0.000102997,-0.00248909,0.016347885,0,
00:07.5,-7.44E-05,-0.002500534,0.016370773,0,
00:07.5,-9.73E-05,-0.002500534,0.016359329,0,
00:07.5,-0.000131607,-0.00248909,0.016382217,0,
00:07.5,-9.73E-05,-0.002483368,0.016370773,0,
00:07.5,1.72E-05,-0.002477646,0.016387939,0,
00:07.5,-5.15E-05,-0.00248909,0.016359329,0,
00:07.5,-0.000200272,-0.002506256,0.016353607,0,
00:07.6,-0.000160217,-0.002500534,0.016347885,0,
00:07.6,-0.000131607,-0.002494812,0.016353607,0,
00:07.6,-0.000108719,-0.00248909,0.016405106,0,
00:07.6,-0.000131607,-0.002500534,0.016370773,0,
00:07.6,-0.000131607,-0.002511978,0.016359329,0,
00:07.6,-0.000131607,-0.002483368,0.016376495,0,
00:07.6,-9.16E-05,-0.002477646,0.016353607,0,
00:07.6,-0.000102997,-0.002483368,0.016324997,0,
00:07.6,-0.000137329,-0.00246048,0.016382217,0,
00:07.6,-0.000108719,-0.002466202,0.016376495,0,
00:07.6,-0.000108719,-0.002483368,0.016370773,0,
00:07.6,-9.16E-05,-0.002471924,0.016365051,0,
00:07.6,-0.000108719,-0.00248909,0.016359329,0,
00:07.6,-0.000125885,-0.002494812,0.016365051,0,
00:07.6,-0.000114441,-0.002494812,0.016376495,0,
00:07.6,-0.000102997,-0.00248909,0.016370773,0,
00:07.6,-4.01E-05,-0.002477646,0.016359329,0,
00:07.6,-0.000143051,-0.002477646,0.016342163,0,
00:07.6,-0.000171661,-0.002471924,0.016365051,0,
00:07.6,-0.000148773,-0.002494812,0.016370773,0,
00:07.6,-0.000143051,-0.002500534,0.016353607,0,
00:07.6,-0.000131607,-0.002494812,0.016365051,0,
00:07.6,-0.000114441,-0.002494812,0.016324997,0,
00:07.6,-0.000114441,-0.002494812,0.016290665,0,
00:07.6,-0.000143051,-0.002466202,0.016387939,0,
00:07.7,-0.000137329,-0.002477646,0.016376495,0,
00:07.7,-0.000125885,-0.002477646,0.016365051,0,
00:07.7,-0.000114441,-0.002500534,0.016347885,0,
00:07.7,-0.000108719,-0.002494812,0.016336441,0,
00:07.7,-0.000125885,-0.00248909,0.016347885,0,
00:07.7,-0.000131607,-0.002500534,0.016359329,0,
00:07.7,-0.000131607,-0.002477646,0.016307831,0,
00:07.7,-0.000143051,-0.002483368,0.016376495,0,
00:07.7,-0.000137329,-0.002477646,0.016376495,0,
00:07.7,-0.000125885,-0.002477646,0.016365051,0,
00:07.7,-0.000114441,-0.002483368,0.016353607,0,
00:07.7,-8.01E-05,-0.002483368,0.016347885,0,
00:07.7,-7.44E-05,-0.00248909,0.016347885,0,
00:07.7,-0.000125885,-0.002500534,0.016342163,0,
00:07.7,-0.000125885,-0.002494812,0.016330719,0,
00:07.7,-0.000125885,-0.002500534,0.016347885,0,
00:07.7,-0.000165939,-0.002477646,0.016347885,0,
00:07.7,-0.000137329,-0.00246048,0.016330719,0,
00:07.7,-0.000114441,-0.00246048,0.016296387,0,
00:07.7,-0.000131607,-0.002466202,0.016347885,0,
00:07.7,-0.000120163,-0.002500534,0.016353607,0,
00:07.7,-0.000137329,-0.002511978,0.016342163,0,
00:07.7,-0.000137329,-0.002494812,0.016307831,0,
00:07.7,-0.000137329,-0.002506256,0.016313553,0,
00:07.7,-0.000154495,-0.002483368,0.016365051,0,
00:07.8,-0.000131607,-0.00246048,0.016359329,0,
00:07.8,-0.000137329,-0.002477646,0.016353607,0,
00:07.8,-0.000148773,-0.002483368,0.016336441,0,
00:07.8,-0.000137329,-0.002500534,0.016330719,0,
00:07.8,-0.000131607,-0.002506256,0.016342163,0,
00:07.8,-0.000108719,-0.002477646,0.016336441,0,
00:07.8,-6.87E-05,-0.00246048,0.016319275,0,
00:07.8,-9.16E-05,-0.00248909,0.016296387,0,
00:07.8,-0.000177383,-0.002506256,0.016347885,0,
00:07.8,-0.000131607,-0.00248909,0.016336441,0,
00:07.8,-9.73E-05,-0.002477646,0.016330719,0,
00:07.8,-0.000114441,-0.00246048,0.016319275,0,
00:07.8,-0.000137329,-0.00246048,0.016307831,0,
00:07.8,-0.000154495,-0.002471924,0.016336441,0,
00:07.8,-0.000143051,-0.002483368,0.016336441,0,
00:07.8,-0.000125885,-0.00248909,0.016302109,0,
00:07.8,-0.000131607,-0.00248909,0.016330719,0,
00:07.8,-0.000148773,-0.00248909,0.016330719,0,
00:07.8,-0.000143051,-0.002483368,0.016324997,0,
00:07.8,-0.000120163,-0.002483368,0.016296387,0,
00:07.8,-0.000148773,-0.00248909,0.016330719,0,
00:07.8,-0.000148773,-0.00248909,0.016324997,0,
00:07.8,-0.000131607,-0.002471924,0.016284943,0,
00:07.8,-0.000154495,-0.002471924,0.016342163,0,
00:07.8,-0.000143051,-0.00248909,0.016342163,0,
00:07.9,-0.000143051,-0.00246048,0.016330719,0,
00:07.9,-0.000143051,-0.00246048,0.016313553,0,
00:07.9,-0.000114441,-0.002477646,0.016307831,0,
00:07.9,-9.16E-05,-0.002466202,0.016319275,0,
00:07.9,-0.000114441,-0.002466202,0.016302109,0,
00:07.9,-0.000171661,-0.002471924,0.016284943,0,
00:07.9,-0.000108719,-0.002477646,0.016319275,0,
00:07.9,-9.73E-05,-0.002477646,0.016324997,0,
00:07.9,-0.000171661,-0.00246048,0.016302109,0,
00:07.9,-0.000165939,-0.002466202,0.016330719,0,
00:07.9,-0.000160217,-0.002477646,0.016324997,0,
00:07.9,-0.000154495,-0.002483368,0.016296387,0,
00:07.9,-0.000154495,-0.002494812,0.016313553,0,
00:07.9,-0.000137329,-0.002477646,0.016324997,0,
00:07.9,-0.000143051,-0.002471924,0.016307831,0,
00:07.9,-0.000131607,-0.002454758,0.016307831,0,
00:07.9,-0.000137329,-0.002494812,0.016296387,0,
00:07.9,-0.000154495,-0.00248909,0.016313553,0,
00:07.9,-0.000137329,-0.002477646,0.016307831,0,
00:07.9,-0.000137329,-0.002466202,0.016307831,0,
00:07.9,-0.000137329,-0.002454758,0.016307831,0,
00:07.9,-0.000125885,-0.002454758,0.016302109,0,
00:07.9,-0.000120163,-0.00246048,0.016296387,0,
00:07.9,-9.16E-05,-0.002466202,0.016307831,0,
00:07.9,-0.000120163,-0.002471924,0.016267776,0,
00:08.0,-0.000143051,-0.002471924,0.016279221,0,
00:08.0,-0.000148773,-0.002477646,0.016296387,0,
00:08.0,-0.000183105,-0.002483368,0.016267776,0,
00:08.0,-0.000183105,-0.002483368,0.016353607,0,
00:08.0,-0.000154495,-0.002477646,0.016319275,0,
00:08.0,-0.000114441,-0.002466202,0.016302109,0,
00:08.0,-0.000137329,-0.002466202,0.016307831,0,
00:08.0,-0.000160217,-0.00248909,0.016290665,0,
00:08.0,-0.000154495,-0.00248909,0.016296387,0,
00:08.0,-0.000160217,-0.002466202,0.016307831,0,
00:08.0,-0.000131607,-0.002454758,0.016290665,0,
00:08.0,-0.000137329,-0.00246048,0.016307831,0,
00:00:08,-0.000160217,-0.002483368,0.016302109,0,
00:08.0,-0.000154495,-0.002494812,0.016290665,0,
00:08.0,-0.000143051,-0.00246048,0.016302109,0,
00:08.0,-0.000125885,-0.002449036,0.016290665,0,
00:08.0,-0.000108719,-0.002443314,0.016296387,0,
00:08.0,-0.000143051,-0.002449036,0.016302109,0,
00:08.0,-0.000154495,-0.00246048,0.016284943,0,
00:08.0,-0.000148773,-0.00246048,0.016290665,0,
00:08.0,-0.000102997,-0.002454758,0.016296387,0,
00:08.0,-0.000108719,-0.002454758,0.016273499,0,
00:08.0,-0.000148773,-0.002449036,0.016233444,0,
00:08.0,-0.000154495,-0.002437592,0.016307831,0,
00:08.0,-0.000154495,-0.002443314,0.016313553,0,
00:08.1,-0.000137329,-0.002466202,0.016302109,0,
00:08.1,-0.000165939,-0.002471924,0.016273499,0,
00:08.1,-0.000171661,-0.002471924,0.016284943,0,
00:08.1,-0.000154495,-0.002449036,0.016267776,0,
00:08.1,-0.000137329,-0.002454758,0.016267776,0,
00:08.1,-0.000131607,-0.002437592,0.016284943,0,
00:08.1,-0.000137329,-0.002443314,0.016307831,0,
00:08.1,-0.000143051,-0.00246048,0.016290665,0,
00:08.1,-0.000143051,-0.002477646,0.016279221,0,
00:08.1,-0.000114441,-0.002454758,0.016267776,0,
00:08.1,-0.000114441,-0.002449036,0.016279221,0,
00:08.1,-0.000154495,-0.002449036,0.016290665,0,
00:08.1,-0.000165939,-0.002443314,0.016279221,0,
00:08.1,-0.000154495,-0.00246048,0.016284943,0,
00:08.1,-0.000137329,-0.002471924,0.016284943,0,
00:08.1,-0.000114441,-0.002454758,0.016284943,0,
00:08.1,-0.000125885,-0.002471924,0.016284943,0,
00:08.1,-0.000160217,-0.00246048,0.016267776,0,
00:08.1,-0.000165939,-0.002449036,0.016267776,0,
00:08.1,-0.000154495,-0.002443314,0.016267776,0,
00:08.1,-0.000154495,-0.002454758,0.016284943,0,
00:08.1,-0.000148773,-0.002471924,0.016284943,0,
00:08.1,-0.000120163,-0.00246048,0.016267776,0,
00:08.1,-8.58E-05,-0.002449036,0.016233444,0,
00:08.1,-0.000137329,-0.002449036,0.016222,0,
00:08.2,-0.000171661,-0.002449036,0.016284943,0,
00:08.2,-0.000154495,-0.002449036,0.016307831,0,
00:08.2,-0.000131607,-0.00246048,0.016273499,0,
00:08.2,-0.000108719,-0.002454758,0.016273499,0,
00:08.2,-0.000148773,-0.002466202,0.016279221,0,
00:08.2,-0.000148773,-0.002454758,0.016273499,0,
00:08.2,-0.000137329,-0.002449036,0.016262054,0,
00:08.2,-0.000160217,-0.002449036,0.01625061,0,
00:08.2,-0.000154495,-0.002443314,0.016233444,0,
00:08.2,-0.000148773,-0.002449036,0.016284943,0,
00:08.2,-0.000154495,-0.002483368,0.016290665,0,
00:08.2,-0.000137329,-0.00246048,0.016279221,0,
00:08.2,-0.000120163,-0.002437592,0.016256332,0,
00:08.2,-0.000125885,-0.002437592,0.016244888,0,
00:08.2,-0.000137329,-0.002449036,0.016279221,0,
00:08.2,-0.000154495,-0.002471924,0.016273499,0,
00:08.2,-0.000171661,-0.002454758,0.01625061,0,
00:08.2,-0.000160217,-0.00246048,0.01625061,0,
00:08.2,-0.000148773,-0.002426147,0.016262054,0,
00:08.2,-0.000143051,-0.002420425,0.016267776,0,
00:08.2,-0.000148773,-0.002426147,0.016244888,0,
00:08.2,-0.000137329,-0.002443314,0.016227722,0,
00:08.2,-9.73E-05,-0.002443314,0.016267776,0,
00:08.2,-0.000131607,-0.002449036,0.016273499,0,
00:08.2,-0.000148773,-0.002449036,0.016262054,0,
00:08.3,-0.000154495,-0.002443314,0.016256332,0,
00:08.3,-0.000165939,-0.00246048,0.016227722,0,
00:08.3,-0.000171661,-0.002449036,0.016222,0,
00:08.3,-0.000165939,-0.002454758,0.016279221,0,
00:08.3,-0.000131607,-0.002449036,0.016273499,0,
00:08.3,-0.000137329,-0.002443314,0.016262054,0,
00:08.3,-0.000171661,-0.00243187,0.016256332,0,
00:08.3,-0.000148773,-0.00243187,0.01625061,0,
00:08.3,-0.000143051,-0.002437592,0.016239166,0,
00:08.3,-0.000131607,-0.002449036,0.016244888,0,
00:08.3,-0.000125885,-0.002454758,0.016227722,0,
00:08.3,-0.000154495,-0.002443314,0.016256332,0,
00:08.3,-0.000165939,-0.002443314,0.016256332,0,
00:08.3,-0.000154495,-0.002426147,0.016244888,0,
00:08.3,-0.000165939,-0.00243187,0.016267776,0,
00:08.3,-0.000154495,-0.00243187,0.01625061,0,
00:08.3,-0.000148773,-0.002443314,0.01625061,0,
00:08.3,-0.000108719,-0.00246048,0.016239166,0,
00:08.3,-8.58E-05,-0.002420425,0.016204834,0,
00:08.3,-0.000114441,-0.002443314,0.016210556,0,
00:08.3,-0.000171661,-0.002454758,0.016284943,0,
00:08.3,-0.000148773,-0.00243187,0.016279221,0,
00:08.3,-0.000143051,-0.002443314,0.016244888,0,
00:08.3,-0.000165939,-0.002443314,0.016244888,0,
00:08.3,-0.000148773,-0.002449036,0.016210556,0,
00:08.4,-0.000165939,-0.002437592,0.016233444,0,
00:08.4,-0.000160217,-0.002426147,0.016267776,0,
00:08.4,-0.000148773,-0.002437592,0.01625061,0,
00:08.4,-0.000143051,-0.002437592,0.016244888,0,
00:08.4,-0.000137329,-0.002443314,0.01625061,0,
00:08.4,-0.000131607,-0.00246048,0.016233444,0,
00:08.4,-0.000154495,-0.002466202,0.016239166,0,
00:08.4,-0.000125885,-0.002426147,0.016222,0,
00:08.4,-0.000143051,-0.002426147,0.016239166,0,
00:08.4,-0.000160217,-0.002420425,0.016239166,0,
00:08.4,-0.000143051,-0.002437592,0.016216278,0,
00:08.4,-0.000165939,-0.00243187,0.016233444,0,
00:08.4,-0.000131607,-0.002443314,0.016204834,0,
00:08.4,-0.000160217,-0.002449036,0.01619339,0,
00:08.4,-0.000165939,-0.002454758,0.016267776,0,
00:08.4,-0.000148773,-0.002443314,0.016262054,0,
00:08.4,-0.000165939,-0.002443314,0.016244888,0,
00:08.4,-0.000143051,-0.002420425,0.016233444,0,
00:08.4,-0.000102997,-0.002437592,0.016222,0,
00:08.4,-0.000125885,-0.002466202,0.016227722,0,
00:08.4,-0.000125885,-0.002426147,0.01619339,0,
00:08.4,-0.000177383,-0.00243187,0.016216278,0,
00:08.4,-0.000154495,-0.002437592,0.016267776,0,
00:08.4,-0.000148773,-0.002437592,0.016216278,0,
00:08.4,-0.000148773,-0.00243187,0.016233444,0,
00:08.5,-0.000154495,-0.00243187,0.016233444,0,
00:08.5,-0.000131607,-0.002443314,0.016227722,0,
00:08.5,-0.000154495,-0.002449036,0.016227722,0,
00:08.5,-0.000160217,-0.002443314,0.016210556,0,
00:08.5,-0.000102997,-0.002426147,0.016204834,0,
00:08.5,-0.000143051,-0.002426147,0.016210556,0,
00:08.5,-0.000177383,-0.002426147,0.016227722,0,
00:08.5,-0.000160217,-0.002443314,0.016227722,0,
00:08.5,-0.000160217,-0.002437592,0.016204834,0,
00:08.5,-0.000154495,-0.002437592,0.016227722,0,
00:08.5,-0.000154495,-0.002437592,0.016233444,0,
00:08.5,-0.000148773,-0.002437592,0.016222,0,
00:08.5,-0.000137329,-0.00243187,0.016210556,0,
00:08.5,-0.000125885,-0.002449036,0.016204834,0,
00:08.5,-0.000160217,-0.00246048,0.016204834,0,
00:08.5,-0.000148773,-0.002414703,0.016210556,0,
00:08.5,-0.000137329,-0.00243187,0.016239166,0,
00:08.5,-9.16E-05,-0.00243187,0.016204834,0,
00:08.5,-0.000137329,-0.002443314,0.016170502,0,
00:08.5,-0.00019455,-0.002437592,0.016187668,0,
00:08.5,-0.000177383,-0.002443314,0.016210556,0,
00:08.5,-0.000160217,-0.002443314,0.016239166,0,
00:08.5,-0.000143051,-0.002443314,0.016227722,0,
00:08.5,-0.000154495,-0.002443314,0.016222,0,
00:08.5,-0.000137329,-0.00243187,0.016222,0,
00:08.6,-0.000143051,-0.002437592,0.016216278,0,
00:08.6,-0.000120163,-0.002437592,0.01619339,0,
00:08.6,-0.000148773,-0.002443314,0.01619339,0,
00:08.6,-0.000177383,-0.002443314,0.016233444,0,
00:08.6,-0.000165939,-0.002443314,0.016210556,0,
00:08.6,-0.000154495,-0.002437592,0.016204834,0,
00:08.6,-0.000143051,-0.002420425,0.016233444,0,
00:08.6,-0.000143051,-0.002437592,0.016216278,0,
00:08.6,-0.000154495,-0.002437592,0.016216278,0,
00:08.6,-0.000148773,-0.002426147,0.016216278,0,
00:08.6,-0.000137329,-0.002420425,0.016204834,0,
00:08.6,-0.000125885,-0.002443314,0.016199112,0,
00:08.6,-0.000143051,-0.002437592,0.01619339,0,
00:08.6,-0.000108719,-0.00243187,0.016216278,0,
00:08.6,-0.000154495,-0.002426147,0.016210556,0,
00:08.6,-0.000177383,-0.002426147,0.016210556,0,
00:08.6,-0.000165939,-0.00243187,0.016216278,0,
00:08.6,-0.000154495,-0.002420425,0.016216278,0,
00:08.6,-0.000120163,-0.002408981,0.01619339,0,
00:08.6,-0.000114441,-0.002414703,0.016124725,0,
00:08.6,-0.000154495,-0.002420425,0.016187668,0,
00:08.6,-0.000165939,-0.002437592,0.01625061,0,
00:08.6,-0.000120163,-0.00243187,0.016187668,0,
00:08.6,-0.000114441,-0.00243187,0.016199112,0,
00:08.6,-0.000177383,-0.002437592,0.016227722,0,
00:08.7,-0.000160217,-0.002437592,0.016199112,0,
00:08.7,-0.000160217,-0.002420425,0.01619339,0,
00:08.7,-0.000131607,-0.002449036,0.016216278,0,
00:08.7,-0.000143051,-0.002426147,0.016216278,0,
00:08.7,-0.000171661,-0.00243187,0.016204834,0,
00:08.7,-0.000165939,-0.002449036,0.016199112,0,
00:08.7,-0.000137329,-0.00243187,0.016204834,0,
00:08.7,-0.000125885,-0.002403259,0.016210556,0,
00:08.7,-0.000148773,-0.002408981,0.016204834,0,
00:08.7,-0.000131607,-0.002420425,0.016204834,0,
00:08.7,-0.000120163,-0.00243187,0.016199112,0,
00:08.7,-0.000160217,-0.002414703,0.016199112,0,
00:08.7,-0.000177383,-0.002414703,0.016204834,0,
00:08.7,-9.73E-05,-0.002414703,0.016204834,0,
00:08.7,-0.000102997,-0.002420425,0.016210556,0,
00:08.7,-0.000183105,-0.00243187,0.016187668,0,
00:08.7,-0.000154495,-0.002437592,0.016204834,0,
00:08.7,-0.000165939,-0.002437592,0.016159058,0,
00:08.7,-0.000160217,-0.00243187,0.016159058,0,
00:08.7,-0.000148773,-0.002408981,0.01625061,0,
00:08.7,-9.16E-05,-0.002420425,0.016204834,0,
00:08.7,-0.000108719,-0.002426147,0.016204834,0,
00:08.7,-0.000171661,-0.002426147,0.016204834,0,
00:08.7,-0.000171661,-0.002420425,0.016199112,0,
00:08.7,-0.000154495,-0.002443314,0.016187668,0,
00:08.8,-0.000165939,-0.002420425,0.016210556,0,
00:08.8,-0.000148773,-0.002420425,0.016204834,0,
00:08.8,-0.000131607,-0.002414703,0.016216278,0,
00:08.8,-0.000131607,-0.002420425,0.016204834,0,
00:08.8,-0.000143051,-0.002414703,0.016199112,0,
00:08.8,-0.000148773,-0.00243187,0.016204834,0,
00:08.8,-0.000154495,-0.002426147,0.016199112,0,
00:08.8,-0.000148773,-0.002414703,0.016181946,0,
00:08.8,-0.000137329,-0.002408981,0.016199112,0,
00:08.8,-0.000114441,-0.002426147,0.01619339,0,
00:08.8,-0.000131607,-0.002414703,0.016170502,0,
00:08.8,-0.000160217,-0.002414703,0.016181946,0,
00:08.8,-0.000137329,-0.002420425,0.016210556,0,
00:08.8,-0.000125885,-0.002437592,0.01619339,0,
00:08.8,-0.000143051,-0.002443314,0.016176224,0,
00:08.8,-0.000108719,-0.002414703,0.016119003,0,
00:08.8,-0.000154495,-0.002408981,0.016159058,0,
00:08.8,-0.000154495,-0.002414703,0.01625061,0,
00:08.8,-0.000143051,-0.002414703,0.016227722,0,
00:08.8,-0.000154495,-0.002420425,0.016199112,0,
00:08.8,-0.000160217,-0.002443314,0.01619339,0,
00:08.8,-0.000148773,-0.002454758,0.016199112,0,
00:08.8,-0.000154495,-0.002426147,0.016181946,0,
00:08.8,-0.000137329,-0.002414703,0.01619339,0,
00:08.8,-0.000120163,-0.00243187,0.016204834,0,
00:08.9,-0.000114441,-0.002426147,0.01619339,0,
00:08.9,-0.000154495,-0.002408981,0.016181946,0,
00:08.9,-0.000143051,-0.00243187,0.016176224,0,
00:08.9,-0.000137329,-0.002437592,0.016199112,0,
00:08.9,-0.000137329,-0.002443314,0.016199112,0,
00:08.9,-0.000143051,-0.002414703,0.016181946,0,
00:08.9,-0.000165939,-0.002426147,0.016176224,0,
00:08.9,-0.000131607,-0.002414703,0.016170502,0,
00:08.9,-0.000108719,-0.002420425,0.016187668,0,
00:08.9,-0.000154495,-0.002426147,0.016210556,0,
00:08.9,-0.000108719,-0.002414703,0.016199112,0,
00:08.9,-0.000108719,-0.002426147,0.016187668,0,
00:08.9,-0.000137329,-0.002426147,0.016170502,0,
00:08.9,-0.000148773,-0.00243187,0.016124725,0,
00:08.9,-0.000165939,-0.00243187,0.016159058,0,
00:08.9,-0.000125885,-0.002420425,0.016227722,0,
00:08.9,-0.000154495,-0.002420425,0.016204834,0,
00:08.9,-0.000160217,-0.002420425,0.016181946,0,
00:08.9,-0.000131607,-0.002420425,0.01619339,0,
00:08.9,-0.000120163,-0.002426147,0.01619339,0,
00:08.9,-0.000137329,-0.002414703,0.016187668,0,
00:08.9,-0.000148773,-0.002420425,0.016181946,0,
00:08.9,-0.000160217,-0.002443314,0.016187668,0,
00:08.9,-0.000143051,-0.002437592,0.016170502,0,
00:08.9,-0.000120163,-0.002420425,0.016176224,0,
00:09.0,-9.73E-05,-0.002420425,0.016159058,0,
00:09.0,-0.000137329,-0.002414703,0.016176224,0,
00:09.0,-0.000165939,-0.002420425,0.016187668,0,
00:09.0,-0.000160217,-0.00243187,0.016170502,0,
00:09.0,-0.000137329,-0.00243187,0.016181946,0,
00:09.0,-0.000137329,-0.002414703,0.016187668,0,
00:09.0,-0.000148773,-0.002408981,0.016181946,0,
00:09.0,-0.000131607,-0.002414703,0.016170502,0,
00:09.0,-0.000108719,-0.002426147,0.016159058,0,
00:09.0,-9.73E-05,-0.002420425,0.016176224,0,
00:09.0,-0.000143051,-0.002426147,0.016136169,0,
00:09.0,-0.000131607,-0.00243187,0.01616478,0,
00:00:09,-0.000131607,-0.002420425,0.016187668,0,
00:09.0,-0.000143051,-0.002414703,0.016124725,0,
00:09.0,-0.000143051,-0.002414703,0.016199112,0,
00:09.0,-0.000137329,-0.002420425,0.016181946,0,
00:09.0,-0.000148773,-0.002426147,0.016187668,0,
00:09.0,-0.000165939,-0.00243187,0.016181946,0,
00:09.0,-0.000148773,-0.002414703,0.016170502,0,
00:09.0,-0.000131607,-0.002426147,0.016170502,0,
00:09.0,-0.000154495,-0.002426147,0.016176224,0,
00:09.0,-0.000143051,-0.002397537,0.01616478,0,
00:09.0,-0.000114441,-0.00243187,0.016159058,0,
00:09.0,-0.000131607,-0.002408981,0.016176224,0,
00:09.0,-0.000160217,-0.002397537,0.016176224,0,
00:09.1,-0.000131607,-0.002397537,0.016170502,0,
00:09.1,-0.000143051,-0.002408981,0.016159058,0,
00:09.1,-0.000154495,-0.002403259,0.01616478,0,
00:09.1,-0.000131607,-0.002397537,0.016159058,0,
00:09.1,-0.000131607,-0.002420425,0.01616478,0,
00:09.1,-0.000137329,-0.002426147,0.016176224,0,
00:09.1,-0.000143051,-0.002414703,0.016187668,0,
00:09.1,-0.000131607,-0.002420425,0.016176224,0,
00:09.1,-8.58E-05,-0.002414703,0.016159058,0,
00:09.1,-0.000165939,-0.002397537,0.01616478,0,
00:09.1,-0.000143051,-0.002408981,0.016107559,0,
00:09.1,-0.000154495,-0.002408981,0.016170502,0,
00:09.1,-0.000143051,-0.002408981,0.01616478,0,
00:09.1,-0.000131607,-0.002414703,0.016199112,0,
00:09.1,-0.000165939,-0.002414703,0.01619339,0,
00:09.1,-0.000160217,-0.002449036,0.016176224,0,
00:09.1,-0.000154495,-0.002454758,0.016147614,0,
00:09.1,-0.000148773,-0.002391815,0.016159058,0,
00:09.1,-0.000137329,-0.002397537,0.016187668,0,
00:09.1,-0.000108719,-0.002380371,0.016170502,0,
00:09.1,-0.000120163,-0.002397537,0.016176224,0,
00:09.1,-0.000154495,-0.002403259,0.016170502,0,
00:09.1,-0.000171661,-0.002420425,0.01616478,0,
00:09.1,-0.000143051,-0.002420425,0.01616478,0,
00:09.1,-9.73E-05,-0.002414703,0.01616478,0,
00:09.2,-0.000160217,-0.002414703,0.01616478,0,
00:09.2,-0.000148773,-0.002420425,0.016170502,0,
00:09.2,-0.000143051,-0.002420425,0.016159058,0,
00:09.2,-0.000137329,-0.002397537,0.016170502,0,
00:09.2,-9.16E-05,-0.002397537,0.016159058,0,
00:09.2,-0.000131607,-0.002420425,0.016136169,0,
00:09.2,-0.000148773,-0.002414703,0.016170502,0,
00:09.2,-0.000154495,-0.002420425,0.016130447,0,
00:09.2,-0.000154495,-0.00243187,0.016153336,0,
00:09.2,-0.000143051,-0.002391815,0.016204834,0,
00:09.2,-0.000148773,-0.002391815,0.016176224,0,
00:09.2,-0.000131607,-0.002403259,0.016159058,0,
00:09.2,-0.000125885,-0.002408981,0.016141891,0,
00:09.2,-0.000137329,-0.002408981,0.01616478,0,
00:09.2,-0.000143051,-0.002391815,0.016176224,0,
00:09.2,-0.000143051,-0.002397537,0.016170502,0,
00:09.2,-0.000137329,-0.002414703,0.01616478,0,
00:09.2,-0.000120163,-0.002408981,0.016147614,0,
00:09.2,-0.000160217,-0.002414703,0.016153336,0,
00:09.2,-0.000160217,-0.002426147,0.01616478,0,
00:09.2,-0.000137329,-0.002397537,0.01616478,0,
00:09.2,-0.000102997,-0.002391815,0.016159058,0,
00:09.2,-9.73E-05,-0.002391815,0.01616478,0,
00:09.2,-0.000160217,-0.002403259,0.01616478,0,
00:09.2,-0.000154495,-0.002397537,0.016141891,0,
00:09.3,-0.000120163,-0.002397537,0.016136169,0,
00:09.3,-0.000108719,-0.002391815,0.016141891,0,
00:09.3,-0.000114441,-0.002380371,0.016159058,0,
00:09.3,-0.000114441,-0.002403259,0.016170502,0,
00:09.3,-0.000148773,-0.002397537,0.016170502,0,
00:09.3,-0.000125885,-0.002397537,0.01616478,0,
00:09.3,-0.000148773,-0.002408981,0.016107559,0,
00:09.3,-0.000154495,-0.002426147,0.016113281,0,
00:09.3,-0.000160217,-0.002437592,0.016204834,0,
00:09.3,-0.000148773,-0.002397537,0.016170502,0,
00:09.3,-0.000137329,-0.002368927,0.016170502,0,
00:09.3,-0.000131607,-0.002368927,0.016159058,0,
00:09.3,-0.000137329,-0.002403259,0.016147614,0,
00:09.3,-0.000154495,-0.002414703,0.016153336,0,
00:09.3,-0.000148773,-0.002386093,0.016147614,0,
00:09.3,-0.000131607,-0.002391815,0.016147614,0,
00:09.3,-0.000125885,-0.002397537,0.01616478,0,
00:09.3,-0.000120163,-0.002414703,0.016153336,0,
00:09.3,-0.000137329,-0.002386093,0.016136169,0,
00:09.3,-0.000120163,-0.002374649,0.016136169,0,
00:09.3,-0.000125885,-0.002380371,0.016170502,0,
00:09.3,-0.000148773,-0.002391815,0.016147614,0,
00:09.3,-0.000120163,-0.002397537,0.016147614,0,
00:09.3,-8.58E-05,-0.002386093,0.016136169,0,
00:09.3,-0.000108719,-0.002380371,0.016147614,0,
00:09.4,-0.000183105,-0.002391815,0.016159058,0,
00:09.4,-0.000165939,-0.002408981,0.016153336,0,
00:09.4,-0.000137329,-0.002420425,0.016141891,0,
00:09.4,-0.000120163,-0.002397537,0.016136169,0,
00:09.4,-0.000131607,-0.002391815,0.01616478,0,
00:09.4,-0.000137329,-0.002397537,0.016136169,0,
00:09.4,-0.000148773,-0.002386093,0.016090393,0,
00:09.4,-0.000120163,-0.002391815,0.016170502,0,
00:09.4,-0.000148773,-0.002386093,0.016159058,0,
00:09.4,-0.000131607,-0.002374649,0.016136169,0,
00:09.4,-0.000108719,-0.002386093,0.016147614,0,
00:09.4,-0.000137329,-0.002380371,0.016153336,0,
00:09.4,-0.000154495,-0.002380371,0.016141891,0,
00:09.4,-0.000131607,-0.002403259,0.016147614,0,
00:09.4,-0.000143051,-0.002380371,0.016136169,0,
00:09.4,-0.000148773,-0.002391815,0.016136169,0,
00:09.4,-0.000148773,-0.002386093,0.016153336,0,
00:09.4,-0.000125885,-0.002397537,0.016130447,0,
00:09.4,-0.000125885,-0.002403259,0.016078949,0,
00:09.4,-0.000143051,-0.002386093,0.016130447,0,
00:09.4,-0.000131607,-0.002380371,0.016159058,0,
00:09.4,-0.000125885,-0.002374649,0.016124725,0,
00:09.4,-0.000131607,-0.002380371,0.016119003,0,
00:09.4,-0.000143051,-0.002386093,0.016141891,0,
00:09.4,-0.000148773,-0.002380371,0.016153336,0,
00:09.5,-0.000114441,-0.002386093,0.016119003,0,
00:09.5,-0.000131607,-0.002397537,0.016113281,0,
00:09.5,-0.000108719,-0.002368927,0.016141891,0,
00:09.5,-8.58E-05,-0.002374649,0.016119003,0,
00:09.5,-0.000137329,-0.002374649,0.016130447,0,
00:09.5,-0.000137329,-0.002391815,0.016130447,0,
00:09.5,-0.000171661,-0.002391815,0.016078949,0,
00:09.5,-0.000143051,-0.002380371,0.016147614,0,
00:09.5,-0.000137329,-0.002368927,0.016130447,0,
00:09.5,-0.000125885,-0.002363205,0.016113281,0,
00:09.5,-0.000143051,-0.002391815,0.016124725,0,
00:09.5,-0.000154495,-0.002391815,0.016119003,0,
00:09.5,-0.000137329,-0.002363205,0.016130447,0,
00:09.5,-0.000131607,-0.002380371,0.016119003,0,
00:09.5,-0.000143051,-0.002374649,0.016101837,0,
00:09.5,-0.000148773,-0.002380371,0.016113281,0,
00:09.5,-0.000114441,-0.002386093,0.016101837,0,
00:09.5,-0.000108719,-0.002386093,0.016119003,0,
00:09.5,-0.000131607,-0.002374649,0.016113281,0,
00:09.5,-0.000137329,-0.002357483,0.016119003,0,
00:09.5,-0.000114441,-0.002357483,0.016107559,0,
00:09.5,-0.000131607,-0.002374649,0.016096115,0,
00:09.5,-0.000102997,-0.002397537,0.016084671,0,
00:09.5,-0.000137329,-0.002391815,0.016130447,0,
00:09.5,-0.000160217,-0.002403259,0.016119003,0,
00:09.6,-0.000143051,-0.002374649,0.016113281,0,
00:09.6,-0.000137329,-0.002357483,0.016107559,0,
00:09.6,-0.000108719,-0.002368927,0.016107559,0,
00:09.6,-0.000143051,-0.002380371,0.016113281,0,
00:09.6,-0.000148773,-0.002368927,0.016090393,0,
00:09.6,-0.000120163,-0.002380371,0.016067505,0,
00:09.6,-0.000131607,-0.002420425,0.016078949,0,
00:09.6,-0.000137329,-0.002408981,0.016124725,0,
00:09.6,-0.000131607,-0.002346039,0.016107559,0,
00:09.6,-0.000114441,-0.002357483,0.016113281,0,
00:09.6,-0.000131607,-0.002368927,0.016101837,0,
00:09.6,-0.000143051,-0.002380371,0.016090393,0,
00:09.6,-0.000125885,-0.002386093,0.016084671,0,
00:09.6,-0.000120163,-0.002391815,0.016056061,0,
00:09.6,-9.16E-05,-0.002374649,0.016096115,0,
00:09.6,-0.000131607,-0.002368927,0.016119003,0,
00:09.6,-0.000143051,-0.002363205,0.016113281,0,
00:09.6,-0.000114441,-0.002374649,0.016101837,0,
00:09.6,-0.000160217,-0.002386093,0.016084671,0,
00:09.6,-0.000165939,-0.002391815,0.016107559,0,
00:09.6,-0.000143051,-0.002386093,0.016101837,0,
00:09.6,-0.000143051,-0.002386093,0.016084671,0,
00:09.6,-0.000125885,-0.002374649,0.016078949,0,
00:09.6,-0.000148773,-0.002374649,0.016096115,0,
00:09.6,-0.000137329,-0.002380371,0.016096115,0,
00:09.7,-0.000125885,-0.002391815,0.016101837,0,
00:09.7,-0.000143051,-0.002403259,0.016078949,0,
00:09.7,-0.000131607,-0.002368927,0.016038895,0,
00:09.7,-0.000114441,-0.002346039,0.016044617,0,
00:09.7,-0.000125885,-0.002374649,0.016101837,0,
00:09.7,-0.000143051,-0.002391815,0.016124725,0,
00:09.7,-0.000131607,-0.002368927,0.016096115,0,
00:09.7,-0.000125885,-0.002363205,0.016084671,0,
00:09.7,-0.000137329,-0.002368927,0.016078949,0,
00:09.7,-0.000154495,-0.002374649,0.016101837,0,
00:09.7,-0.000143051,-0.002386093,0.016078949,0,
00:09.7,-9.73E-05,-0.002374649,0.016090393,0,
00:09.7,-0.000102997,-0.002363205,0.016084671,0,
00:09.7,-0.000148773,-0.002357483,0.016073227,0,
00:09.7,-0.000143051,-0.002368927,0.016067505,0,
00:09.7,-0.000131607,-0.002374649,0.016096115,0,
00:09.7,-0.000108719,-0.002386093,0.016090393,0,
00:09.7,-0.000131607,-0.002380371,0.016061783,0,
00:09.7,-0.000125885,-0.002380371,0.016078949,0,
00:09.7,-9.73E-05,-0.002357483,0.016073227,0,
00:09.7,-0.000148773,-0.002357483,0.016084671,0,
00:09.7,-0.000177383,-0.002368927,0.016090393,0,
00:09.7,-0.000143051,-0.002386093,0.016078949,0,
00:09.7,-0.000131607,-0.002386093,0.016078949,0,
00:09.7,-0.000160217,-0.002380371,0.016067505,0,
00:09.8,-0.000137329,-0.002357483,0.016027451,0,
00:09.8,-0.000131607,-0.002368927,0.016056061,0,
00:09.8,-0.000131607,-0.002380371,0.016090393,0,
00:09.8,-0.000131607,-0.002351761,0.016073227,0,
00:09.8,-0.000131607,-0.002363205,0.016084671,0,
00:09.8,-0.000148773,-0.002368927,0.016101837,0,
00:09.8,-0.000148773,-0.002386093,0.016078949,0,
00:09.8,-0.000131607,-0.002386093,0.016033173,0,
00:09.8,-0.000120163,-0.002368927,0.016067505,0,
00:09.8,-9.73E-05,-0.002368927,0.016113281,0,
00:09.8,-0.000108719,-0.002357483,0.016067505,0,
00:09.8,-0.000154495,-0.002363205,0.016027451,0,
00:09.8,-0.000137329,-0.002386093,0.016078949,0,
00:09.8,-0.000114441,-0.002363205,0.016084671,0,
00:09.8,-9.73E-05,-0.002357483,0.016078949,0,
00:09.8,-0.000171661,-0.002363205,0.016078949,0,
00:09.8,-0.000177383,-0.002380371,0.016067505,0,
00:09.8,-0.000154495,-0.002391815,0.016067505,0,
00:09.8,-0.000137329,-0.002380371,0.016061783,0,
00:09.8,-0.000137329,-0.002351761,0.016056061,0,
00:09.8,-0.000143051,-0.002346039,0.016067505,0,
00:09.8,-0.000143051,-0.002340317,0.016061783,0,
00:09.8,-0.000137329,-0.002357483,0.016038895,0,
00:09.8,-0.000137329,-0.002368927,0.016056061,0,
00:09.8,-0.000148773,-0.002391815,0.016090393,0,
00:09.9,-0.000148773,-0.002374649,0.016073227,0,
00:09.9,-0.000120163,-0.002374649,0.016056061,0,
00:09.9,-0.000108719,-0.002368927,0.016056061,0,
00:09.9,-0.000143051,-0.002374649,0.016027451,0,
00:09.9,-0.000120163,-0.002351761,0.016033173,0,
00:09.9,-0.000114441,-0.002357483,0.016073227,0,
00:09.9,-0.000120163,-0.002374649,0.016078949,0,
00:09.9,-0.000137329,-0.002357483,0.016050339,0,
00:09.9,-0.000114441,-0.002363205,0.016056061,0,
00:09.9,-0.000131607,-0.002380371,0.016067505,0,
00:09.9,-0.000165939,-0.002391815,0.016067505,0,
00:09.9,-0.000154495,-0.002386093,0.016050339,0,
00:09.9,-0.000102997,-0.002363205,0.016010284,0,
00:09.9,-0.000137329,-0.002368927,0.016050339,0,
00:09.9,-0.000154495,-0.002368927,0.016073227,0,
00:09.9,-0.000165939,-0.002374649,0.016056061,0,
00:09.9,-0.000143051,-0.002368927,0.016044617,0,
00:09.9,-0.000143051,-0.002368927,0.016044617,0,
00:09.9,-0.000137329,-0.002374649,0.016038895,0,
00:09.9,-0.000143051,-0.002380371,0.016038895,0,
00:09.9,-0.000148773,-0.002357483,0.016067505,0,
00:09.9,-0.000143051,-0.002346039,0.016038895,0,
00:09.9,-0.000143051,-0.002357483,0.016016006,0,
00:09.9,-0.000148773,-0.002374649,0.016061783,0,
00:09.9,-0.000114441,-0.002368927,0.016050339,0,
00:10.0,-9.73E-05,-0.002374649,0.016050339,0,
00:10.0,-0.000120163,-0.002363205,0.016050339,0,
00:10.0,-0.000165939,-0.002374649,0.016016006,0,
00:10.0,-0.000102997,-0.002380371,0.01599884,0,
00:10.0,-6.87E-05,-0.002368927,0.016061783,0,
00:10.0,-0.000188828,-0.002363205,0.016061783,0,
00:10.0,-0.000183105,-0.002363205,0.016044617,0,
00:10.0,-0.000154495,-0.002357483,0.016044617,0,
00:10.0,-0.000148773,-0.002363205,0.016038895,0,
00:10.0,-0.000143051,-0.002380371,0.016050339,0,
00:10.0,-0.000120163,-0.002380371,0.016038895,0,
00:10.0,-0.000148773,-0.002403259,0.016027451,0,
00:00:10,-0.000148773,-0.002403259,0.016016006,0,
00:10.0,-0.000154495,-0.002363205,0.016004562,0,
00:10.0,-0.000154495,-0.002351761,0.016056061,0,
00:10.0,-0.000143051,-0.002374649,0.016044617,0,
00:10.0,-0.000131607,-0.002363205,0.016021729,0,
00:10.0,-0.000120163,-0.002357483,0.016044617,0,
00:10.0,-0.000131607,-0.002368927,0.016044617,0,
00:10.0,-0.000148773,-0.002357483,0.016027451,0,
00:10.0,-0.000137329,-0.002363205,0.016027451,0,
00:10.0,-0.000120163,-0.002363205,0.016021729,0,
00:10.0,-0.000131607,-0.002363205,0.016044617,0,
00:10.0,-0.000120163,-0.002374649,0.016033173,0,
00:10.0,-0.000120163,-0.002357483,0.016038895,0,
