Elapsed_Time,EMG1,EMG2,EMG3,BioRadio Event,Unnamed: 5
00:00:00,0.001905441,-0.007759094,0.002025604,0,
00:00.0,0.001888275,-0.00774765,0.002037048,0,
00:00.0,0.001888275,-0.007753372,0.00204277,0,
00:00.0,0.001893997,-0.007764816,0.00204277,0,
00:00.0,0.001888275,-0.007759094,0.002037048,0,
00:00.0,0.001899719,-0.007753372,0.00201416,0,
00:00.0,0.001893997,-0.00774765,0.00201416,0,
00:00.0,0.001893997,-0.00774765,0.002019882,0,
00:00.0,0.001905441,-0.007753372,0.00201416,0,
00:00.0,0.001893997,-0.007759094,0.00201416,0,
00:00.0,0.001899719,-0.007741928,0.002002716,0,
00:00.0,0.001899719,-0.00774765,0.00198555,0,
00:00.0,0.001899719,-0.007753372,0.001962662,0,
00:00.1,0.001905441,-0.00774765,0.001979828,0,
00:00.1,0.001905441,-0.007741928,0.001968384,0,
00:00.1,0.001905441,-0.007753372,0.001962662,0,
00:00.1,0.001899719,-0.007753372,0.001962662,0,
00:00.1,0.001899719,-0.007741928,0.001962662,0,
00:00.1,0.001899719,-0.007736206,0.00195694,0,
00:00.1,0.001888275,-0.00774765,0.001951218,0,
00:00.1,0.001893997,-0.00774765,0.00195694,0,
00:00.1,0.001905441,-0.00774765,0.001939774,0,
00:00.1,0.001893997,-0.00774765,0.001928329,0,
00:00.1,0.001888275,-0.00774765,0.001939774,0,
00:00.1,0.001899719,-0.00774765,0.001939774,0,
00:00.1,0.001888275,-0.00774765,0.001922607,0,
00:00.1,0.001888275,-0.00774765,0.001911163,0,
00:00.1,0.001905441,-0.00774765,0.001916885,0,
00:00.1,0.001893997,-0.007753372,0.001916885,0,
00:00.1,0.001888275,-0.007741928,0.001899719,0,
00:00.1,0.001888275,-0.00774765,0.001882553,0,
00:00.1,0.001876831,-0.007759094,0.001911163,0,
00:00.1,0.001882553,-0.00774765,0.001882553,0,
00:00.1,0.001893997,-0.007741928,0.001871109,0,
00:00.1,0.001876831,-0.007753372,0.001888275,0,
00:00.1,0.001888275,-0.007741928,0.001893997,0,
00:00.1,0.001888275,-0.007741928,0.001871109,0,
00:00.1,0.001888275,-0.007741928,0.001853943,0,
00:00.2,0.001893997,-0.007730484,0.001848221,0,
00:00.2,0.001888275,-0.007741928,0.001848221,0,
00:00.2,0.001876831,-0.00774765,0.001853943,0,
00:00.2,0.001888275,-0.007753372,0.001842499,0,
00:00.2,0.001888275,-0.00774765,0.001836777,0,
00:00.2,0.001882553,-0.007759094,0.001825333,0,
00:00.2,0.001893997,-0.007759094,0.001825333,0,
00:00.2,0.001871109,-0.007753372,0.001808167,0,
00:00.2,0.001871109,-0.007759094,0.001796722,0,
00:00.2,0.001876831,-0.007753372,0.001808167,0,
00:00.2,0.001876831,-0.007753372,0.001813889,0,
00:00.2,0.001888275,-0.007759094,0.001796722,0,
00:00.2,0.001882553,-0.007759094,0.001785278,0,
00:00.2,0.001865387,-0.00774765,0.001779556,0,
00:00.2,0.001865387,-0.00774765,0.001768112,0,
00:00.2,0.001865387,-0.007759094,0.00176239,0,
00:00.2,0.001865387,-0.007759094,0.001768112,0,
00:00.2,0.001865387,-0.00774765,0.00176239,0,
00:00.2,0.001865387,-0.00774765,0.001739502,0,
00:00.2,0.001842499,-0.007741928,0.00173378,0,
00:00.2,0.001853943,-0.00774765,0.001728058,0,
00:00.2,0.001871109,-0.007741928,0.001710892,0,
00:00.2,0.001859665,-0.007741928,0.001699448,0,
00:00.2,0.001853943,-0.007741928,0.00170517,0,
00:00.2,0.001865387,-0.007741928,0.001699448,0,
00:00.3,0.001865387,-0.007741928,0.001693726,0,
00:00.3,0.001865387,-0.007736206,0.001693726,0,
00:00.3,0.001836777,-0.007736206,0.001688004,0,
00:00.3,0.001842499,-0.007736206,0.001670837,0,
00:00.3,0.001871109,-0.007730484,0.001659393,0,
00:00.3,0.001859665,-0.007724762,0.001659393,0,
00:00.3,0.001853943,-0.007724762,0.001653671,0,
00:00.3,0.001848221,-0.007730484,0.001636505,0,
00:00.3,0.001859665,-0.007730484,0.001636505,0,
00:00.3,0.001848221,-0.00771904,0.001630783,0,
00:00.3,0.001848221,-0.007713318,0.001607895,0,
00:00.3,0.001842499,-0.00771904,0.001607895,0,
00:00.3,0.001842499,-0.007707596,0.001590729,0,
00:00.3,0.001842499,-0.007707596,0.001590729,0,
00:00.3,0.001853943,-0.007707596,0.001585007,0,
00:00.3,0.001836777,-0.007713318,0.001579285,0,
00:00.3,0.001831055,-0.007707596,0.001579285,0,
00:00.3,0.001842499,-0.007713318,0.001573563,0,
00:00.3,0.001848221,-0.007701874,0.001550674,0,
00:00.3,0.001848221,-0.00769043,0.00153923,0,
00:00.3,0.001836777,-0.00769043,0.001533508,0,
00:00.3,0.001825333,-0.00769043,0.001533508,0,
00:00.3,0.001836777,-0.007696152,0.00151062,0,
00:00.3,0.001825333,-0.007707596,0.001516342,0,
00:00.3,0.001825333,-0.007696152,0.001522064,0,
00:00.4,0.001853943,-0.007684708,0.001499176,0,
00:00.4,0.001831055,-0.00769043,0.001493454,0,
00:00.4,0.001813889,-0.00769043,0.001487732,0,
00:00.4,0.001819611,-0.00769043,0.001476288,0,
00:00.4,0.001825333,-0.007684708,0.001459122,0,
00:00.4,0.001825333,-0.007678986,0.0014534,0,
00:00.4,0.001819611,-0.007684708,0.001459122,0,
00:00.4,0.001825333,-0.007678986,0.001441956,0,
00:00.4,0.001836777,-0.007673264,0.001424789,0,
00:00.4,0.001842499,-0.007678986,0.001419067,0,
00:00.4,0.001808167,-0.007678986,0.001424789,0,
00:00.4,0.001802444,-0.007684708,0.001407623,0,
00:00.4,0.001808167,-0.007678986,0.001407623,0,
00:00.4,0.001813889,-0.007678986,0.001401901,0,
00:00.4,0.001808167,-0.007678986,0.001379013,0,
00:00.4,0.001808167,-0.007678986,0.001379013,0,
00:00.4,0.001808167,-0.007673264,0.001384735,0,
00:00.4,0.001819611,-0.00769043,0.001379013,0,
00:00.4,0.001796722,-0.007678986,0.001361847,0,
00:00.4,0.001802444,-0.007678986,0.001344681,0,
00:00.4,0.001802444,-0.007678986,0.001344681,0,
00:00.4,0.001796722,-0.00769043,0.001344681,0,
00:00.4,0.001813889,-0.007684708,0.001333237,0,
00:00.4,0.001831055,-0.007678986,0.001321793,0,
00:00.4,0.001808167,-0.007678986,0.001304626,0,
00:00.5,0.001796722,-0.007678986,0.001298904,0,
00:00.5,0.001796722,-0.007678986,0.001304626,0,
00:00.5,0.001791,-0.007684708,0.001298904,0,
00:00.5,0.001785278,-0.007684708,0.001281738,0,
00:00.5,0.001791,-0.007678986,0.001270294,0,
00:00.5,0.001791,-0.007678986,0.00125885,0,
00:00.5,0.001785278,-0.007673264,0.00125885,0,
00:00.5,0.001785278,-0.007673264,0.001247406,0,
00:00.5,0.001785278,-0.007678986,0.001241684,0,
00:00.5,0.001791,-0.007684708,0.001235962,0,
00:00.5,0.001785278,-0.007678986,0.00123024,0,
00:00.5,0.001785278,-0.007684708,0.001218796,0,
00:00.5,0.001773834,-0.007678986,0.001224518,0,
00:00.5,0.001779556,-0.007673264,0.001190186,0,
00:00.5,0.001773834,-0.007673264,0.00120163,0,
00:00.5,0.001773834,-0.007673264,0.001195908,0,
00:00.5,0.001773834,-0.007673264,0.00120163,0,
00:00.5,0.001768112,-0.007667542,0.001190186,0,
00:00.5,0.001773834,-0.007661819,0.001167297,0,
00:00.5,0.001773834,-0.007656097,0.001155853,0,
00:00.5,0.00176239,-0.007656097,0.001167297,0,
00:00.5,0.001773834,-0.007661819,0.001167297,0,
00:00.5,0.001756668,-0.007656097,0.001144409,0,
00:00.5,0.001750946,-0.007656097,0.001150131,0,
00:00.5,0.001773834,-0.007644653,0.001121521,0,
00:00.6,0.001773834,-0.007656097,0.001127243,0,
00:00.6,0.001768112,-0.007650375,0.001121521,0,
00:00.6,0.00176239,-0.007638931,0.001104355,0,
00:00.6,0.00176239,-0.007650375,0.001104355,0,
00:00.6,0.00176239,-0.007650375,0.001104355,0,
00:00.6,0.001750946,-0.007644653,0.001098633,0,
00:00.6,0.001756668,-0.007650375,0.001081467,0,
00:00.6,0.001768112,-0.007644653,0.001064301,0,
00:00.6,0.001745224,-0.007638931,0.001052856,0,
00:00.6,0.001756668,-0.007633209,0.001041412,0,
00:00.6,0.001756668,-0.007633209,0.00103569,0,
00:00.6,0.001756668,-0.007621765,0.001018524,0,
00:00.6,0.001756668,-0.007621765,0.00100708,0,
00:00.6,0.001745224,-0.007627487,0.00100708,0,
00:00.6,0.001739502,-0.007627487,0.000995636,0,
00:00.6,0.001739502,-0.007627487,0.000995636,0,
00:00.6,0.001739502,-0.007616043,0.000995636,0,
00:00.6,0.001739502,-0.007616043,0.000972748,0,
00:00.6,0.001745224,-0.007604599,0.000955582,0,
00:00.6,0.001728058,-0.007610321,0.000938416,0,
00:00.6,0.001739502,-0.007610321,0.000944138,0,
00:00.6,0.001750946,-0.007598877,0.000938416,0,
00:00.6,0.001745224,-0.007598877,0.000926971,0,
00:00.6,0.001739502,-0.007598877,0.000926971,0,
00:00.6,0.001745224,-0.007598877,0.000921249,0,
00:00.7,0.001750946,-0.007593155,0.000904083,0,
00:00.7,0.001750946,-0.007598877,0.000892639,0,
00:00.7,0.00173378,-0.007598877,0.000886917,0,
00:00.7,0.001728058,-0.007593155,0.000875473,0,
00:00.7,0.001722336,-0.007598877,0.000875473,0,
00:00.7,0.001716614,-0.007598877,0.000864029,0,
00:00.7,0.001722336,-0.007593155,0.000858307,0,
00:00.7,0.001739502,-0.007587433,0.000846863,0,
00:00.7,0.001722336,-0.007587433,0.000841141,0,
00:00.7,0.001716614,-0.007587433,0.000835419,0,
00:00.7,0.001716614,-0.007581711,0.000818253,0,
00:00.7,0.001722336,-0.007575989,0.000818253,0,
00:00.7,0.001722336,-0.007575989,0.000806808,0,
00:00.7,0.001710892,-0.007570267,0.000801086,0,
00:00.7,0.001699448,-0.007581711,0.000806808,0,
00:00.7,0.001728058,-0.007570267,0.000778198,0,
00:00.7,0.001722336,-0.007553101,0.000761032,0,
00:00.7,0.00170517,-0.007564545,0.000761032,0,
00:00.7,0.001699448,-0.007575989,0.000761032,0,
00:00.7,0.001722336,-0.007558823,0.000749588,0,
00:00.7,0.001710892,-0.007564545,0.000732422,0,
00:00.7,0.001716614,-0.007564545,0.000738144,0,
00:00.7,0.001693726,-0.007564545,0.000732422,0,
00:00.7,0.001699448,-0.007564545,0.0007267,0,
00:00.7,0.001699448,-0.007553101,0.000703812,0,
00:00.8,0.001716614,-0.007558823,0.00069809,0,
00:00.8,0.00170517,-0.007553101,0.000680923,0,
00:00.8,0.001693726,-0.007564545,0.000680923,0,
00:00.8,0.00170517,-0.007558823,0.000675201,0,
00:00.8,0.001710892,-0.007553101,0.000652313,0,
00:00.8,0.001710892,-0.007564545,0.000646591,0,
00:00.8,0.00170517,-0.007581711,0.000658035,0,
00:00.8,0.001710892,-0.007575989,0.000635147,0,
00:00.8,0.001716614,-0.007587433,0.000623703,0,
00:00.8,0.001716614,-0.007593155,0.000606537,0,
00:00.8,0.001710892,-0.007593155,0.000600815,0,
00:00.8,0.001716614,-0.007581711,0.000595093,0,
00:00.8,0.001728058,-0.007587433,0.000589371,0,
00:00.8,0.001722336,-0.007581711,0.000583649,0,
00:00.8,0.001716614,-0.007575989,0.000566483,0,
00:00.8,0.001710892,-0.007581711,0.000577927,0,
00:00.8,0.001716614,-0.007570267,0.000572205,0,
00:00.8,0.001722336,-0.007575989,0.00056076,0,
00:00.8,0.001728058,-0.007575989,0.000537872,0,
00:00.8,0.001739502,-0.007570267,0.000520706,0,
00:00.8,0.001745224,-0.007570267,0.000514984,0,
00:00.8,0.001728058,-0.007558823,0.000492096,0,
00:00.8,0.001722336,-0.007570267,0.000509262,0,
00:00.8,0.001728058,-0.007587433,0.000497818,0,
00:00.8,0.001739502,-0.007587433,0.000480652,0,
00:00.9,0.001728058,-0.007587433,0.00047493,0,
00:00.9,0.00173378,-0.007581711,0.000452042,0,
00:00.9,0.001728058,-0.007587433,0.000463486,0,
00:00.9,0.001728058,-0.007593155,0.000457764,0,
00:00.9,0.001722336,-0.007581711,0.000434875,0,
00:00.9,0.00173378,-0.007575989,0.000423431,0,
00:00.9,0.001728058,-0.007575989,0.000434875,0,
00:00.9,0.001722336,-0.007564545,0.000417709,0,
00:00.9,0.001716614,-0.007558823,0.000394821,0,
00:00.9,0.001728058,-0.007564545,0.000389099,0,
00:00.9,0.00173378,-0.007558823,0.000394821,0,
00:00.9,0.00173378,-0.007553101,0.000389099,0,
00:00.9,0.001750946,-0.007547379,0.000366211,0,
00:00.9,0.001728058,-0.007541656,0.000360489,0,
00:00.9,0.001728058,-0.007530212,0.000354767,0,
00:00.9,0.001716614,-0.007541656,0.000349045,0,
00:00.9,0.001716614,-0.00752449,0.000343323,0,
00:00.9,0.001722336,-0.007518768,0.000326157,0,
00:00.9,0.001722336,-0.007507324,0.000314713,0,
00:00.9,0.001728058,-0.00749588,0.000303268,0,
00:00.9,0.001728058,-0.007490158,0.000297546,0,
00:00.9,0.001722336,-0.007484436,0.00028038,0,
00:00.9,0.001722336,-0.007472992,0.000274658,0,
00:00.9,0.001728058,-0.00746727,0.000268936,0,
00:00.9,0.001728058,-0.007461548,0.000257492,0,
00:01.0,0.001722336,-0.00746727,0.000263214,0,
00:01.0,0.001722336,-0.007455826,0.000257492,0,
00:01.0,0.001722336,-0.007444382,0.000240326,0,
00:01.0,0.001728058,-0.007432938,0.00022316,0,
00:01.0,0.001722336,-0.007427216,0.000211716,0,
00:01.0,0.001728058,-0.00743866,0.000217438,0,
00:01.0,0.001728058,-0.00743866,0.000205994,0,
00:01.0,0.001739502,-0.00743866,0.000188828,0,
00:01.0,0.001722336,-0.007432938,0.000188828,0,
00:01.0,0.001728058,-0.007427216,0.000165939,0,
00:01.0,0.001728058,-0.007421494,0.000160217,0,
00:01.0,0.001722336,-0.007415771,0.000160217,0,
00:00:01,0.001739502,-0.007398605,0.000143051,0,
00:01.0,0.001739502,-0.007392883,0.000131607,0,
00:01.0,0.001745224,-0.007387161,0.000125885,0,
00:01.0,0.001739502,-0.007381439,0.000120163,0,
00:01.0,0.00173378,-0.007369995,0.000108719,0,
00:01.0,0.001739502,-0.007364273,0.000102997,0,
00:01.0,0.001745224,-0.007352829,8.58E-05,0,
00:01.0,0.001745224,-0.007341385,8.01E-05,0,
00:01.0,0.001745224,-0.007341385,8.01E-05,0,
00:01.0,0.001750946,-0.007335663,7.44E-05,0,
00:01.0,0.00176239,-0.007324219,5.72E-05,0,
00:01.0,0.001768112,-0.007324219,5.15E-05,0,
00:01.0,0.00173378,-0.007307053,4.58E-05,0,
00:01.1,0.001739502,-0.007295609,2.29E-05,0,
00:01.1,0.001745224,-0.007284164,2.86E-05,0,
00:01.1,0.001756668,-0.007278442,1.72E-05,0,
00:01.1,0.001750946,-0.007266998,1.14E-05,0,
00:01.1,0.001750946,-0.007255554,5.72E-06,0,
00:01.1,0.001750946,-0.007255554,-5.72E-06,0,
00:01.1,0.001750946,-0.00724411,-1.14E-05,0,
00:01.1,0.001750946,-0.007232666,-2.86E-05,0,
00:01.1,0.001756668,-0.007221222,-4.01E-05,0,
00:01.1,0.001750946,-0.0072155,-5.15E-05,0,
00:01.1,0.001745224,-0.0072155,-4.58E-05,0,
00:01.1,0.001750946,-0.007198334,-6.29E-05,0,
00:01.1,0.001745224,-0.007192612,-7.44E-05,0,
00:01.1,0.001756668,-0.007181168,-8.58E-05,0,
00:01.1,0.001750946,-0.007164001,-9.16E-05,0,
00:01.1,0.001745224,-0.007158279,-0.000102997,0,
00:01.1,0.001756668,-0.007152557,-0.000102997,0,
00:01.1,0.001756668,-0.007146835,-8.58E-05,0,
00:01.1,0.001750946,-0.007152557,-6.87E-05,0,
00:01.1,0.001750946,-0.007146835,-5.15E-05,0,
00:01.1,0.001745224,-0.007135391,-6.29E-05,0,
00:01.1,0.001750946,-0.007129669,-8.01E-05,0,
00:01.1,0.001745224,-0.007118225,-7.44E-05,0,
00:01.1,0.001745224,-0.007112503,-8.58E-05,0,
00:01.1,0.001745224,-0.007106781,-9.16E-05,0,
00:01.2,0.001739502,-0.007106781,-0.000102997,0,
00:01.2,0.001739502,-0.007101059,-0.000114441,0,
00:01.2,0.001745224,-0.007089615,-0.000131607,0,
00:01.2,0.001745224,-0.007083893,-0.000137329,0,
00:01.2,0.001745224,-0.007072449,-0.000148773,0,
00:01.2,0.001745224,-0.007066727,-0.000154495,0,
00:01.2,0.00173378,-0.007055283,-0.000160217,0,
00:01.2,0.001745224,-0.007061005,-0.000160217,0,
00:01.2,0.001750946,-0.007055283,-0.000171661,0,
00:01.2,0.001750946,-0.007055283,-0.000177383,0,
00:01.2,0.001750946,-0.007043839,-0.000183105,0,
00:01.2,0.001750946,-0.007026672,-0.00019455,0,
00:01.2,0.001745224,-0.00702095,-0.000200272,0,
00:01.2,0.001750946,-0.007015228,-0.000211716,0,
00:01.2,0.001756668,-0.007015228,-0.000228882,0,
00:01.2,0.001745224,-0.007003784,-0.00022316,0,
00:01.2,0.001750946,-0.006986618,-0.000246048,0,
00:01.2,0.001739502,-0.006986618,-0.000246048,0,
00:01.2,0.001739502,-0.006980896,-0.000234604,0,
00:01.2,0.001750946,-0.00696373,-0.000246048,0,
00:01.2,0.001745224,-0.006952286,-0.000268936,0,
00:01.2,0.001745224,-0.006940842,-0.000268936,0,
00:01.2,0.00173378,-0.006923676,-0.000274658,0,
00:01.2,0.001756668,-0.006917953,-0.00028038,0,
00:01.2,0.001756668,-0.006912231,-0.000291824,0,
00:01.3,0.00173378,-0.006906509,-0.000297546,0,
00:01.3,0.001739502,-0.006889343,-0.000303268,0,
00:01.3,0.00173378,-0.006877899,-0.000303268,0,
00:01.3,0.001728058,-0.006872177,-0.000314713,0,
00:01.3,0.00173378,-0.006872177,-0.000326157,0,
00:01.3,0.001745224,-0.006855011,-0.000349045,0,
00:01.3,0.00173378,-0.006837845,-0.000343323,0,
00:01.3,0.001722336,-0.006832123,-0.000343323,0,
00:01.3,0.001722336,-0.006820679,-0.000349045,0,
00:01.3,0.00173378,-0.006809235,-0.000371933,0,
00:01.3,0.001728058,-0.006797791,-0.000383377,0,
00:01.3,0.00173378,-0.006780624,-0.000389099,0,
00:01.3,0.001722336,-0.006780624,-0.000377655,0,
00:01.3,0.001722336,-0.006763458,-0.000371933,0,
00:01.3,0.001728058,-0.006746292,-0.000394821,0,
00:01.3,0.001722336,-0.006734848,-0.000411987,0,
00:01.3,0.001716614,-0.006723404,-0.000389099,0,
00:01.3,0.001722336,-0.006717682,-0.000406265,0,
00:01.3,0.001710892,-0.006706238,-0.000434875,0,
00:01.3,0.001699448,-0.006700516,-0.000429153,0,
00:01.3,0.001716614,-0.006689072,-0.000417709,0,
00:01.3,0.001716614,-0.006666183,-0.000417709,0,
00:01.3,0.001710892,-0.006666183,-0.000434875,0,
00:01.3,0.001710892,-0.006654739,-0.000463486,0,
00:01.3,0.001716614,-0.006631851,-0.000452042,0,
00:01.4,0.001710892,-0.006631851,-0.000452042,0,
00:01.4,0.001728058,-0.006614685,-0.000469208,0,
00:01.4,0.001716614,-0.006603241,-0.000469208,0,
00:01.4,0.001693726,-0.006597519,-0.00047493,0,
00:01.4,0.001699448,-0.006580353,-0.000480652,0,
00:01.4,0.001699448,-0.006574631,-0.000486374,0,
00:01.4,0.00170517,-0.006568909,-0.000492096,0,
00:01.4,0.001699448,-0.006557465,-0.000497818,0,
00:01.4,0.001699448,-0.006546021,-0.000497818,0,
00:01.4,0.001688004,-0.006534576,-0.000509262,0,
00:01.4,0.00170517,-0.006528854,-0.000509262,0,
00:01.4,0.00170517,-0.00651741,-0.000526428,0,
00:01.4,0.001710892,-0.006500244,-0.00053215,0,
00:01.4,0.00170517,-0.006483078,-0.00053215,0,
00:01.4,0.001699448,-0.006477356,-0.00053215,0,
00:01.4,0.001699448,-0.006471634,-0.000537872,0,
00:01.4,0.001722336,-0.006454468,-0.00056076,0,
00:01.4,0.001710892,-0.006448746,-0.000555038,0,
00:01.4,0.001710892,-0.006437302,-0.000543594,0,
00:01.4,0.001710892,-0.00643158,-0.000555038,0,
00:01.4,0.001722336,-0.006420135,-0.000555038,0,
00:01.4,0.001716614,-0.006408691,-0.000566483,0,
00:01.4,0.001728058,-0.006397247,-0.000577927,0,
00:01.4,0.001728058,-0.006385803,-0.000583649,0,
00:01.4,0.00173378,-0.006374359,-0.000589371,0,
00:01.5,0.00173378,-0.006374359,-0.000589371,0,
00:01.5,0.001728058,-0.006362915,-0.000572205,0,
00:01.5,0.001745224,-0.006345749,-0.000595093,0,
00:01.5,0.001750946,-0.006340027,-0.000589371,0,
00:01.5,0.00173378,-0.006328583,-0.000589371,0,
00:01.5,0.001739502,-0.006317139,-0.000583649,0,
00:01.5,0.001739502,-0.006305695,-0.000589371,0,
00:01.5,0.001722336,-0.00629425,-0.000595093,0,
00:01.5,0.00173378,-0.006288528,-0.000606537,0,
00:01.5,0.001745224,-0.006288528,-0.000606537,0,
00:01.5,0.001739502,-0.006271362,-0.000606537,0,
00:01.5,0.001739502,-0.006254196,-0.000629425,0,
00:01.5,0.001745224,-0.006248474,-0.000629425,0,
00:01.5,0.001745224,-0.006248474,-0.000629425,0,
00:01.5,0.001745224,-0.006242752,-0.000612259,0,
00:01.5,0.001728058,-0.006225586,-0.000623703,0,
00:01.5,0.001728058,-0.006219864,-0.000629425,0,
00:01.5,0.001722336,-0.006214142,-0.000635147,0,
00:01.5,0.001728058,-0.006202698,-0.000640869,0,
00:01.5,0.001728058,-0.006196976,-0.000640869,0,
00:01.5,0.001722336,-0.006196976,-0.000646591,0,
00:01.5,0.001728058,-0.00617981,-0.000652313,0,
00:01.5,0.001716614,-0.006168365,-0.000652313,0,
00:01.5,0.001728058,-0.006156921,-0.000669479,0,
00:01.5,0.001722336,-0.006156921,-0.000669479,0,
00:01.6,0.001739502,-0.006151199,-0.000669479,0,
00:01.6,0.001710892,-0.006134033,-0.000669479,0,
00:01.6,0.001699448,-0.006122589,-0.000669479,0,
00:01.6,0.001710892,-0.006122589,-0.000675201,0,
00:01.6,0.001716614,-0.006111145,-0.000686646,0,
00:01.6,0.001710892,-0.006093979,-0.000686646,0,
00:01.6,0.001710892,-0.006093979,-0.000680923,0,
00:01.6,0.00170517,-0.006093979,-0.000686646,0,
00:01.6,0.001699448,-0.006088257,-0.000692368,0,
00:01.6,0.001699448,-0.006076813,-0.000675201,0,
00:01.6,0.00170517,-0.006071091,-0.000686646,0,
00:01.6,0.001710892,-0.006059647,-0.00069809,0,
00:01.6,0.001716614,-0.006048203,-0.000709534,0,
00:01.6,0.00170517,-0.00604248,-0.000709534,0,
00:01.6,0.001688004,-0.00604248,-0.00069809,0,
00:01.6,0.00170517,-0.006025314,-0.000692368,0,
00:01.6,0.001710892,-0.006019592,-0.000709534,0,
00:01.6,0.00170517,-0.00601387,-0.000709534,0,
00:01.6,0.00170517,-0.005996704,-0.000720978,0,
00:01.6,0.00170517,-0.005996704,-0.000720978,0,
00:01.6,0.001716614,-0.006002426,-0.000703812,0,
00:01.6,0.001710892,-0.00598526,-0.00069809,0,
00:01.6,0.001722336,-0.005962372,-0.000715256,0,
00:01.6,0.001728058,-0.005950928,-0.000720978,0,
00:01.6,0.001710892,-0.005939484,-0.000720978,0,
00:01.7,0.00170517,-0.00592804,-0.000709534,0,
00:01.7,0.001716614,-0.005922318,-0.000709534,0,
00:01.7,0.001716614,-0.005916595,-0.000720978,0,
00:01.7,0.001716614,-0.005905151,-0.000720978,0,
00:01.7,0.001722336,-0.005899429,-0.000732422,0,
00:01.7,0.001722336,-0.005870819,-0.000738144,0,
00:01.7,0.001710892,-0.005859375,-0.000720978,0,
00:01.7,0.001710892,-0.005853653,-0.0007267,0,
00:01.7,0.001716614,-0.005853653,-0.000732422,0,
00:01.7,0.001710892,-0.005842209,-0.000749588,0,
00:01.7,0.001699448,-0.005830765,-0.000749588,0,
00:01.7,0.001699448,-0.005830765,-0.000743866,0,
00:01.7,0.00170517,-0.005819321,-0.000749588,0,
00:01.7,0.001699448,-0.005802155,-0.000743866,0,
00:01.7,0.001699448,-0.005796432,-0.000761032,0,
00:01.7,0.001693726,-0.00579071,-0.000761032,0,
00:01.7,0.001699448,-0.005779266,-0.000749588,0,
00:01.7,0.001699448,-0.005773544,-0.000738144,0,
00:01.7,0.001699448,-0.005773544,-0.000749588,0,
00:01.7,0.001699448,-0.0057621,-0.000761032,0,
00:01.7,0.00170517,-0.005750656,-0.000761032,0,
00:01.7,0.001693726,-0.005756378,-0.000766754,0,
00:01.7,0.001693726,-0.005744934,-0.00075531,0,
00:01.7,0.001688004,-0.005739212,-0.000761032,0,
00:01.7,0.001682281,-0.00573349,-0.000766754,0,
00:01.8,0.001688004,-0.005722046,-0.000778198,0,
00:01.8,0.001688004,-0.005716324,-0.00078392,0,
00:01.8,0.001693726,-0.005716324,-0.00078392,0,
00:01.8,0.001699448,-0.005710602,-0.000789642,0,
00:01.8,0.001688004,-0.005710602,-0.000795364,0,
00:01.8,0.001682281,-0.005716324,-0.000789642,0,
00:01.8,0.001682281,-0.00570488,-0.00078392,0,
00:01.8,0.001682281,-0.00570488,-0.000789642,0,
00:01.8,0.001676559,-0.00570488,-0.000801086,0,
00:01.8,0.001688004,-0.005693436,-0.000801086,0,
00:01.8,0.001693726,-0.005693436,-0.000801086,0,
00:01.8,0.001665115,-0.005681992,-0.000806808,0,
00:01.8,0.001665115,-0.00567627,-0.000789642,0,
00:01.8,0.001670837,-0.005670547,-0.000789642,0,
00:01.8,0.001676559,-0.005664825,-0.000806808,0,
00:01.8,0.001665115,-0.005664825,-0.000806808,0,
00:01.8,0.001670837,-0.005659103,-0.000806808,0,
00:01.8,0.001670837,-0.005659103,-0.000801086,0,
00:01.8,0.001659393,-0.005664825,-0.000812531,0,
00:01.8,0.001665115,-0.005659103,-0.000806808,0,
00:01.8,0.001665115,-0.005653381,-0.000806808,0,
00:01.8,0.001665115,-0.005641937,-0.000801086,0,
00:01.8,0.001670837,-0.005636215,-0.000801086,0,
00:01.8,0.001659393,-0.005647659,-0.000801086,0,
00:01.8,0.001659393,-0.005647659,-0.000795364,0,
00:01.9,0.001659393,-0.005636215,-0.000812531,0,
00:01.9,0.001653671,-0.005630493,-0.000812531,0,
00:01.9,0.001665115,-0.005636215,-0.000812531,0,
00:01.9,0.001665115,-0.005630493,-0.000818253,0,
00:01.9,0.001665115,-0.005624771,-0.000823975,0,
00:01.9,0.001653671,-0.005630493,-0.000823975,0,
00:01.9,0.001659393,-0.005624771,-0.000818253,0,
00:01.9,0.001676559,-0.005613327,-0.000846863,0,
00:01.9,0.001659393,-0.005619049,-0.000841141,0,
00:01.9,0.001653671,-0.005619049,-0.000818253,0,
00:01.9,0.001642227,-0.005630493,-0.000823975,0,
00:01.9,0.001653671,-0.005630493,-0.000823975,0,
00:01.9,0.001647949,-0.005636215,-0.000829697,0,
00:01.9,0.001642227,-0.005624771,-0.000841141,0,
00:01.9,0.001636505,-0.005613327,-0.000858307,0,
00:01.9,0.001653671,-0.005619049,-0.000841141,0,
00:01.9,0.001659393,-0.005624771,-0.000823975,0,
00:01.9,0.001636505,-0.005619049,-0.000835419,0,
00:01.9,0.001625061,-0.005613327,-0.000835419,0,
00:01.9,0.001659393,-0.005613327,-0.000841141,0,
00:01.9,0.001665115,-0.005613327,-0.000846863,0,
00:01.9,0.001653671,-0.005613327,-0.000846863,0,
00:01.9,0.001653671,-0.005613327,-0.000841141,0,
00:01.9,0.001647949,-0.005613327,-0.000841141,0,
00:01.9,0.001653671,-0.005607605,-0.000852585,0,
00:02.0,0.001647949,-0.005607605,-0.000846863,0,
00:02.0,0.001642227,-0.005607605,-0.000846863,0,
00:02.0,0.001642227,-0.005596161,-0.000852585,0,
00:02.0,0.001642227,-0.005590439,-0.000869751,0,
00:02.0,0.001642227,-0.005590439,-0.000875473,0,
00:02.0,0.001630783,-0.005596161,-0.000875473,0,
00:02.0,0.001636505,-0.005601883,-0.000869751,0,
00:02.0,0.001630783,-0.005601883,-0.000881195,0,
00:02.0,0.001630783,-0.005590439,-0.000898361,0,
00:02.0,0.001630783,-0.005590439,-0.000898361,0,
00:02.0,0.001619339,-0.005596161,-0.000892639,0,
00:02.0,0.001625061,-0.005590439,-0.000881195,0,
00:00:02,0.001636505,-0.005596161,-0.000892639,0,
00:02.0,0.001636505,-0.005601883,-0.000904083,0,
00:02.0,0.001619339,-0.005601883,-0.000909805,0,
00:02.0,0.001625061,-0.005584717,-0.000926971,0,
00:02.0,0.001625061,-0.005590439,-0.000915527,0,
00:02.0,0.001613617,-0.005590439,-0.000915527,0,
00:02.0,0.001602173,-0.005596161,-0.000915527,0,
00:02.0,0.001619339,-0.005596161,-0.000932693,0,
00:02.0,0.001619339,-0.005596161,-0.000938416,0,
00:02.0,0.001607895,-0.005601883,-0.000921249,0,
00:02.0,0.001619339,-0.005596161,-0.000921249,0,
00:02.0,0.001619339,-0.005596161,-0.000938416,0,
00:02.0,0.001613617,-0.005607605,-0.000944138,0,
00:02.1,0.001619339,-0.005601883,-0.000944138,0,
00:02.1,0.001625061,-0.005596161,-0.000955582,0,
00:02.1,0.001625061,-0.005601883,-0.00094986,0,
00:02.1,0.001619339,-0.005596161,-0.00094986,0,
00:02.1,0.001625061,-0.005601883,-0.000961304,0,
00:02.1,0.001625061,-0.005596161,-0.000967026,0,
00:02.1,0.001625061,-0.005584717,-0.00097847,0,
00:02.1,0.001619339,-0.005596161,-0.000995636,0,
00:02.1,0.001636505,-0.005596161,-0.000984192,0,
00:02.1,0.001630783,-0.005596161,-0.000972748,0,
00:02.1,0.001625061,-0.005601883,-0.00097847,0,
00:02.1,0.001625061,-0.005601883,-0.000984192,0,
00:02.1,0.001630783,-0.005596161,-0.000995636,0,
00:02.1,0.001636505,-0.005601883,-0.000984192,0,
00:02.1,0.001642227,-0.005590439,-0.000989914,0,
00:02.1,0.001636505,-0.005590439,-0.00100708,0,
00:02.1,0.001636505,-0.005584717,-0.001018524,0,
00:02.1,0.001602173,-0.005596161,-0.000995636,0,
00:02.1,0.001636505,-0.005590439,-0.001018524,0,
00:02.1,0.001636505,-0.005590439,-0.001029968,0,
00:02.1,0.001630783,-0.005596161,-0.001024246,0,
00:02.1,0.001619339,-0.005601883,-0.001012802,0,
00:02.1,0.001625061,-0.005613327,-0.001018524,0,
00:02.1,0.001642227,-0.005613327,-0.001029968,0,
00:02.1,0.001642227,-0.005607605,-0.00103569,0,
00:02.2,0.001630783,-0.005619049,-0.00103569,0,
00:02.2,0.001636505,-0.005619049,-0.00103569,0,
00:02.2,0.001630783,-0.005624771,-0.00103569,0,
00:02.2,0.001630783,-0.005619049,-0.001047134,0,
00:02.2,0.001630783,-0.005619049,-0.001058578,0,
00:02.2,0.001630783,-0.005619049,-0.001052856,0,
00:02.2,0.001630783,-0.005613327,-0.001047134,0,
00:02.2,0.001613617,-0.005624771,-0.001052856,0,
00:02.2,0.001630783,-0.005624771,-0.001047134,0,
00:02.2,0.001625061,-0.005636215,-0.001064301,0,
00:02.2,0.001625061,-0.005641937,-0.001070023,0,
00:02.2,0.001630783,-0.005641937,-0.001070023,0,
00:02.2,0.001642227,-0.005647659,-0.001064301,0,
00:02.2,0.001619339,-0.005647659,-0.001070023,0,
00:02.2,0.001630783,-0.005636215,-0.001075745,0,
00:02.2,0.001636505,-0.005641937,-0.001092911,0,
00:02.2,0.001625061,-0.005636215,-0.001075745,0,
00:02.2,0.001625061,-0.005641937,-0.001092911,0,
00:02.2,0.001642227,-0.005641937,-0.001104355,0,
00:02.2,0.001647949,-0.005641937,-0.001115799,0,
00:02.2,0.001636505,-0.005641937,-0.001104355,0,
00:02.2,0.001636505,-0.005641937,-0.001110077,0,
00:02.2,0.001636505,-0.005647659,-0.001110077,0,
00:02.2,0.001647949,-0.005647659,-0.001115799,0,
00:02.2,0.001647949,-0.005647659,-0.001121521,0,
00:02.3,0.001647949,-0.005641937,-0.001127243,0,
00:02.3,0.001659393,-0.005641937,-0.001138687,0,
00:02.3,0.001647949,-0.005647659,-0.001127243,0,
00:02.3,0.001647949,-0.005647659,-0.001132965,0,
00:02.3,0.001647949,-0.005647659,-0.001138687,0,
00:02.3,0.001636505,-0.005647659,-0.001138687,0,
00:02.3,0.001647949,-0.005641937,-0.001150131,0,
00:02.3,0.001653671,-0.005641937,-0.001155853,0,
00:02.3,0.001665115,-0.005647659,-0.001173019,0,
00:02.3,0.001659393,-0.005659103,-0.001167297,0,
00:02.3,0.001659393,-0.005659103,-0.001161575,0,
00:02.3,0.001653671,-0.005659103,-0.001167297,0,
00:02.3,0.001647949,-0.005659103,-0.001178741,0,
00:02.3,0.001647949,-0.005653381,-0.001178741,0,
00:02.3,0.001659393,-0.005653381,-0.001184464,0,
00:02.3,0.001659393,-0.005653381,-0.001190186,0,
00:02.3,0.001653671,-0.005653381,-0.001207352,0,
00:02.3,0.001653671,-0.005653381,-0.001224518,0,
00:02.3,0.001642227,-0.005664825,-0.001190186,0,
00:02.3,0.001647949,-0.005653381,-0.001190186,0,
00:02.3,0.001653671,-0.005653381,-0.001190186,0,
00:02.3,0.001642227,-0.005659103,-0.001207352,0,
00:02.3,0.001642227,-0.005653381,-0.001213074,0,
00:02.3,0.001642227,-0.005647659,-0.00123024,0,
00:02.3,0.001647949,-0.005641937,-0.001247406,0,
00:02.4,0.001636505,-0.005647659,-0.001218796,0,
00:02.4,0.001630783,-0.005653381,-0.001207352,0,
00:02.4,0.001630783,-0.005653381,-0.001241684,0,
00:02.4,0.001636505,-0.005653381,-0.001235962,0,
00:02.4,0.001636505,-0.005659103,-0.001224518,0,
00:02.4,0.001636505,-0.005659103,-0.001235962,0,
00:02.4,0.001636505,-0.005670547,-0.001241684,0,
00:02.4,0.001636505,-0.005670547,-0.001247406,0,
00:02.4,0.001653671,-0.005664825,-0.00125885,0,
00:02.4,0.001647949,-0.005670547,-0.001253128,0,
00:02.4,0.001642227,-0.005670547,-0.001247406,0,
00:02.4,0.001636505,-0.005670547,-0.001247406,0,
00:02.4,0.001647949,-0.005664825,-0.001270294,0,
00:02.4,0.001653671,-0.005664825,-0.001276016,0,
00:02.4,0.001647949,-0.005664825,-0.001276016,0,
00:02.4,0.001647949,-0.005664825,-0.001270294,0,
00:02.4,0.001647949,-0.00567627,-0.001276016,0,
00:02.4,0.001647949,-0.00567627,-0.00128746,0,
00:02.4,0.001642227,-0.005670547,-0.001293182,0,
00:02.4,0.001665115,-0.00567627,-0.001310349,0,
00:02.4,0.001642227,-0.005681992,-0.001333237,0,
00:02.4,0.001636505,-0.005687714,-0.001304626,0,
00:02.4,0.001630783,-0.005693436,-0.001310349,0,
00:02.4,0.001636505,-0.005693436,-0.001327515,0,
00:02.4,0.001653671,-0.005687714,-0.001327515,0,
00:02.5,0.001659393,-0.005693436,-0.001338959,0,
00:02.5,0.001653671,-0.00570488,-0.001338959,0,
00:02.5,0.001642227,-0.00570488,-0.001344681,0,
00:02.5,0.001642227,-0.00570488,-0.001344681,0,
00:02.5,0.001642227,-0.005699158,-0.001344681,0,
00:02.5,0.001647949,-0.005693436,-0.001344681,0,
00:02.5,0.001636505,-0.005699158,-0.001338959,0,
00:02.5,0.001636505,-0.005693436,-0.001344681,0,
00:02.5,0.001630783,-0.00570488,-0.001356125,0,
00:02.5,0.001636505,-0.005710602,-0.001367569,0,
00:02.5,0.001642227,-0.00570488,-0.001373291,0,
00:02.5,0.001642227,-0.005710602,-0.001379013,0,
00:02.5,0.001636505,-0.005716324,-0.001390457,0,
00:02.5,0.001642227,-0.005710602,-0.001396179,0,
00:02.5,0.001653671,-0.00570488,-0.001401901,0,
00:02.5,0.001653671,-0.005710602,-0.001407623,0,
00:02.5,0.001647949,-0.00570488,-0.001407623,0,
00:02.5,0.001642227,-0.005716324,-0.001419067,0,
00:02.5,0.001647949,-0.005710602,-0.001424789,0,
00:02.5,0.001636505,-0.005727768,-0.001419067,0,
00:02.5,0.001636505,-0.005727768,-0.001413345,0,
00:02.5,0.001642227,-0.005722046,-0.001430511,0,
00:02.5,0.001636505,-0.005722046,-0.001447678,0,
00:02.5,0.001636505,-0.005727768,-0.001424789,0,
00:02.5,0.001636505,-0.005727768,-0.001430511,0,
00:02.6,0.001642227,-0.005727768,-0.001447678,0,
00:02.6,0.001636505,-0.005727768,-0.001464844,0,
00:02.6,0.001636505,-0.00573349,-0.001470566,0,
00:02.6,0.001630783,-0.005744934,-0.001464844,0,
00:02.6,0.001636505,-0.005739212,-0.001459122,0,
00:02.6,0.001625061,-0.005744934,-0.001476288,0,
00:02.6,0.001625061,-0.005744934,-0.00148201,0,
00:02.6,0.001625061,-0.005739212,-0.001476288,0,
00:02.6,0.001625061,-0.005739212,-0.001476288,0,
00:02.6,0.001630783,-0.005750656,-0.001487732,0,
00:02.6,0.001630783,-0.005750656,-0.001493454,0,
00:02.6,0.001630783,-0.005756378,-0.001470566,0,
00:02.6,0.001636505,-0.005756378,-0.00148201,0,
00:02.6,0.001636505,-0.005750656,-0.001493454,0,
00:02.6,0.001625061,-0.005750656,-0.00151062,0,
00:02.6,0.001619339,-0.0057621,-0.00151062,0,
00:02.6,0.001613617,-0.005767822,-0.001516342,0,
00:02.6,0.001625061,-0.005767822,-0.001516342,0,
00:02.6,0.001625061,-0.005767822,-0.001522064,0,
00:02.6,0.001619339,-0.005767822,-0.001533508,0,
00:02.6,0.001625061,-0.005767822,-0.001533508,0,
00:02.6,0.001625061,-0.005773544,-0.001516342,0,
00:02.6,0.001613617,-0.005779266,-0.00151062,0,
00:02.6,0.001613617,-0.005779266,-0.001522064,0,
00:02.6,0.001613617,-0.005779266,-0.001527786,0,
00:02.7,0.001613617,-0.005773544,-0.00153923,0,
00:02.7,0.001613617,-0.005779266,-0.001544952,0,
00:02.7,0.001602173,-0.005779266,-0.001544952,0,
00:02.7,0.001596451,-0.005779266,-0.001550674,0,
00:02.7,0.001602173,-0.005779266,-0.001544952,0,
00:02.7,0.001607895,-0.005779266,-0.001544952,0,
00:02.7,0.001602173,-0.005779266,-0.001550674,0,
00:02.7,0.001607895,-0.005784988,-0.001550674,0,
00:02.7,0.001625061,-0.005784988,-0.001562119,0,
00:02.7,0.001619339,-0.00579071,-0.001562119,0,
00:02.7,0.001613617,-0.005796432,-0.001567841,0,
00:02.7,0.001619339,-0.00579071,-0.001562119,0,
00:02.7,0.001607895,-0.005796432,-0.001562119,0,
00:02.7,0.001607895,-0.005796432,-0.001573563,0,
00:02.7,0.001607895,-0.005802155,-0.001579285,0,
00:02.7,0.001596451,-0.005807877,-0.001573563,0,
00:02.7,0.001625061,-0.005802155,-0.001579285,0,
00:02.7,0.001619339,-0.005807877,-0.001579285,0,
00:02.7,0.001613617,-0.005807877,-0.001573563,0,
00:02.7,0.001607895,-0.005819321,-0.001585007,0,
00:02.7,0.001602173,-0.005825043,-0.001579285,0,
00:02.7,0.001607895,-0.005830765,-0.001585007,0,
00:02.7,0.001607895,-0.005825043,-0.001607895,0,
00:02.7,0.001602173,-0.005830765,-0.001602173,0,
00:02.7,0.001596451,-0.005836487,-0.001607895,0,
00:02.8,0.001590729,-0.005842209,-0.001607895,0,
00:02.8,0.001590729,-0.005842209,-0.001619339,0,
00:02.8,0.001590729,-0.005842209,-0.001619339,0,
00:02.8,0.001590729,-0.005847931,-0.001625061,0,
00:02.8,0.001585007,-0.005853653,-0.001630783,0,
00:02.8,0.001596451,-0.005847931,-0.001625061,0,
00:02.8,0.001590729,-0.005853653,-0.001630783,0,
00:02.8,0.001590729,-0.005847931,-0.001630783,0,
00:02.8,0.001590729,-0.005853653,-0.001642227,0,
00:02.8,0.001590729,-0.005853653,-0.001642227,0,
00:02.8,0.001585007,-0.005853653,-0.001625061,0,
00:02.8,0.001596451,-0.005842209,-0.001642227,0,
00:02.8,0.001602173,-0.005859375,-0.001653671,0,
00:02.8,0.001579285,-0.005870819,-0.001647949,0,
00:02.8,0.001579285,-0.005870819,-0.001647949,0,
00:02.8,0.001585007,-0.005870819,-0.001653671,0,
00:02.8,0.001590729,-0.005870819,-0.001653671,0,
00:02.8,0.001585007,-0.005870819,-0.001653671,0,
00:02.8,0.001590729,-0.005870819,-0.001659393,0,
00:02.8,0.001585007,-0.005882263,-0.001659393,0,
00:02.8,0.001590729,-0.005882263,-0.001659393,0,
00:02.8,0.001602173,-0.005876541,-0.001659393,0,
00:02.8,0.001602173,-0.005882263,-0.001676559,0,
00:02.8,0.001596451,-0.005887985,-0.001676559,0,
00:02.8,0.001596451,-0.005887985,-0.001665115,0,
00:02.9,0.001590729,-0.005887985,-0.001676559,0,
00:02.9,0.001590729,-0.005899429,-0.001682281,0,
00:02.9,0.001590729,-0.005905151,-0.001688004,0,
00:02.9,0.001590729,-0.005899429,-0.001688004,0,
00:02.9,0.001585007,-0.005899429,-0.001693726,0,
00:02.9,0.001585007,-0.005905151,-0.001693726,0,
00:02.9,0.001602173,-0.005905151,-0.00170517,0,
00:02.9,0.001596451,-0.005910873,-0.001699448,0,
00:02.9,0.001590729,-0.005922318,-0.00170517,0,
00:02.9,0.001585007,-0.005922318,-0.00170517,0,
00:02.9,0.001579285,-0.005922318,-0.001710892,0,
00:02.9,0.001573563,-0.005922318,-0.00170517,0,
00:02.9,0.001596451,-0.005933762,-0.001710892,0,
00:02.9,0.001590729,-0.005939484,-0.001710892,0,
00:02.9,0.001579285,-0.005945206,-0.001716614,0,
00:02.9,0.001590729,-0.005939484,-0.001728058,0,
00:02.9,0.001596451,-0.005939484,-0.001739502,0,
00:02.9,0.001585007,-0.005945206,-0.00173378,0,
00:02.9,0.001585007,-0.005950928,-0.001739502,0,
00:02.9,0.001585007,-0.00595665,-0.001739502,0,
00:02.9,0.001585007,-0.00595665,-0.00173378,0,
00:02.9,0.001585007,-0.005950928,-0.001739502,0,
00:02.9,0.001579285,-0.005962372,-0.001745224,0,
00:02.9,0.001573563,-0.005962372,-0.001750946,0,
00:02.9,0.001573563,-0.005962372,-0.001750946,0,
00:03.0,0.001579285,-0.00595665,-0.001756668,0,
00:03.0,0.001585007,-0.005950928,-0.001768112,0,
00:03.0,0.001579285,-0.00595665,-0.00176239,0,
00:03.0,0.001567841,-0.005968094,-0.001745224,0,
00:03.0,0.001573563,-0.005968094,-0.001745224,0,
00:03.0,0.001579285,-0.005962372,-0.001745224,0,
00:03.0,0.001579285,-0.005962372,-0.001750946,0,
00:03.0,0.001573563,-0.005973816,-0.00176239,0,
00:03.0,0.001573563,-0.005968094,-0.00176239,0,
00:03.0,0.001567841,-0.005973816,-0.00176239,0,
00:03.0,0.001567841,-0.005973816,-0.001756668,0,
00:03.0,0.001579285,-0.005979538,-0.001756668,0,
00:00:03,0.001579285,-0.005990982,-0.001756668,0,
00:03.0,0.001573563,-0.00598526,-0.001756668,0,
00:03.0,0.001590729,-0.005990982,-0.001756668,0,
00:03.0,0.001590729,-0.005990982,-0.001750946,0,
00:03.0,0.001579285,-0.005990982,-0.001750946,0,
00:03.0,0.001573563,-0.005996704,-0.00176239,0,
00:03.0,0.001573563,-0.005996704,-0.001779556,0,
00:03.0,0.001567841,-0.006002426,-0.001773834,0,
00:03.0,0.001573563,-0.005996704,-0.001750946,0,
00:03.0,0.001567841,-0.005996704,-0.001756668,0,
00:03.0,0.001573563,-0.006002426,-0.00176239,0,
00:03.0,0.001567841,-0.006002426,-0.00176239,0,
00:03.0,0.001573563,-0.005996704,-0.00176239,0,
00:03.1,0.001579285,-0.006002426,-0.001756668,0,
00:03.1,0.001579285,-0.006008148,-0.00176239,0,
00:03.1,0.001579285,-0.006002426,-0.00176239,0,
00:03.1,0.001579285,-0.006002426,-0.00176239,0,
00:03.1,0.001573563,-0.006002426,-0.001768112,0,
00:03.1,0.001573563,-0.006002426,-0.001773834,0,
00:03.1,0.001579285,-0.006008148,-0.001768112,0,
00:03.1,0.001567841,-0.006008148,-0.00176239,0,
00:03.1,0.001567841,-0.00601387,-0.001768112,0,
00:03.1,0.001585007,-0.00601387,-0.001768112,0,
00:03.1,0.001573563,-0.006008148,-0.00176239,0,
00:03.1,0.001573563,-0.00601387,-0.00176239,0,
00:03.1,0.001579285,-0.00601387,-0.001768112,0,
00:03.1,0.001567841,-0.006019592,-0.001773834,0,
00:03.1,0.001579285,-0.006019592,-0.001768112,0,
00:03.1,0.001596451,-0.00601387,-0.00176239,0,
00:03.1,0.001579285,-0.006019592,-0.00176239,0,
00:03.1,0.001585007,-0.00601387,-0.001750946,0,
00:03.1,0.001585007,-0.00601387,-0.001756668,0,
00:03.1,0.001590729,-0.006019592,-0.00176239,0,
00:03.1,0.001590729,-0.006025314,-0.001773834,0,
00:03.1,0.001579285,-0.006031036,-0.00176239,0,
00:03.1,0.001573563,-0.006036758,-0.001745224,0,
00:03.1,0.001579285,-0.006036758,-0.001745224,0,
00:03.1,0.001590729,-0.006031036,-0.001750946,0,
00:03.2,0.001590729,-0.006036758,-0.001768112,0,
00:03.2,0.001585007,-0.006036758,-0.001756668,0,
00:03.2,0.001590729,-0.006036758,-0.001750946,0,
00:03.2,0.001585007,-0.00604248,-0.001750946,0,
00:03.2,0.001596451,-0.006036758,-0.001756668,0,
00:03.2,0.001585007,-0.006036758,-0.001739502,0,
00:03.2,0.001590729,-0.00604248,-0.001750946,0,
00:03.2,0.001579285,-0.006059647,-0.001745224,0,
00:03.2,0.001579285,-0.006059647,-0.001739502,0,
00:03.2,0.001579285,-0.006059647,-0.001745224,0,
00:03.2,0.001579285,-0.006065369,-0.001745224,0,
00:03.2,0.001579285,-0.006065369,-0.001745224,0,
00:03.2,0.001579285,-0.006071091,-0.001750946,0,
00:03.2,0.001579285,-0.006082535,-0.001739502,0,
00:03.2,0.001567841,-0.006076813,-0.001745224,0,
00:03.2,0.001579285,-0.006076813,-0.001745224,0,
00:03.2,0.001567841,-0.006088257,-0.001728058,0,
00:03.2,0.001562119,-0.006093979,-0.001728058,0,
00:03.2,0.001573563,-0.006093979,-0.00173378,0,
00:03.2,0.001579285,-0.006088257,-0.001739502,0,
00:03.2,0.001585007,-0.006088257,-0.001728058,0,
00:03.2,0.001567841,-0.006093979,-0.001722336,0,
00:03.2,0.001567841,-0.006093979,-0.001739502,0,
00:03.2,0.001567841,-0.006099701,-0.001739502,0,
00:03.2,0.001573563,-0.006105423,-0.001722336,0,
00:03.3,0.001579285,-0.006105423,-0.001722336,0,
00:03.3,0.001590729,-0.006105423,-0.00173378,0,
00:03.3,0.001579285,-0.006116867,-0.001739502,0,
00:03.3,0.001567841,-0.006111145,-0.001750946,0,
00:03.3,0.001567841,-0.006116867,-0.001739502,0,
00:03.3,0.001567841,-0.006116867,-0.001716614,0,
00:03.3,0.001573563,-0.006122589,-0.001722336,0,
00:03.3,0.001567841,-0.006128311,-0.001728058,0,
00:03.3,0.001562119,-0.006128311,-0.001728058,0,
00:03.3,0.001562119,-0.006128311,-0.001722336,0,
00:03.3,0.001562119,-0.006134033,-0.001710892,0,
00:03.3,0.001573563,-0.006128311,-0.001716614,0,
00:03.3,0.001567841,-0.006134033,-0.001722336,0,
00:03.3,0.001567841,-0.006151199,-0.001716614,0,
00:03.3,0.001562119,-0.006151199,-0.001710892,0,
00:03.3,0.001579285,-0.006151199,-0.001710892,0,
00:03.3,0.001579285,-0.006151199,-0.00170517,0,
00:03.3,0.001573563,-0.006151199,-0.001699448,0,
00:03.3,0.001567841,-0.006156921,-0.001688004,0,
00:03.3,0.001567841,-0.006156921,-0.001670837,0,
00:03.3,0.001579285,-0.006151199,-0.001682281,0,
00:03.3,0.001579285,-0.006162643,-0.001659393,0,
00:03.3,0.001567841,-0.006162643,-0.001665115,0,
00:03.3,0.001556396,-0.006168365,-0.001659393,0,
00:03.3,0.001573563,-0.006168365,-0.001659393,0,
00:03.4,0.001573563,-0.006168365,-0.001665115,0,
00:03.4,0.001579285,-0.006162643,-0.001665115,0,
00:03.4,0.001567841,-0.006162643,-0.001653671,0,
00:03.4,0.001567841,-0.006162643,-0.001653671,0,
00:03.4,0.001573563,-0.006168365,-0.001665115,0,
00:03.4,0.001573563,-0.00617981,-0.001659393,0,
00:03.4,0.001567841,-0.006185532,-0.001636505,0,
00:03.4,0.001562119,-0.006185532,-0.001636505,0,
00:03.4,0.001573563,-0.00617981,-0.001642227,0,
00:03.4,0.001567841,-0.00617981,-0.001647949,0,
00:03.4,0.001567841,-0.006185532,-0.001636505,0,
00:03.4,0.001562119,-0.006191254,-0.001630783,0,
00:03.4,0.001562119,-0.006191254,-0.001642227,0,
00:03.4,0.001562119,-0.006191254,-0.001642227,0,
00:03.4,0.001562119,-0.006191254,-0.001636505,0,
00:03.4,0.001556396,-0.006196976,-0.001619339,0,
00:03.4,0.001562119,-0.006191254,-0.001607895,0,
00:03.4,0.001573563,-0.006202698,-0.001613617,0,
00:03.4,0.001567841,-0.006202698,-0.001630783,0,
00:03.4,0.001573563,-0.006202698,-0.001630783,0,
00:03.4,0.001562119,-0.006202698,-0.001607895,0,
00:03.4,0.001573563,-0.006202698,-0.001613617,0,
00:03.4,0.001579285,-0.00620842,-0.001625061,0,
00:03.4,0.001579285,-0.006214142,-0.001602173,0,
00:03.4,0.001585007,-0.006214142,-0.001607895,0,
00:03.5,0.001590729,-0.006214142,-0.001613617,0,
00:03.5,0.001585007,-0.006219864,-0.001619339,0,
00:03.5,0.001590729,-0.006214142,-0.001625061,0,
00:03.5,0.001585007,-0.006225586,-0.001630783,0,
00:03.5,0.001585007,-0.00623703,-0.001596451,0,
00:03.5,0.001579285,-0.00623703,-0.001596451,0,
00:03.5,0.001579285,-0.00623703,-0.001590729,0,
00:03.5,0.001579285,-0.006242752,-0.001585007,0,
00:03.5,0.001585007,-0.006242752,-0.001590729,0,
00:03.5,0.001596451,-0.006248474,-0.001573563,0,
00:03.5,0.001613617,-0.006248474,-0.001590729,0,
00:03.5,0.001585007,-0.006254196,-0.001585007,0,
00:03.5,0.001596451,-0.006254196,-0.001579285,0,
00:03.5,0.001590729,-0.006248474,-0.001585007,0,
00:03.5,0.001596451,-0.006248474,-0.001579285,0,
00:03.5,0.001590729,-0.006248474,-0.001562119,0,
00:03.5,0.001590729,-0.006248474,-0.001573563,0,
00:03.5,0.001596451,-0.006254196,-0.001585007,0,
00:03.5,0.001590729,-0.006259918,-0.001585007,0,
00:03.5,0.001590729,-0.006259918,-0.001579285,0,
00:03.5,0.001590729,-0.006259918,-0.001579285,0,
00:03.5,0.001596451,-0.006259918,-0.001567841,0,
00:03.5,0.001585007,-0.006271362,-0.001567841,0,
00:03.5,0.001579285,-0.006277084,-0.001579285,0,
00:03.5,0.001585007,-0.006282806,-0.001562119,0,
00:03.6,0.001573563,-0.006282806,-0.001556396,0,
00:03.6,0.001590729,-0.006277084,-0.001556396,0,
00:03.6,0.001602173,-0.006282806,-0.001544952,0,
00:03.6,0.001579285,-0.006277084,-0.001544952,0,
00:03.6,0.001585007,-0.006282806,-0.001533508,0,
00:03.6,0.001579285,-0.006288528,-0.001533508,0,
00:03.6,0.001585007,-0.006282806,-0.001544952,0,
00:03.6,0.001585007,-0.006288528,-0.001544952,0,
00:03.6,0.001590729,-0.006288528,-0.001533508,0,
00:03.6,0.001590729,-0.006288528,-0.001522064,0,
00:03.6,0.001585007,-0.00629425,-0.001527786,0,
00:03.6,0.001585007,-0.00629425,-0.001516342,0,
00:03.6,0.001585007,-0.00629425,-0.001516342,0,
00:03.6,0.001585007,-0.006299973,-0.001522064,0,
00:03.6,0.001585007,-0.006305695,-0.001516342,0,
00:03.6,0.001585007,-0.006305695,-0.00151062,0,
00:03.6,0.001579285,-0.006305695,-0.001522064,0,
00:03.6,0.001579285,-0.006311417,-0.00151062,0,
00:03.6,0.001579285,-0.006311417,-0.001499176,0,
00:03.6,0.001585007,-0.006322861,-0.001493454,0,
00:03.6,0.001596451,-0.006311417,-0.001499176,0,
00:03.6,0.001585007,-0.006317139,-0.001493454,0,
00:03.6,0.001585007,-0.006328583,-0.001476288,0,
00:03.6,0.001585007,-0.006334305,-0.001470566,0,
00:03.6,0.001590729,-0.006334305,-0.001487732,0,
00:03.7,0.001590729,-0.006340027,-0.001493454,0,
00:03.7,0.001585007,-0.006340027,-0.00148201,0,
00:03.7,0.001596451,-0.006345749,-0.00148201,0,
00:03.7,0.001596451,-0.006345749,-0.001476288,0,
00:03.7,0.001590729,-0.006351471,-0.001464844,0,
00:03.7,0.001590729,-0.006345749,-0.001476288,0,
00:03.7,0.001590729,-0.006351471,-0.001476288,0,
00:03.7,0.001585007,-0.006357193,-0.001464844,0,
00:03.7,0.001590729,-0.006357193,-0.001459122,0,
00:03.7,0.001579285,-0.006368637,-0.001447678,0,
00:03.7,0.001590729,-0.006368637,-0.0014534,0,
00:03.7,0.001596451,-0.006374359,-0.001459122,0,
00:03.7,0.001590729,-0.006380081,-0.0014534,0,
00:03.7,0.001590729,-0.006380081,-0.001447678,0,
00:03.7,0.001579285,-0.006391525,-0.001441956,0,
00:03.7,0.001585007,-0.006397247,-0.001441956,0,
00:03.7,0.001585007,-0.006397247,-0.001436234,0,
00:03.7,0.001579285,-0.006397247,-0.001447678,0,
00:03.7,0.001579285,-0.006397247,-0.001459122,0,
00:03.7,0.001596451,-0.006408691,-0.001436234,0,
00:03.7,0.001573563,-0.006408691,-0.001430511,0,
00:03.7,0.001579285,-0.006402969,-0.001441956,0,
00:03.7,0.001590729,-0.006414413,-0.001436234,0,
00:03.7,0.001579285,-0.006420135,-0.001436234,0,
00:03.7,0.001585007,-0.006420135,-0.001430511,0,
00:03.8,0.001585007,-0.006425858,-0.001419067,0,
00:03.8,0.001579285,-0.00643158,-0.001413345,0,
00:03.8,0.001579285,-0.00643158,-0.001424789,0,
00:03.8,0.001579285,-0.006437302,-0.001419067,0,
00:03.8,0.001579285,-0.006437302,-0.001419067,0,
00:03.8,0.001579285,-0.006437302,-0.001413345,0,
00:03.8,0.001590729,-0.006437302,-0.001424789,0,
00:03.8,0.001573563,-0.006443024,-0.001424789,0,
00:03.8,0.001573563,-0.006448746,-0.001407623,0,
00:03.8,0.001579285,-0.006454468,-0.001396179,0,
00:03.8,0.001573563,-0.00646019,-0.001390457,0,
00:03.8,0.001573563,-0.006465912,-0.001401901,0,
00:03.8,0.001556396,-0.006471634,-0.001407623,0,
00:03.8,0.001567841,-0.006477356,-0.001407623,0,
00:03.8,0.001579285,-0.006477356,-0.001401901,0,
00:03.8,0.001573563,-0.006477356,-0.001396179,0,
00:03.8,0.001556396,-0.006477356,-0.001390457,0,
00:03.8,0.001562119,-0.0064888,-0.001390457,0,
00:03.8,0.001550674,-0.006494522,-0.001396179,0,
00:03.8,0.001556396,-0.006494522,-0.001384735,0,
00:03.8,0.001556396,-0.006494522,-0.001390457,0,
00:03.8,0.001556396,-0.006500244,-0.001390457,0,
00:03.8,0.001544952,-0.006511688,-0.001379013,0,
00:03.8,0.001544952,-0.00651741,-0.001384735,0,
00:03.8,0.001556396,-0.006511688,-0.001384735,0,
00:03.9,0.001556396,-0.00651741,-0.001367569,0,
00:03.9,0.001550674,-0.006523132,-0.001373291,0,
00:03.9,0.001544952,-0.006528854,-0.001373291,0,
00:03.9,0.001556396,-0.006528854,-0.001367569,0,
00:03.9,0.001544952,-0.006534576,-0.001379013,0,
00:03.9,0.001544952,-0.006534576,-0.001373291,0,
00:03.9,0.001544952,-0.006540298,-0.001356125,0,
00:03.9,0.001522064,-0.006546021,-0.001356125,0,
00:03.9,0.001556396,-0.006540298,-0.001367569,0,
00:03.9,0.001533508,-0.006546021,-0.001367569,0,
00:03.9,0.001527786,-0.006551743,-0.001356125,0,
00:03.9,0.001527786,-0.006546021,-0.001350403,0,
00:03.9,0.00153923,-0.006551743,-0.001373291,0,
00:03.9,0.001527786,-0.006568909,-0.001356125,0,
00:03.9,0.001522064,-0.006568909,-0.001350403,0,
00:03.9,0.001527786,-0.006563187,-0.001350403,0,
00:03.9,0.001527786,-0.006568909,-0.001344681,0,
00:03.9,0.001527786,-0.006574631,-0.001344681,0,
00:03.9,0.001533508,-0.006568909,-0.001350403,0,
00:03.9,0.001527786,-0.006568909,-0.001356125,0,
00:03.9,0.001527786,-0.006580353,-0.001344681,0,
00:03.9,0.001527786,-0.006591797,-0.001338959,0,
00:03.9,0.001527786,-0.006591797,-0.001338959,0,
00:03.9,0.001527786,-0.006586075,-0.001338959,0,
00:03.9,0.001522064,-0.006591797,-0.001327515,0,
00:04.0,0.001522064,-0.006603241,-0.001327515,0,
00:04.0,0.001527786,-0.006608963,-0.001338959,0,
00:04.0,0.001527786,-0.006608963,-0.001333237,0,
00:04.0,0.001522064,-0.006614685,-0.001344681,0,
00:04.0,0.001504898,-0.006626129,-0.001338959,0,
00:04.0,0.001516342,-0.006626129,-0.001333237,0,
00:04.0,0.001516342,-0.006626129,-0.001333237,0,
00:04.0,0.00151062,-0.006626129,-0.001338959,0,
00:04.0,0.001504898,-0.006637573,-0.001333237,0,
00:04.0,0.00151062,-0.006643295,-0.001333237,0,
00:04.0,0.00151062,-0.006649017,-0.001338959,0,
00:04.0,0.001504898,-0.006654739,-0.001338959,0,
00:00:04,0.001504898,-0.006654739,-0.001350403,0,
00:04.0,0.001499176,-0.006660461,-0.001350403,0,
00:04.0,0.001504898,-0.006660461,-0.001350403,0,
00:04.0,0.00151062,-0.006654739,-0.001350403,0,
00:04.0,0.001504898,-0.006660461,-0.001367569,0,
00:04.0,0.001504898,-0.006666183,-0.001350403,0,
00:04.0,0.001499176,-0.006671906,-0.001344681,0,
00:04.0,0.001499176,-0.006671906,-0.001350403,0,
00:04.0,0.001504898,-0.006671906,-0.001338959,0,
00:04.0,0.001493454,-0.006677628,-0.001344681,0,
00:04.0,0.001493454,-0.006677628,-0.001350403,0,
00:04.0,0.001493454,-0.006677628,-0.001350403,0,
00:04.0,0.001504898,-0.00668335,-0.001350403,0,
00:04.1,0.001487732,-0.006677628,-0.001356125,0,
00:04.1,0.00148201,-0.006677628,-0.001367569,0,
00:04.1,0.001493454,-0.00668335,-0.001361847,0,
00:04.1,0.001499176,-0.006689072,-0.001350403,0,
00:04.1,0.00148201,-0.006694794,-0.001350403,0,
00:04.1,0.001487732,-0.006700516,-0.001356125,0,
00:04.1,0.00148201,-0.006706238,-0.001361847,0,
00:04.1,0.001476288,-0.006706238,-0.001367569,0,
00:04.1,0.00148201,-0.006706238,-0.001367569,0,
00:04.1,0.001487732,-0.00671196,-0.001373291,0,
00:04.1,0.001476288,-0.006717682,-0.001379013,0,
00:04.1,0.001470566,-0.00671196,-0.001384735,0,
00:04.1,0.001464844,-0.006729126,-0.001384735,0,
00:04.1,0.001476288,-0.006729126,-0.001379013,0,
00:04.1,0.001476288,-0.006729126,-0.001379013,0,
00:04.1,0.001476288,-0.006729126,-0.001384735,0,
00:04.1,0.001464844,-0.006729126,-0.001396179,0,
00:04.1,0.001470566,-0.006734848,-0.001384735,0,
00:04.1,0.001470566,-0.006734848,-0.001390457,0,
00:04.1,0.001459122,-0.006729126,-0.001401901,0,
00:04.1,0.001464844,-0.006729126,-0.001407623,0,
00:04.1,0.001459122,-0.006723404,-0.001413345,0,
00:04.1,0.001470566,-0.006723404,-0.001424789,0,
00:04.1,0.001464844,-0.006729126,-0.001424789,0,
00:04.1,0.0014534,-0.006729126,-0.001419067,0,
00:04.2,0.001447678,-0.006734848,-0.001419067,0,
00:04.2,0.001459122,-0.006734848,-0.001436234,0,
00:04.2,0.001459122,-0.006729126,-0.001436234,0,
00:04.2,0.0014534,-0.006734848,-0.001436234,0,
00:04.2,0.001464844,-0.006734848,-0.001430511,0,
00:04.2,0.001470566,-0.00674057,-0.001436234,0,
00:04.2,0.001447678,-0.00674057,-0.001447678,0,
00:04.2,0.001447678,-0.006734848,-0.0014534,0,
00:04.2,0.0014534,-0.006729126,-0.001464844,0,
00:04.2,0.001447678,-0.006729126,-0.00148201,0,
00:04.2,0.001430511,-0.006734848,-0.00148201,0,
00:04.2,0.001436234,-0.00674057,-0.001459122,0,
00:04.2,0.001441956,-0.006734848,-0.001464844,0,
00:04.2,0.001441956,-0.006734848,-0.00148201,0,
00:04.2,0.001436234,-0.006734848,-0.001493454,0,
00:04.2,0.001419067,-0.006746292,-0.00148201,0,
00:04.2,0.001430511,-0.006746292,-0.001487732,0,
00:04.2,0.001436234,-0.006746292,-0.001504898,0,
00:04.2,0.001430511,-0.006734848,-0.001516342,0,
00:04.2,0.001424789,-0.00674057,-0.001504898,0,
00:04.2,0.001419067,-0.006734848,-0.001499176,0,
00:04.2,0.001419067,-0.006734848,-0.001516342,0,
00:04.2,0.001424789,-0.006734848,-0.001522064,0,
00:04.2,0.001430511,-0.006734848,-0.001527786,0,
00:04.2,0.001424789,-0.00674057,-0.001522064,0,
00:04.3,0.001407623,-0.006729126,-0.001527786,0,
00:04.3,0.001407623,-0.006729126,-0.00153923,0,
00:04.3,0.001407623,-0.006723404,-0.001550674,0,
00:04.3,0.001396179,-0.006723404,-0.001550674,0,
00:04.3,0.001390457,-0.006723404,-0.001550674,0,
00:04.3,0.001407623,-0.006717682,-0.001562119,0,
00:04.3,0.001384735,-0.006723404,-0.001573563,0,
00:04.3,0.001384735,-0.006723404,-0.001585007,0,
00:04.3,0.001390457,-0.006723404,-0.001590729,0,
00:04.3,0.001384735,-0.006723404,-0.001590729,0,
00:04.3,0.001384735,-0.006717682,-0.001585007,0,
00:04.3,0.001367569,-0.006723404,-0.001590729,0,
00:04.3,0.001367569,-0.006717682,-0.001607895,0,
00:04.3,0.001361847,-0.006717682,-0.001613617,0,
00:04.3,0.001361847,-0.00671196,-0.001607895,0,
00:04.3,0.001361847,-0.00671196,-0.001596451,0,
00:04.3,0.001379013,-0.006700516,-0.001613617,0,
00:04.3,0.001373291,-0.006706238,-0.001625061,0,
00:04.3,0.001361847,-0.006694794,-0.001630783,0,
00:04.3,0.001344681,-0.006689072,-0.001642227,0,
00:04.3,0.001361847,-0.006689072,-0.001659393,0,
00:04.3,0.001356125,-0.006689072,-0.001653671,0,
00:04.3,0.001356125,-0.00668335,-0.001670837,0,
00:04.3,0.001350403,-0.006677628,-0.001676559,0,
00:04.3,0.001350403,-0.00668335,-0.001670837,0,
00:04.4,0.001350403,-0.006671906,-0.001676559,0,
00:04.4,0.001350403,-0.006660461,-0.001688004,0,
00:04.4,0.001338959,-0.006666183,-0.001699448,0,
00:04.4,0.001338959,-0.006660461,-0.001693726,0,
00:04.4,0.001344681,-0.006654739,-0.001699448,0,
00:04.4,0.001333237,-0.006643295,-0.00170517,0,
00:04.4,0.001333237,-0.006643295,-0.001710892,0,
00:04.4,0.001327515,-0.006643295,-0.001716614,0,
00:04.4,0.001310349,-0.006637573,-0.001722336,0,
00:04.4,0.001327515,-0.006631851,-0.001728058,0,
00:04.4,0.001316071,-0.006626129,-0.00173378,0,
00:04.4,0.001316071,-0.006620407,-0.001739502,0,
00:04.4,0.001310349,-0.006620407,-0.001750946,0,
00:04.4,0.001310349,-0.006614685,-0.001756668,0,
00:04.4,0.001304626,-0.006614685,-0.001756668,0,
00:04.4,0.001304626,-0.006603241,-0.001768112,0,
00:04.4,0.001298904,-0.006597519,-0.001773834,0,
00:04.4,0.001293182,-0.006586075,-0.001785278,0,
00:04.4,0.001293182,-0.006586075,-0.001791,0,
00:04.4,0.00128746,-0.006580353,-0.001785278,0,
00:04.4,0.001281738,-0.006546021,-0.001773834,0,
00:04.4,0.001281738,-0.006523132,-0.001796722,0,
00:04.4,0.001276016,-0.006500244,-0.001813889,0,
00:04.4,0.001264572,-0.0064888,-0.001813889,0,
00:04.4,0.001276016,-0.006483078,-0.001813889,0,
00:04.5,0.001281738,-0.006477356,-0.001819611,0,
00:04.5,0.001270294,-0.00646019,-0.001819611,0,
00:04.5,0.001264572,-0.006454468,-0.001825333,0,
00:04.5,0.00125885,-0.006443024,-0.001842499,0,
00:04.5,0.001270294,-0.006437302,-0.001842499,0,
00:04.5,0.001264572,-0.006437302,-0.001836777,0,
00:04.5,0.00125885,-0.006425858,-0.001848221,0,
00:04.5,0.001247406,-0.006425858,-0.001853943,0,
00:04.5,0.001247406,-0.006420135,-0.001865387,0,
00:04.5,0.001253128,-0.006408691,-0.001871109,0,
00:04.5,0.001247406,-0.006397247,-0.001882553,0,
00:04.5,0.001235962,-0.006397247,-0.001865387,0,
00:04.5,0.00123024,-0.006402969,-0.001859665,0,
00:04.5,0.001235962,-0.006385803,-0.001876831,0,
00:04.5,0.001241684,-0.006374359,-0.001899719,0,
00:04.5,0.001224518,-0.006374359,-0.001899719,0,
00:04.5,0.001218796,-0.006374359,-0.001905441,0,
00:04.5,0.001218796,-0.006368637,-0.001905441,0,
00:04.5,0.001218796,-0.006357193,-0.001905441,0,
00:04.5,0.001218796,-0.006357193,-0.001916885,0,
00:04.5,0.001207352,-0.006357193,-0.001916885,0,
00:04.5,0.00120163,-0.006345749,-0.001916885,0,
00:04.5,0.001213074,-0.006334305,-0.001916885,0,
00:04.5,0.001195908,-0.006334305,-0.001911163,0,
00:04.5,0.001190186,-0.006317139,-0.001916885,0,
00:04.6,0.001195908,-0.006311417,-0.001934052,0,
00:04.6,0.001190186,-0.006311417,-0.001939774,0,
00:04.6,0.001184464,-0.006305695,-0.001945496,0,
00:04.6,0.001184464,-0.00629425,-0.001939774,0,
00:04.6,0.001184464,-0.006288528,-0.001945496,0,
00:04.6,0.001184464,-0.006277084,-0.001951218,0,
00:04.6,0.001173019,-0.006277084,-0.001945496,0,
00:04.6,0.001167297,-0.006277084,-0.001945496,0,
00:04.6,0.001184464,-0.006259918,-0.001951218,0,
00:04.6,0.001167297,-0.006259918,-0.00195694,0,
00:04.6,0.001161575,-0.006254196,-0.001951218,0,
00:04.6,0.001150131,-0.006242752,-0.00195694,0,
00:04.6,0.001150131,-0.006242752,-0.001968384,0,
00:04.6,0.001150131,-0.006231308,-0.00195694,0,
00:04.6,0.001144409,-0.006225586,-0.001968384,0,
00:04.6,0.001150131,-0.006214142,-0.001979828,0,
00:04.6,0.001144409,-0.00620842,-0.00198555,0,
00:04.6,0.001132965,-0.006214142,-0.001979828,0,
00:04.6,0.001138687,-0.00620842,-0.001974106,0,
00:04.6,0.001132965,-0.00620842,-0.001974106,0,
00:04.6,0.001138687,-0.006196976,-0.001979828,0,
00:04.6,0.001127243,-0.006185532,-0.001979828,0,
00:04.6,0.001127243,-0.006191254,-0.001991272,0,
00:04.6,0.001132965,-0.006185532,-0.001996994,0,
00:04.6,0.001138687,-0.006174088,-0.001979828,0,
00:04.7,0.001150131,-0.006174088,-0.001979828,0,
00:04.7,0.001144409,-0.006168365,-0.001991272,0,
00:04.7,0.001138687,-0.006168365,-0.002002716,0,
00:04.7,0.001132965,-0.006162643,-0.001996994,0,
00:04.7,0.001132965,-0.006151199,-0.002002716,0,
00:04.7,0.001132965,-0.006151199,-0.002008438,0,
00:04.7,0.001132965,-0.006139755,-0.002002716,0,
00:04.7,0.001127243,-0.006139755,-0.002008438,0,
00:04.7,0.001121521,-0.006139755,-0.002008438,0,
00:04.7,0.001127243,-0.006122589,-0.00201416,0,
00:04.7,0.001121521,-0.006122589,-0.002025604,0,
00:04.7,0.001110077,-0.006116867,-0.002019882,0,
00:04.7,0.001110077,-0.006111145,-0.002025604,0,
00:04.7,0.001115799,-0.006105423,-0.002031326,0,
00:04.7,0.001104355,-0.006105423,-0.002025604,0,
00:04.7,0.001110077,-0.006099701,-0.002019882,0,
00:04.7,0.001104355,-0.006093979,-0.002025604,0,
00:04.7,0.001115799,-0.006088257,-0.002025604,0,
00:04.7,0.001104355,-0.006082535,-0.002019882,0,
00:04.7,0.001092911,-0.006076813,-0.002019882,0,
00:04.7,0.001092911,-0.006071091,-0.002019882,0,
00:04.7,0.001098633,-0.006065369,-0.002019882,0,
00:04.7,0.001098633,-0.006065369,-0.002019882,0,
00:04.7,0.001098633,-0.006053925,-0.00204277,0,
00:04.7,0.001104355,-0.00604248,-0.002025604,0,
00:04.8,0.001104355,-0.006036758,-0.002037048,0,
00:04.8,0.001110077,-0.006025314,-0.00204277,0,
00:04.8,0.001098633,-0.006025314,-0.002031326,0,
00:04.8,0.001098633,-0.006019592,-0.002031326,0,
00:04.8,0.001110077,-0.006002426,-0.002031326,0,
00:04.8,0.001110077,-0.005996704,-0.002031326,0,
00:04.8,0.001087189,-0.005990982,-0.00204277,0,
00:04.8,0.001087189,-0.00598526,-0.002031326,0,
00:04.8,0.001092911,-0.005979538,-0.002031326,0,
00:04.8,0.001087189,-0.005979538,-0.002031326,0,
00:04.8,0.001081467,-0.005968094,-0.00204277,0,
00:04.8,0.001081467,-0.005962372,-0.002037048,0,
00:04.8,0.001081467,-0.00595665,-0.002025604,0,
00:04.8,0.001075745,-0.005950928,-0.002031326,0,
00:04.8,0.001075745,-0.005950928,-0.002031326,0,
00:04.8,0.001070023,-0.005939484,-0.00204277,0,
00:04.8,0.001052856,-0.00592804,-0.002037048,0,
00:04.8,0.001047134,-0.005916595,-0.00204277,0,
00:04.8,0.001047134,-0.005910873,-0.00204277,0,
00:04.8,0.001052856,-0.005899429,-0.002048492,0,
00:04.8,0.001052856,-0.005893707,-0.002048492,0,
00:04.8,0.001041412,-0.005899429,-0.002048492,0,
00:04.8,0.001041412,-0.005882263,-0.002048492,0,
00:04.8,0.00103569,-0.005882263,-0.002048492,0,
00:04.8,0.001029968,-0.005870819,-0.002059937,0,
00:04.9,0.001041412,-0.005865097,-0.002054214,0,
00:04.9,0.001029968,-0.005859375,-0.002048492,0,
00:04.9,0.001029968,-0.005847931,-0.00204277,0,
00:04.9,0.001029968,-0.005847931,-0.00204277,0,
00:04.9,0.001024246,-0.005842209,-0.002037048,0,
00:04.9,0.001024246,-0.005830765,-0.002037048,0,
00:04.9,0.001018524,-0.005830765,-0.002037048,0,
00:04.9,0.001012802,-0.005819321,-0.002037048,0,
00:04.9,0.00100708,-0.005813599,-0.002037048,0,
00:04.9,0.001001358,-0.005807877,-0.00201416,0,
00:04.9,0.001001358,-0.005796432,-0.002008438,0,
00:04.9,0.000995636,-0.005784988,-0.002025604,0,
00:04.9,0.000995636,-0.005784988,-0.002025604,0,
00:04.9,0.00097847,-0.005779266,-0.002025604,0,
00:04.9,0.00097847,-0.0057621,-0.00201416,0,
00:04.9,0.000972748,-0.0057621,-0.002019882,0,
00:04.9,0.000972748,-0.005756378,-0.002025604,0,
00:04.9,0.000989914,-0.005750656,-0.002025604,0,
00:04.9,0.000967026,-0.005739212,-0.002031326,0,
00:04.9,0.00097847,-0.005722046,-0.00204277,0,
00:04.9,0.000972748,-0.005716324,-0.00204277,0,
00:04.9,0.000944138,-0.005722046,-0.002019882,0,
00:04.9,0.000938416,-0.005710602,-0.002019882,0,
00:04.9,0.000961304,-0.00570488,-0.002025604,0,
00:04.9,0.000955582,-0.005699158,-0.002025604,0,
00:05.0,0.00094986,-0.005687714,-0.002025604,0,
00:05.0,0.000944138,-0.005687714,-0.002025604,0,
00:05.0,0.000944138,-0.00567627,-0.002025604,0,
00:05.0,0.000944138,-0.005659103,-0.002031326,0,
00:05.0,0.000944138,-0.005664825,-0.002008438,0,
00:05.0,0.000932693,-0.005647659,-0.002002716,0,
00:05.0,0.000921249,-0.005641937,-0.001996994,0,
00:05.0,0.000915527,-0.005636215,-0.001991272,0,
00:05.0,0.000921249,-0.005630493,-0.002008438,0,
00:05.0,0.000915527,-0.005619049,-0.002008438,0,
00:05.0,0.000921249,-0.005624771,-0.00201416,0,
00:05.0,0.000932693,-0.005619049,-0.001996994,0,
00:00:05,0.000944138,-0.005619049,-0.001996994,0,
00:05.0,0.00094986,-0.005624771,-0.001991272,0,
00:05.0,0.000955582,-0.005624771,-0.00198555,0,
00:05.0,0.000932693,-0.005619049,-0.001974106,0,
00:05.0,0.000944138,-0.005619049,-0.00198555,0,
00:05.0,0.00094986,-0.005613327,-0.001996994,0,
00:05.0,0.000955582,-0.005607605,-0.001996994,0,
00:05.0,0.000967026,-0.005601883,-0.00198555,0,
00:05.0,0.000961304,-0.005601883,-0.001974106,0,
00:05.0,0.000961304,-0.005590439,-0.001974106,0,
00:05.0,0.000972748,-0.005584717,-0.001974106,0,
00:05.0,0.000967026,-0.005584717,-0.001979828,0,
00:05.0,0.00097847,-0.005578995,-0.001974106,0,
00:05.1,0.000972748,-0.005578995,-0.001962662,0,
00:05.1,0.00094986,-0.005578995,-0.001968384,0,
00:05.1,0.000961304,-0.005573273,-0.001974106,0,
00:05.1,0.000961304,-0.005578995,-0.001979828,0,
00:05.1,0.000944138,-0.005573273,-0.001962662,0,
00:05.1,0.000955582,-0.005550385,-0.001962662,0,
00:05.1,0.000955582,-0.005550385,-0.00195694,0,
00:05.1,0.00094986,-0.005550385,-0.00195694,0,
00:05.1,0.00094986,-0.005544662,-0.001939774,0,
00:05.1,0.000955582,-0.00553894,-0.001934052,0,
00:05.1,0.000955582,-0.00553894,-0.001951218,0,
00:05.1,0.000944138,-0.005533218,-0.001968384,0,
00:05.1,0.000944138,-0.005533218,-0.001962662,0,
00:05.1,0.00094986,-0.005521774,-0.001934052,0,
00:05.1,0.000944138,-0.005521774,-0.001939774,0,
00:05.1,0.00094986,-0.005516052,-0.001934052,0,
00:05.1,0.000955582,-0.005516052,-0.001922607,0,
00:05.1,0.00094986,-0.00551033,-0.001916885,0,
00:05.1,0.000961304,-0.00551033,-0.001916885,0,
00:05.1,0.000961304,-0.005498886,-0.001916885,0,
00:05.1,0.000944138,-0.005498886,-0.001916885,0,
00:05.1,0.000955582,-0.005498886,-0.001916885,0,
00:05.1,0.000944138,-0.005493164,-0.001928329,0,
00:05.1,0.000955582,-0.005487442,-0.001922607,0,
00:05.1,0.000955582,-0.005487442,-0.001922607,0,
00:05.2,0.00094986,-0.005487442,-0.001922607,0,
00:05.2,0.000944138,-0.005487442,-0.001922607,0,
00:05.2,0.00094986,-0.005475998,-0.001916885,0,
00:05.2,0.00094986,-0.005470276,-0.001911163,0,
00:05.2,0.00094986,-0.005475998,-0.001911163,0,
00:05.2,0.000944138,-0.005475998,-0.001899719,0,
00:05.2,0.000938416,-0.005464554,-0.001905441,0,
00:05.2,0.000932693,-0.005464554,-0.001899719,0,
00:05.2,0.000938416,-0.00545311,-0.001888275,0,
00:05.2,0.000967026,-0.005447388,-0.001888275,0,
00:05.2,0.000955582,-0.005441666,-0.001893997,0,
00:05.2,0.000944138,-0.005441666,-0.001888275,0,
00:05.2,0.000955582,-0.005430222,-0.001893997,0,
00:05.2,0.000955582,-0.0054245,-0.001899719,0,
00:05.2,0.00094986,-0.005430222,-0.001882553,0,
00:05.2,0.000955582,-0.0054245,-0.001853943,0,
00:05.2,0.000961304,-0.005413055,-0.001865387,0,
00:05.2,0.000967026,-0.005418777,-0.001859665,0,
00:05.2,0.00094986,-0.005418777,-0.001865387,0,
00:05.2,0.000961304,-0.005407333,-0.001871109,0,
00:05.2,0.000955582,-0.005407333,-0.001859665,0,
00:05.2,0.000961304,-0.005401611,-0.001853943,0,
00:05.2,0.000972748,-0.005390167,-0.001871109,0,
00:05.2,0.000961304,-0.005401611,-0.001871109,0,
00:05.2,0.000955582,-0.005401611,-0.001848221,0,
00:05.3,0.000955582,-0.005395889,-0.001853943,0,
00:05.3,0.000967026,-0.005395889,-0.001859665,0,
00:05.3,0.000961304,-0.005390167,-0.001871109,0,
00:05.3,0.00094986,-0.005390167,-0.001853943,0,
00:05.3,0.000967026,-0.005384445,-0.001848221,0,
00:05.3,0.00097847,-0.005378723,-0.001848221,0,
00:05.3,0.000961304,-0.005384445,-0.001842499,0,
00:05.3,0.000967026,-0.005378723,-0.001842499,0,
00:05.3,0.000972748,-0.005367279,-0.001836777,0,
00:05.3,0.00097847,-0.005367279,-0.001836777,0,
00:05.3,0.000972748,-0.005361557,-0.001831055,0,
00:05.3,0.000972748,-0.005367279,-0.001842499,0,
00:05.3,0.000967026,-0.005361557,-0.001842499,0,
00:05.3,0.000967026,-0.005350113,-0.001842499,0,
00:05.3,0.00094986,-0.005350113,-0.001825333,0,
00:05.3,0.000967026,-0.005350113,-0.001831055,0,
00:05.3,0.00097847,-0.005355835,-0.001842499,0,
00:05.3,0.00097847,-0.005350113,-0.001836777,0,
00:05.3,0.000972748,-0.005355835,-0.001836777,0,
00:05.3,0.000967026,-0.005361557,-0.001836777,0,
00:05.3,0.000972748,-0.005355835,-0.001831055,0,
00:05.3,0.000955582,-0.005355835,-0.001825333,0,
00:05.3,0.000984192,-0.005350113,-0.001825333,0,
00:05.3,0.000984192,-0.005350113,-0.001825333,0,
00:05.3,0.00097847,-0.005344391,-0.001813889,0,
00:05.4,0.000972748,-0.005338669,-0.001813889,0,
00:05.4,0.000972748,-0.005338669,-0.001813889,0,
00:05.4,0.00097847,-0.005332947,-0.001825333,0,
00:05.4,0.000984192,-0.005332947,-0.001825333,0,
00:05.4,0.000984192,-0.005332947,-0.001813889,0,
00:05.4,0.00097847,-0.005332947,-0.001813889,0,
00:05.4,0.000984192,-0.005327225,-0.001813889,0,
00:05.4,0.00097847,-0.005332947,-0.001802444,0,
00:05.4,0.000972748,-0.005332947,-0.001813889,0,
00:05.4,0.000984192,-0.005332947,-0.001813889,0,
00:05.4,0.000995636,-0.005327225,-0.001808167,0,
00:05.4,0.000984192,-0.005332947,-0.001808167,0,
00:05.4,0.000984192,-0.005332947,-0.001796722,0,
00:05.4,0.00097847,-0.005332947,-0.001808167,0,
00:05.4,0.000972748,-0.005327225,-0.001802444,0,
00:05.4,0.000972748,-0.005315781,-0.001808167,0,
00:05.4,0.000984192,-0.005321503,-0.001802444,0,
00:05.4,0.000967026,-0.005321503,-0.001791,0,
00:05.4,0.000984192,-0.005321503,-0.001779556,0,
00:05.4,0.000989914,-0.005310059,-0.001785278,0,
00:05.4,0.000984192,-0.005310059,-0.001779556,0,
00:05.4,0.000972748,-0.005315781,-0.001779556,0,
00:05.4,0.00097847,-0.005315781,-0.001791,0,
00:05.4,0.000984192,-0.005315781,-0.001779556,0,
00:05.4,0.000984192,-0.005315781,-0.001779556,0,
00:05.5,0.00097847,-0.005315781,-0.001768112,0,
00:05.5,0.00097847,-0.005321503,-0.001773834,0,
00:05.5,0.000989914,-0.005315781,-0.001773834,0,
00:05.5,0.000984192,-0.005315781,-0.001785278,0,
00:05.5,0.000995636,-0.005321503,-0.001785278,0,
00:05.5,0.000995636,-0.005321503,-0.001785278,0,
00:05.5,0.000995636,-0.005327225,-0.001779556,0,
00:05.5,0.000989914,-0.005327225,-0.001779556,0,
00:05.5,0.000989914,-0.005327225,-0.001773834,0,
00:05.5,0.000989914,-0.005327225,-0.001768112,0,
00:05.5,0.000995636,-0.005321503,-0.001768112,0,
00:05.5,0.00100708,-0.005315781,-0.001768112,0,
00:05.5,0.00100708,-0.005332947,-0.001768112,0,
00:05.5,0.000984192,-0.005332947,-0.001756668,0,
00:05.5,0.001012802,-0.005321503,-0.00176239,0,
00:05.5,0.000995636,-0.005327225,-0.001779556,0,
00:05.5,0.000995636,-0.005327225,-0.001779556,0,
00:05.5,0.000995636,-0.005321503,-0.001773834,0,
00:05.5,0.000995636,-0.005321503,-0.001768112,0,
00:05.5,0.000984192,-0.005321503,-0.001756668,0,
00:05.5,0.000995636,-0.005321503,-0.00176239,0,
00:05.5,0.00100708,-0.005315781,-0.00176239,0,
00:05.5,0.001001358,-0.005315781,-0.001745224,0,
00:05.5,0.000995636,-0.005310059,-0.001756668,0,
00:05.5,0.000995636,-0.005321503,-0.001739502,0,
00:05.6,0.00100708,-0.005321503,-0.00173378,0,
00:05.6,0.001012802,-0.005315781,-0.001739502,0,
00:05.6,0.00100708,-0.005327225,-0.001739502,0,
00:05.6,0.001012802,-0.005332947,-0.001716614,0,
00:05.6,0.00100708,-0.005332947,-0.001728058,0,
00:05.6,0.001012802,-0.005338669,-0.001739502,0,
00:05.6,0.001024246,-0.005338669,-0.001728058,0,
00:05.6,0.001012802,-0.005338669,-0.001728058,0,
00:05.6,0.001018524,-0.005332947,-0.001716614,0,
00:05.6,0.001012802,-0.005327225,-0.001728058,0,
00:05.6,0.001012802,-0.005321503,-0.00173378,0,
00:05.6,0.00100708,-0.005327225,-0.001728058,0,
00:05.6,0.001018524,-0.005332947,-0.001728058,0,
00:05.6,0.001018524,-0.005338669,-0.001722336,0,
00:05.6,0.001024246,-0.005338669,-0.00173378,0,
00:05.6,0.00103569,-0.005338669,-0.001739502,0,
00:05.6,0.001018524,-0.005350113,-0.00170517,0,
00:05.6,0.001012802,-0.005350113,-0.001688004,0,
00:05.6,0.001012802,-0.005350113,-0.001693726,0,
00:05.6,0.00100708,-0.005350113,-0.001699448,0,
00:05.6,0.001018524,-0.005350113,-0.001716614,0,
00:05.6,0.00103569,-0.005355835,-0.00170517,0,
00:05.6,0.001029968,-0.005355835,-0.001699448,0,
00:05.6,0.00103569,-0.005355835,-0.001699448,0,
00:05.6,0.001029968,-0.005355835,-0.001699448,0,
00:05.7,0.001029968,-0.005355835,-0.00170517,0,
00:05.7,0.00103569,-0.005350113,-0.00170517,0,
00:05.7,0.001029968,-0.005361557,-0.001693726,0,
00:05.7,0.001041412,-0.005344391,-0.001688004,0,
00:05.7,0.001058578,-0.005344391,-0.001688004,0,
00:05.7,0.00103569,-0.005355835,-0.001688004,0,
00:05.7,0.001029968,-0.005338669,-0.001682281,0,
00:05.7,0.001047134,-0.005338669,-0.001670837,0,
00:05.7,0.001047134,-0.005350113,-0.001676559,0,
00:05.7,0.001047134,-0.005350113,-0.001688004,0,
00:05.7,0.001041412,-0.005355835,-0.001682281,0,
00:05.7,0.001041412,-0.005355835,-0.001665115,0,
00:05.7,0.001047134,-0.005350113,-0.001665115,0,
00:05.7,0.001058578,-0.005344391,-0.001665115,0,
00:05.7,0.001058578,-0.005344391,-0.001665115,0,
00:05.7,0.001041412,-0.005355835,-0.001659393,0,
00:05.7,0.001052856,-0.005350113,-0.001659393,0,
00:05.7,0.001058578,-0.005350113,-0.001653671,0,
00:05.7,0.001058578,-0.005355835,-0.001653671,0,
00:05.7,0.001047134,-0.005350113,-0.001653671,0,
00:05.7,0.001064301,-0.005355835,-0.001647949,0,
00:05.7,0.001064301,-0.005355835,-0.001653671,0,
00:05.7,0.001058578,-0.005355835,-0.001653671,0,
00:05.7,0.001064301,-0.005361557,-0.001653671,0,
00:05.7,0.001070023,-0.005361557,-0.001647949,0,
00:05.8,0.001081467,-0.005367279,-0.001636505,0,
00:05.8,0.001087189,-0.005373001,-0.001630783,0,
00:05.8,0.001075745,-0.005373001,-0.001636505,0,
00:05.8,0.001075745,-0.005378723,-0.001630783,0,
00:05.8,0.001070023,-0.005367279,-0.001636505,0,
00:05.8,0.001081467,-0.005367279,-0.001642227,0,
00:05.8,0.001087189,-0.005373001,-0.001636505,0,
00:05.8,0.001087189,-0.005373001,-0.001630783,0,
00:05.8,0.001092911,-0.005378723,-0.001619339,0,
00:05.8,0.001087189,-0.005378723,-0.001613617,0,
00:05.8,0.001081467,-0.005373001,-0.001613617,0,
00:05.8,0.001070023,-0.005384445,-0.001613617,0,
00:05.8,0.001081467,-0.005384445,-0.001607895,0,
00:05.8,0.001081467,-0.005384445,-0.001596451,0,
00:05.8,0.001092911,-0.005384445,-0.001602173,0,
00:05.8,0.001092911,-0.005390167,-0.001602173,0,
00:05.8,0.001092911,-0.005390167,-0.001607895,0,
00:05.8,0.001081467,-0.005395889,-0.001613617,0,
00:05.8,0.001092911,-0.005395889,-0.001590729,0,
00:05.8,0.001092911,-0.005401611,-0.001590729,0,
00:05.8,0.001098633,-0.005401611,-0.001579285,0,
00:05.8,0.001098633,-0.005407333,-0.001579285,0,
00:05.8,0.001075745,-0.005401611,-0.001573563,0,
00:05.8,0.001087189,-0.005395889,-0.001579285,0,
00:05.8,0.001092911,-0.005390167,-0.001585007,0,
00:05.9,0.001092911,-0.005390167,-0.001567841,0,
00:05.9,0.001092911,-0.005401611,-0.001562119,0,
00:05.9,0.001092911,-0.005401611,-0.001562119,0,
00:05.9,0.001098633,-0.005401611,-0.001556396,0,
00:05.9,0.001104355,-0.005407333,-0.001544952,0,
00:05.9,0.001098633,-0.005413055,-0.001550674,0,
00:05.9,0.001092911,-0.005418777,-0.001544952,0,
00:05.9,0.001098633,-0.005413055,-0.001550674,0,
00:05.9,0.001104355,-0.005418777,-0.001544952,0,
00:05.9,0.001104355,-0.005407333,-0.001544952,0,
00:05.9,0.001121521,-0.0054245,-0.001544952,0,
00:05.9,0.001127243,-0.0054245,-0.001544952,0,
00:05.9,0.001115799,-0.005435944,-0.001533508,0,
00:05.9,0.001110077,-0.005447388,-0.001527786,0,
00:05.9,0.001092911,-0.005441666,-0.001527786,0,
00:05.9,0.001115799,-0.0054245,-0.001527786,0,
00:05.9,0.001127243,-0.005435944,-0.001544952,0,
00:05.9,0.001121521,-0.005430222,-0.001527786,0,
00:05.9,0.001121521,-0.005430222,-0.001527786,0,
00:05.9,0.001127243,-0.005435944,-0.00151062,0,
00:05.9,0.001138687,-0.005430222,-0.001516342,0,
00:05.9,0.001138687,-0.0054245,-0.001527786,0,
00:05.9,0.001144409,-0.005430222,-0.001522064,0,
00:05.9,0.001138687,-0.005435944,-0.001504898,0,
00:05.9,0.001150131,-0.005430222,-0.001504898,0,
00:06.0,0.001138687,-0.005430222,-0.001504898,0,
00:06.0,0.001150131,-0.005430222,-0.001516342,0,
00:06.0,0.001144409,-0.005441666,-0.001504898,0,
00:06.0,0.001127243,-0.005447388,-0.001493454,0,
00:06.0,0.001132965,-0.005447388,-0.001493454,0,
00:06.0,0.001150131,-0.005441666,-0.001499176,0,
00:06.0,0.001150131,-0.005447388,-0.001487732,0,
00:06.0,0.001150131,-0.005447388,-0.001487732,0,
00:06.0,0.001155853,-0.005447388,-0.00148201,0,
00:06.0,0.001167297,-0.005447388,-0.001470566,0,
00:06.0,0.001161575,-0.00545311,-0.001459122,0,
00:06.0,0.001167297,-0.00545311,-0.001459122,0,
00:00:06,0.001173019,-0.00545311,-0.001459122,0,
00:06.0,0.001161575,-0.005464554,-0.001459122,0,
00:06.0,0.001167297,-0.005464554,-0.0014534,0,
00:06.0,0.001184464,-0.005464554,-0.001430511,0,
00:06.0,0.001155853,-0.005458832,-0.001436234,0,
00:06.0,0.001173019,-0.005458832,-0.001447678,0,
00:06.0,0.001190186,-0.005464554,-0.001441956,0,
00:06.0,0.001184464,-0.005458832,-0.001436234,0,
00:06.0,0.001184464,-0.005470276,-0.001430511,0,
00:06.0,0.001184464,-0.005470276,-0.001430511,0,
00:06.0,0.001178741,-0.005475998,-0.001424789,0,
00:06.0,0.001178741,-0.00548172,-0.001413345,0,
00:06.0,0.001190186,-0.005475998,-0.001413345,0,
00:06.1,0.001190186,-0.005475998,-0.001419067,0,
00:06.1,0.001190186,-0.005487442,-0.001407623,0,
00:06.1,0.001190186,-0.005493164,-0.001401901,0,
00:06.1,0.001195908,-0.005487442,-0.001413345,0,
00:06.1,0.001195908,-0.005493164,-0.001401901,0,
00:06.1,0.001190186,-0.005493164,-0.001390457,0,
00:06.1,0.001207352,-0.005487442,-0.001401901,0,
00:06.1,0.001218796,-0.00548172,-0.001401901,0,
00:06.1,0.001218796,-0.005493164,-0.001379013,0,
00:06.1,0.001207352,-0.005493164,-0.001373291,0,
00:06.1,0.001218796,-0.005493164,-0.001367569,0,
00:06.1,0.001224518,-0.005498886,-0.001373291,0,
00:06.1,0.001218796,-0.005498886,-0.001367569,0,
00:06.1,0.001213074,-0.005504608,-0.001344681,0,
00:06.1,0.001213074,-0.00551033,-0.001338959,0,
00:06.1,0.001241684,-0.00551033,-0.001333237,0,
00:06.1,0.001235962,-0.005498886,-0.001344681,0,
00:06.1,0.001224518,-0.005487442,-0.001344681,0,
00:06.1,0.001235962,-0.00548172,-0.001344681,0,
00:06.1,0.001224518,-0.00548172,-0.001327515,0,
00:06.1,0.00123024,-0.00548172,-0.001321793,0,
00:06.1,0.001241684,-0.005487442,-0.001321793,0,
00:06.1,0.001241684,-0.00548172,-0.001310349,0,
00:06.1,0.001247406,-0.00548172,-0.001304626,0,
00:06.1,0.001241684,-0.00548172,-0.001304626,0,
00:06.2,0.001253128,-0.00548172,-0.001293182,0,
00:06.2,0.00125885,-0.005475998,-0.001293182,0,
00:06.2,0.001264572,-0.005475998,-0.001304626,0,
00:06.2,0.001264572,-0.005475998,-0.001304626,0,
00:06.2,0.001253128,-0.00548172,-0.00128746,0,
00:06.2,0.00125885,-0.00548172,-0.001281738,0,
00:06.2,0.001264572,-0.005487442,-0.001276016,0,
00:06.2,0.001270294,-0.005487442,-0.00128746,0,
00:06.2,0.001270294,-0.005487442,-0.001293182,0,
00:06.2,0.00125885,-0.005504608,-0.00125885,0,
00:06.2,0.001264572,-0.00551033,-0.001247406,0,
00:06.2,0.001276016,-0.005504608,-0.001253128,0,
00:06.2,0.001281738,-0.005504608,-0.00125885,0,
00:06.2,0.00128746,-0.005504608,-0.001247406,0,
00:06.2,0.001276016,-0.005516052,-0.001235962,0,
00:06.2,0.00128746,-0.005516052,-0.001247406,0,
00:06.2,0.00128746,-0.005516052,-0.001253128,0,
00:06.2,0.00128746,-0.005521774,-0.001247406,0,
00:06.2,0.001293182,-0.005521774,-0.001235962,0,
00:06.2,0.001293182,-0.005527496,-0.00123024,0,
00:06.2,0.001293182,-0.005521774,-0.001235962,0,
00:06.2,0.00128746,-0.005533218,-0.00123024,0,
00:06.2,0.001298904,-0.005533218,-0.001213074,0,
00:06.2,0.001310349,-0.005533218,-0.00120163,0,
00:06.2,0.001304626,-0.005533218,-0.001207352,0,
00:06.3,0.001298904,-0.005533218,-0.00120163,0,
00:06.3,0.001298904,-0.005527496,-0.00120163,0,
00:06.3,0.001298904,-0.00553894,-0.001195908,0,
00:06.3,0.001298904,-0.00553894,-0.001190186,0,
00:06.3,0.001310349,-0.005533218,-0.001184464,0,
00:06.3,0.001304626,-0.005544662,-0.001184464,0,
00:06.3,0.00128746,-0.005556107,-0.001167297,0,
00:06.3,0.001293182,-0.005544662,-0.001173019,0,
00:06.3,0.001321793,-0.005544662,-0.001167297,0,
00:06.3,0.001316071,-0.005556107,-0.001155853,0,
00:06.3,0.001298904,-0.005556107,-0.001155853,0,
00:06.3,0.001298904,-0.005567551,-0.001150131,0,
00:06.3,0.001316071,-0.005573273,-0.001144409,0,
00:06.3,0.001304626,-0.005573273,-0.001138687,0,
00:06.3,0.001310349,-0.005567551,-0.001144409,0,
00:06.3,0.001316071,-0.005567551,-0.001127243,0,
00:06.3,0.001316071,-0.005573273,-0.001132965,0,
00:06.3,0.001321793,-0.005573273,-0.001138687,0,
00:06.3,0.001321793,-0.005584717,-0.001132965,0,
00:06.3,0.001316071,-0.005578995,-0.001132965,0,
00:06.3,0.001316071,-0.005584717,-0.001115799,0,
00:06.3,0.001321793,-0.005590439,-0.001110077,0,
00:06.3,0.001327515,-0.005584717,-0.001115799,0,
00:06.3,0.001321793,-0.005590439,-0.001110077,0,
00:06.3,0.001321793,-0.005590439,-0.001092911,0,
00:06.4,0.001321793,-0.005584717,-0.001081467,0,
00:06.4,0.001333237,-0.005584717,-0.001092911,0,
00:06.4,0.001333237,-0.005584717,-0.001092911,0,
00:06.4,0.001338959,-0.005578995,-0.001098633,0,
00:06.4,0.001333237,-0.005596161,-0.001070023,0,
00:06.4,0.001338959,-0.005601883,-0.001064301,0,
00:06.4,0.001338959,-0.005607605,-0.001075745,0,
00:06.4,0.001338959,-0.005607605,-0.001070023,0,
00:06.4,0.001338959,-0.005613327,-0.001058578,0,
00:06.4,0.001350403,-0.005624771,-0.001064301,0,
00:06.4,0.001350403,-0.005630493,-0.001047134,0,
00:06.4,0.001361847,-0.005624771,-0.001064301,0,
00:06.4,0.001361847,-0.005624771,-0.001058578,0,
00:06.4,0.001361847,-0.005624771,-0.00103569,0,
00:06.4,0.001361847,-0.005619049,-0.00103569,0,
00:06.4,0.001367569,-0.005619049,-0.001041412,0,
00:06.4,0.001367569,-0.005630493,-0.001024246,0,
00:06.4,0.001367569,-0.005630493,-0.001001358,0,
00:06.4,0.001373291,-0.005630493,-0.001018524,0,
00:06.4,0.001367569,-0.005630493,-0.00100708,0,
00:06.4,0.001373291,-0.005630493,-0.00100708,0,
00:06.4,0.001373291,-0.005636215,-0.000989914,0,
00:06.4,0.001384735,-0.005630493,-0.001001358,0,
00:06.4,0.001379013,-0.005636215,-0.000995636,0,
00:06.4,0.001379013,-0.005641937,-0.00097847,0,
00:06.5,0.001373291,-0.005641937,-0.000972748,0,
00:06.5,0.001379013,-0.005647659,-0.000967026,0,
00:06.5,0.001390457,-0.005636215,-0.000967026,0,
00:06.5,0.001390457,-0.005641937,-0.000961304,0,
00:06.5,0.001367569,-0.005647659,-0.000938416,0,
00:06.5,0.001379013,-0.005641937,-0.00094986,0,
00:06.5,0.001384735,-0.005647659,-0.000932693,0,
00:06.5,0.001379013,-0.005653381,-0.000926971,0,
00:06.5,0.001373291,-0.005647659,-0.000921249,0,
00:06.5,0.001379013,-0.005659103,-0.000926971,0,
00:06.5,0.001379013,-0.005670547,-0.000909805,0,
00:06.5,0.001384735,-0.005670547,-0.000909805,0,
00:06.5,0.001384735,-0.00567627,-0.000904083,0,
00:06.5,0.001384735,-0.005681992,-0.000892639,0,
00:06.5,0.001384735,-0.005681992,-0.000886917,0,
00:06.5,0.001390457,-0.00567627,-0.000886917,0,
00:06.5,0.001390457,-0.00567627,-0.000892639,0,
00:06.5,0.001384735,-0.005681992,-0.000886917,0,
00:06.5,0.001384735,-0.005687714,-0.000858307,0,
00:06.5,0.001390457,-0.005693436,-0.000852585,0,
00:06.5,0.001396179,-0.005687714,-0.000846863,0,
00:06.5,0.001401901,-0.005687714,-0.000846863,0,
00:06.5,0.001390457,-0.005699158,-0.000846863,0,
00:06.5,0.001401901,-0.005699158,-0.000835419,0,
00:06.5,0.001401901,-0.005699158,-0.000829697,0,
00:06.6,0.001390457,-0.00570488,-0.000823975,0,
00:06.6,0.001407623,-0.00570488,-0.000818253,0,
00:06.6,0.001401901,-0.005710602,-0.000823975,0,
00:06.6,0.001407623,-0.00570488,-0.000812531,0,
00:06.6,0.001407623,-0.005710602,-0.000789642,0,
00:06.6,0.001413345,-0.005722046,-0.000789642,0,
00:06.6,0.001419067,-0.00570488,-0.000812531,0,
00:06.6,0.001419067,-0.005727768,-0.00078392,0,
00:06.6,0.001407623,-0.00573349,-0.000766754,0,
00:06.6,0.001419067,-0.00573349,-0.000766754,0,
00:06.6,0.001424789,-0.005739212,-0.000778198,0,
00:06.6,0.001424789,-0.005739212,-0.000772476,0,
00:06.6,0.001419067,-0.005744934,-0.000761032,0,
00:06.6,0.001419067,-0.005744934,-0.000761032,0,
00:06.6,0.001424789,-0.005750656,-0.00075531,0,
00:06.6,0.001424789,-0.005750656,-0.000749588,0,
00:06.6,0.001424789,-0.005756378,-0.000749588,0,
00:06.6,0.001436234,-0.005756378,-0.000749588,0,
00:06.6,0.001436234,-0.0057621,-0.000738144,0,
00:06.6,0.001430511,-0.0057621,-0.0007267,0,
00:06.6,0.001430511,-0.0057621,-0.000720978,0,
00:06.6,0.001436234,-0.005773544,-0.000715256,0,
00:06.6,0.001441956,-0.005767822,-0.000709534,0,
00:06.6,0.001447678,-0.005773544,-0.000709534,0,
00:06.6,0.001441956,-0.005773544,-0.000703812,0,
00:06.7,0.001447678,-0.005773544,-0.00069809,0,
00:06.7,0.001441956,-0.005767822,-0.000703812,0,
00:06.7,0.001447678,-0.005767822,-0.000709534,0,
00:06.7,0.001459122,-0.005773544,-0.000709534,0,
00:06.7,0.0014534,-0.005779266,-0.000680923,0,
00:06.7,0.001447678,-0.005784988,-0.000675201,0,
00:06.7,0.0014534,-0.00579071,-0.000669479,0,
00:06.7,0.001459122,-0.00579071,-0.000652313,0,
00:06.7,0.001459122,-0.005796432,-0.000658035,0,
00:06.7,0.0014534,-0.005796432,-0.000658035,0,
00:06.7,0.001459122,-0.005802155,-0.000658035,0,
00:06.7,0.001464844,-0.005802155,-0.000646591,0,
00:06.7,0.001470566,-0.005802155,-0.000652313,0,
00:06.7,0.001464844,-0.005807877,-0.000646591,0,
00:06.7,0.001464844,-0.005796432,-0.000629425,0,
00:06.7,0.00148201,-0.005802155,-0.000629425,0,
00:06.7,0.001470566,-0.005807877,-0.000623703,0,
00:06.7,0.001464844,-0.005807877,-0.000623703,0,
00:06.7,0.001470566,-0.005819321,-0.000612259,0,
00:06.7,0.001470566,-0.005813599,-0.000612259,0,
00:06.7,0.001476288,-0.005813599,-0.000606537,0,
00:06.7,0.001487732,-0.005813599,-0.000600815,0,
00:06.7,0.001476288,-0.005819321,-0.000600815,0,
00:06.7,0.001476288,-0.005825043,-0.000595093,0,
00:06.7,0.001470566,-0.005825043,-0.000589371,0,
00:06.8,0.00148201,-0.005830765,-0.000577927,0,
00:06.8,0.001487732,-0.005836487,-0.000577927,0,
00:06.8,0.001487732,-0.005847931,-0.000577927,0,
00:06.8,0.001487732,-0.005853653,-0.00056076,0,
00:06.8,0.001493454,-0.005853653,-0.000549316,0,
00:06.8,0.001470566,-0.005865097,-0.000555038,0,
00:06.8,0.001487732,-0.005865097,-0.000555038,0,
00:06.8,0.001499176,-0.005870819,-0.000549316,0,
00:06.8,0.001487732,-0.005876541,-0.000537872,0,
00:06.8,0.001493454,-0.005870819,-0.000543594,0,
00:06.8,0.001493454,-0.005870819,-0.000537872,0,
00:06.8,0.001499176,-0.005882263,-0.000526428,0,
00:06.8,0.001499176,-0.005882263,-0.000509262,0,
00:06.8,0.001493454,-0.005887985,-0.00050354,0,
00:06.8,0.001499176,-0.005893707,-0.00050354,0,
00:06.8,0.001499176,-0.005893707,-0.000497818,0,
00:06.8,0.001499176,-0.005893707,-0.00050354,0,
00:06.8,0.001504898,-0.005893707,-0.000497818,0,
00:06.8,0.001504898,-0.005899429,-0.000497818,0,
00:06.8,0.00151062,-0.005910873,-0.000497818,0,
00:06.8,0.00151062,-0.005916595,-0.000486374,0,
00:06.8,0.00151062,-0.005916595,-0.000492096,0,
00:06.8,0.00151062,-0.005922318,-0.000486374,0,
00:06.8,0.00151062,-0.00592804,-0.000486374,0,
00:06.8,0.001516342,-0.00592804,-0.000480652,0,
00:06.9,0.001527786,-0.00592804,-0.000463486,0,
00:06.9,0.001516342,-0.005933762,-0.000469208,0,
00:06.9,0.001516342,-0.005939484,-0.000463486,0,
00:06.9,0.00153923,-0.005939484,-0.000463486,0,
00:06.9,0.001533508,-0.005945206,-0.000452042,0,
00:06.9,0.001522064,-0.005939484,-0.000452042,0,
00:06.9,0.001516342,-0.005939484,-0.000457764,0,
00:06.9,0.001527786,-0.005950928,-0.000434875,0,
00:06.9,0.001522064,-0.005962372,-0.000434875,0,
00:06.9,0.001522064,-0.005962372,-0.000434875,0,
00:06.9,0.001533508,-0.005962372,-0.000423431,0,
00:06.9,0.00153923,-0.005962372,-0.000423431,0,
00:06.9,0.001533508,-0.005968094,-0.000423431,0,
00:06.9,0.001527786,-0.005973816,-0.000417709,0,
00:06.9,0.001533508,-0.005973816,-0.000411987,0,
00:06.9,0.001544952,-0.005973816,-0.000406265,0,
00:06.9,0.001550674,-0.005973816,-0.000411987,0,
00:06.9,0.001562119,-0.005973816,-0.000400543,0,
00:06.9,0.001556396,-0.005979538,-0.000389099,0,
00:06.9,0.001544952,-0.00598526,-0.000389099,0,
00:06.9,0.001562119,-0.005979538,-0.000383377,0,
00:06.9,0.001556396,-0.005979538,-0.000383377,0,
00:06.9,0.001562119,-0.00598526,-0.000371933,0,
00:06.9,0.001567841,-0.005990982,-0.000371933,0,
00:06.9,0.001556396,-0.00598526,-0.000371933,0,
00:07.0,0.001562119,-0.005990982,-0.000360489,0,
00:07.0,0.001567841,-0.005990982,-0.000371933,0,
00:07.0,0.001562119,-0.006002426,-0.000360489,0,
00:07.0,0.001556396,-0.006002426,-0.000343323,0,
00:07.0,0.001567841,-0.006008148,-0.000343323,0,
00:07.0,0.001562119,-0.006008148,-0.000337601,0,
00:07.0,0.001567841,-0.006002426,-0.000337601,0,
00:07.0,0.001567841,-0.00601387,-0.000337601,0,
00:07.0,0.001573563,-0.00601387,-0.000320435,0,
00:07.0,0.001573563,-0.006008148,-0.000320435,0,
00:07.0,0.001562119,-0.006025314,-0.000320435,0,
00:07.0,0.001556396,-0.006025314,-0.000314713,0,
00:00:07,0.001556396,-0.006025314,-0.000314713,0,
00:07.0,0.001567841,-0.006031036,-0.00030899,0,
00:07.0,0.001573563,-0.006025314,-0.000303268,0,
00:07.0,0.001573563,-0.006025314,-0.000297546,0,
00:07.0,0.001573563,-0.006031036,-0.000291824,0,
00:07.0,0.001579285,-0.006036758,-0.000286102,0,
00:07.0,0.001562119,-0.006031036,-0.000291824,0,
00:07.0,0.001573563,-0.006031036,-0.000286102,0,
00:07.0,0.001573563,-0.006025314,-0.00028038,0,
00:07.0,0.001573563,-0.006031036,-0.000286102,0,
00:07.0,0.001562119,-0.006036758,-0.000286102,0,
00:07.0,0.001573563,-0.00604248,-0.000297546,0,
00:07.0,0.001573563,-0.006053925,-0.000291824,0,
00:07.1,0.001573563,-0.006065369,-0.00025177,0,
00:07.1,0.001573563,-0.006071091,-0.000257492,0,
00:07.1,0.001579285,-0.006076813,-0.000257492,0,
00:07.1,0.001579285,-0.006076813,-0.000257492,0,
00:07.1,0.001579285,-0.006076813,-0.000257492,0,
00:07.1,0.001556396,-0.006093979,-0.000228882,0,
00:07.1,0.001579285,-0.006099701,-0.000228882,0,
00:07.1,0.001590729,-0.006105423,-0.000234604,0,
00:07.1,0.001579285,-0.006116867,-0.000228882,0,
00:07.1,0.001579285,-0.006122589,-0.000217438,0,
00:07.1,0.001585007,-0.006128311,-0.00022316,0,
00:07.1,0.001579285,-0.006151199,-0.00022316,0,
00:07.1,0.001579285,-0.006162643,-0.000205994,0,
00:07.1,0.001579285,-0.006168365,-0.000200272,0,
00:07.1,0.001585007,-0.006191254,-0.000188828,0,
00:07.1,0.001585007,-0.006202698,-0.000188828,0,
00:07.1,0.001579285,-0.006196976,-0.000200272,0,
00:07.1,0.001579285,-0.006202698,-0.00019455,0,
00:07.1,0.001579285,-0.006214142,-0.00019455,0,
00:07.1,0.001579285,-0.006219864,-0.00019455,0,
00:07.1,0.001585007,-0.006219864,-0.000177383,0,
00:07.1,0.001585007,-0.006219864,-0.000165939,0,
00:07.1,0.001590729,-0.006214142,-0.000171661,0,
00:07.1,0.001590729,-0.006219864,-0.000171661,0,
00:07.1,0.001590729,-0.006248474,-0.000160217,0,
00:07.2,0.001596451,-0.006328583,-0.000165939,0,
00:07.2,0.001585007,-0.006385803,-0.000154495,0,
00:07.2,0.001585007,-0.006408691,-0.000131607,0,
00:07.2,0.001607895,-0.006414413,-0.000143051,0,
00:07.2,0.001619339,-0.006420135,-0.000137329,0,
00:07.2,0.001607895,-0.006425858,-0.000137329,0,
00:07.2,0.001596451,-0.006443024,-0.000125885,0,
00:07.2,0.001590729,-0.006448746,-0.000108719,0,
00:07.2,0.001590729,-0.006437302,-0.000108719,0,
00:07.2,0.001602173,-0.006437302,-0.000108719,0,
00:07.2,0.001607895,-0.006443024,-9.73E-05,0,
00:07.2,0.001596451,-0.006465912,-9.16E-05,0,
00:07.2,0.001596451,-0.00646019,-6.29E-05,0,
00:07.2,0.001607895,-0.00646019,-6.87E-05,0,
00:07.2,0.001602173,-0.00646019,-7.44E-05,0,
00:07.2,0.001607895,-0.006471634,-8.58E-05,0,
00:07.2,0.001607895,-0.006465912,-7.44E-05,0,
00:07.2,0.001602173,-0.006471634,-5.72E-05,0,
00:07.2,0.001602173,-0.006471634,-5.15E-05,0,
00:07.2,0.001602173,-0.006477356,-5.15E-05,0,
00:07.2,0.001607895,-0.006477356,-4.58E-05,0,
00:07.2,0.001585007,-0.006471634,-5.15E-05,0,
00:07.2,0.001602173,-0.006483078,-5.72E-05,0,
00:07.2,0.001602173,-0.006483078,-4.58E-05,0,
00:07.2,0.001602173,-0.0064888,-3.43E-05,0,
00:07.3,0.001602173,-0.0064888,-2.86E-05,0,
00:07.3,0.001613617,-0.006483078,-1.72E-05,0,
00:07.3,0.001625061,-0.006494522,-5.72E-06,0,
00:07.3,0.001607895,-0.006494522,-1.72E-05,0,
00:07.3,0.001602173,-0.006494522,-5.72E-06,0,
00:07.3,0.001613617,-0.0064888,-1.14E-05,0,
00:07.3,0.001613617,-0.006500244,-1.72E-05,0,
00:07.3,0.001602173,-0.00651741,5.72E-06,0,
00:07.3,0.001619339,-0.006511688,2.86E-05,0,
00:07.3,0.001625061,-0.006505966,2.86E-05,0,
00:07.3,0.001625061,-0.00651741,4.01E-05,0,
00:07.3,0.001619339,-0.006523132,2.29E-05,0,
00:07.3,0.001619339,-0.006523132,2.29E-05,0,
00:07.3,0.001630783,-0.00651741,3.43E-05,0,
00:07.3,0.001613617,-0.006528854,5.15E-05,0,
00:07.3,0.001625061,-0.006528854,5.72E-05,0,
00:07.3,0.001619339,-0.006534576,5.72E-05,0,
00:07.3,0.001636505,-0.006528854,5.15E-05,0,
00:07.3,0.001630783,-0.006534576,5.15E-05,0,
00:07.3,0.001625061,-0.006540298,6.29E-05,0,
00:07.3,0.001630783,-0.006546021,6.87E-05,0,
00:07.3,0.001630783,-0.006551743,6.87E-05,0,
00:07.3,0.001619339,-0.006546021,8.01E-05,0,
00:07.3,0.001642227,-0.006546021,8.58E-05,0,
00:07.3,0.001647949,-0.006551743,9.16E-05,0,
00:07.4,0.001636505,-0.006551743,9.73E-05,0,
00:07.4,0.001647949,-0.006551743,0.000102997,0,
00:07.4,0.001642227,-0.006563187,0.000114441,0,
00:07.4,0.001647949,-0.006546021,0.000102997,0,
00:07.4,0.001642227,-0.006551743,9.73E-05,0,
00:07.4,0.001642227,-0.006563187,9.73E-05,0,
00:07.4,0.001636505,-0.006574631,0.000108719,0,
00:07.4,0.001636505,-0.006580353,0.000131607,0,
00:07.4,0.001659393,-0.006591797,0.000120163,0,
00:07.4,0.001642227,-0.006597519,0.000143051,0,
00:07.4,0.001653671,-0.006608963,0.000154495,0,
00:07.4,0.001659393,-0.006603241,0.000148773,0,
00:07.4,0.001659393,-0.006603241,0.000154495,0,
00:07.4,0.001653671,-0.006608963,0.000154495,0,
00:07.4,0.001659393,-0.006608963,0.000165939,0,
00:07.4,0.001647949,-0.006608963,0.000171661,0,
00:07.4,0.001653671,-0.006608963,0.000171661,0,
00:07.4,0.001665115,-0.006608963,0.000177383,0,
00:07.4,0.001665115,-0.006620407,0.000177383,0,
00:07.4,0.001659393,-0.006614685,0.000188828,0,
00:07.4,0.001665115,-0.006614685,0.000188828,0,
00:07.4,0.001665115,-0.006620407,0.000188828,0,
00:07.4,0.001665115,-0.006620407,0.00019455,0,
00:07.4,0.001670837,-0.006614685,0.00019455,0,
00:07.4,0.001676559,-0.006614685,0.000200272,0,
00:07.5,0.001659393,-0.006626129,0.000211716,0,
00:07.5,0.001670837,-0.006631851,0.000217438,0,
00:07.5,0.001676559,-0.006631851,0.000228882,0,
00:07.5,0.001676559,-0.006626129,0.000234604,0,
00:07.5,0.001688004,-0.006626129,0.000240326,0,
00:07.5,0.001682281,-0.006626129,0.000228882,0,
00:07.5,0.001670837,-0.006626129,0.000234604,0,
00:07.5,0.001676559,-0.006631851,0.00025177,0,
00:07.5,0.001670837,-0.006631851,0.000263214,0,
00:07.5,0.001693726,-0.006626129,0.000263214,0,
00:07.5,0.001693726,-0.006626129,0.000263214,0,
00:07.5,0.001688004,-0.006626129,0.000263214,0,
00:07.5,0.001688004,-0.006626129,0.000274658,0,
00:07.5,0.001693726,-0.006626129,0.000268936,0,
00:07.5,0.001688004,-0.006631851,0.000274658,0,
00:07.5,0.001699448,-0.006637573,0.000291824,0,
00:07.5,0.001693726,-0.006643295,0.000297546,0,
00:07.5,0.001688004,-0.006631851,0.000286102,0,
00:07.5,0.001676559,-0.006631851,0.000286102,0,
00:07.5,0.001699448,-0.006637573,0.000297546,0,
00:07.5,0.00170517,-0.006637573,0.00030899,0,
00:07.5,0.00170517,-0.006643295,0.000291824,0,
00:07.5,0.001699448,-0.006637573,0.000286102,0,
00:07.5,0.001699448,-0.006631851,0.000303268,0,
00:07.5,0.001699448,-0.006643295,0.000320435,0,
00:07.6,0.001693726,-0.006643295,0.000337601,0,
00:07.6,0.001699448,-0.006637573,0.000337601,0,
00:07.6,0.001710892,-0.006643295,0.000337601,0,
00:07.6,0.001716614,-0.006637573,0.000320435,0,
00:07.6,0.001710892,-0.006637573,0.000337601,0,
00:07.6,0.001699448,-0.006654739,0.000354767,0,
00:07.6,0.00170517,-0.006654739,0.000366211,0,
00:07.6,0.001710892,-0.006654739,0.000366211,0,
00:07.6,0.001722336,-0.006649017,0.000360489,0,
00:07.6,0.001722336,-0.006654739,0.000371933,0,
00:07.6,0.001716614,-0.006660461,0.000377655,0,
00:07.6,0.001722336,-0.006660461,0.000377655,0,
00:07.6,0.001722336,-0.006660461,0.000371933,0,
00:07.6,0.001722336,-0.006654739,0.000383377,0,
00:07.6,0.00173378,-0.006649017,0.000371933,0,
00:07.6,0.001728058,-0.006666183,0.000394821,0,
00:07.6,0.001716614,-0.006660461,0.000406265,0,
00:07.6,0.00173378,-0.006660461,0.000400543,0,
00:07.6,0.00173378,-0.006660461,0.000400543,0,
00:07.6,0.001728058,-0.006654739,0.000406265,0,
00:07.6,0.001728058,-0.006660461,0.000400543,0,
00:07.6,0.00173378,-0.006666183,0.000429153,0,
00:07.6,0.00173378,-0.006660461,0.000417709,0,
00:07.6,0.00173378,-0.006660461,0.000417709,0,
00:07.6,0.00173378,-0.006666183,0.000440598,0,
00:07.7,0.001739502,-0.006666183,0.000429153,0,
00:07.7,0.00173378,-0.006660461,0.000440598,0,
00:07.7,0.00173378,-0.006666183,0.000452042,0,
00:07.7,0.001739502,-0.006660461,0.00044632,0,
00:07.7,0.001739502,-0.006666183,0.000452042,0,
00:07.7,0.001739502,-0.006660461,0.000457764,0,
00:07.7,0.001745224,-0.006666183,0.000469208,0,
00:07.7,0.001739502,-0.006666183,0.000457764,0,
00:07.7,0.001745224,-0.006660461,0.000457764,0,
00:07.7,0.001750946,-0.006660461,0.00047493,0,
00:07.7,0.001745224,-0.006666183,0.000469208,0,
00:07.7,0.00176239,-0.006660461,0.000463486,0,
00:07.7,0.001745224,-0.006666183,0.000463486,0,
00:07.7,0.001745224,-0.006671906,0.000480652,0,
00:07.7,0.001745224,-0.006666183,0.000480652,0,
00:07.7,0.001745224,-0.006671906,0.000486374,0,
00:07.7,0.001750946,-0.006677628,0.000497818,0,
00:07.7,0.001756668,-0.006677628,0.000497818,0,
00:07.7,0.001745224,-0.006677628,0.00050354,0,
00:07.7,0.001750946,-0.006671906,0.000509262,0,
00:07.7,0.001756668,-0.006671906,0.00050354,0,
00:07.7,0.001750946,-0.006677628,0.000520706,0,
00:07.7,0.001739502,-0.006677628,0.000526428,0,
00:07.7,0.001750946,-0.006671906,0.000520706,0,
00:07.7,0.001773834,-0.006671906,0.000537872,0,
00:07.8,0.001768112,-0.006677628,0.000526428,0,
00:07.8,0.001745224,-0.006671906,0.000543594,0,
00:07.8,0.00176239,-0.006677628,0.000543594,0,
00:07.8,0.001756668,-0.006689072,0.000549316,0,
00:07.8,0.00176239,-0.006677628,0.000555038,0,
00:07.8,0.00176239,-0.00668335,0.00056076,0,
00:07.8,0.001768112,-0.00668335,0.00056076,0,
00:07.8,0.00176239,-0.00668335,0.000555038,0,
00:07.8,0.001768112,-0.006677628,0.000577927,0,
00:07.8,0.001768112,-0.00668335,0.000595093,0,
00:07.8,0.001768112,-0.006677628,0.000595093,0,
00:07.8,0.001773834,-0.006677628,0.000577927,0,
00:07.8,0.001768112,-0.00668335,0.000583649,0,
00:07.8,0.001768112,-0.006677628,0.000600815,0,
00:07.8,0.001768112,-0.006677628,0.000606537,0,
00:07.8,0.001773834,-0.006677628,0.000612259,0,
00:07.8,0.001768112,-0.006677628,0.000612259,0,
00:07.8,0.001773834,-0.006677628,0.000612259,0,
00:07.8,0.001773834,-0.006677628,0.000612259,0,
00:07.8,0.001779556,-0.00668335,0.000617981,0,
00:07.8,0.00176239,-0.00668335,0.000629425,0,
00:07.8,0.00176239,-0.006677628,0.000629425,0,
00:07.8,0.001791,-0.00668335,0.000623703,0,
00:07.8,0.001791,-0.006677628,0.000629425,0,
00:07.8,0.001796722,-0.006677628,0.000640869,0,
00:07.9,0.001785278,-0.006677628,0.000646591,0,
00:07.9,0.001791,-0.006677628,0.000652313,0,
00:07.9,0.001796722,-0.006671906,0.000646591,0,
00:07.9,0.001796722,-0.006677628,0.000640869,0,
00:07.9,0.001785278,-0.006689072,0.000675201,0,
00:07.9,0.001791,-0.006689072,0.000686646,0,
00:07.9,0.001796722,-0.00668335,0.000680923,0,
00:07.9,0.001779556,-0.006689072,0.000675201,0,
00:07.9,0.001791,-0.00668335,0.000680923,0,
00:07.9,0.001796722,-0.00668335,0.000680923,0,
00:07.9,0.001791,-0.00668335,0.000680923,0,
00:07.9,0.001796722,-0.006689072,0.000686646,0,
00:07.9,0.001791,-0.00668335,0.000686646,0,
00:07.9,0.001796722,-0.006689072,0.000703812,0,
00:07.9,0.001808167,-0.006677628,0.000715256,0,
00:07.9,0.001785278,-0.006694794,0.00069809,0,
00:07.9,0.001791,-0.006689072,0.00069809,0,
00:07.9,0.001791,-0.00668335,0.000715256,0,
00:07.9,0.001791,-0.00668335,0.000715256,0,
00:07.9,0.001791,-0.00668335,0.000715256,0,
00:07.9,0.001796722,-0.00668335,0.0007267,0,
00:07.9,0.001791,-0.006689072,0.000715256,0,
00:07.9,0.001791,-0.006689072,0.0007267,0,
00:07.9,0.001802444,-0.00668335,0.0007267,0,
00:07.9,0.001802444,-0.00668335,0.000743866,0,
00:08.0,0.001813889,-0.006689072,0.000761032,0,
00:08.0,0.001791,-0.006694794,0.00075531,0,
00:08.0,0.001796722,-0.00668335,0.000749588,0,
00:08.0,0.001796722,-0.00668335,0.000761032,0,
00:08.0,0.001802444,-0.00668335,0.000761032,0,
00:08.0,0.001802444,-0.00668335,0.000766754,0,
00:08.0,0.001802444,-0.00668335,0.000772476,0,
00:08.0,0.001802444,-0.006689072,0.000778198,0,
00:08.0,0.001802444,-0.006689072,0.000778198,0,
00:08.0,0.001808167,-0.00668335,0.00078392,0,
00:08.0,0.001813889,-0.006689072,0.000778198,0,
00:08.0,0.001808167,-0.006689072,0.000778198,0,
00:00:08,0.001802444,-0.006694794,0.000795364,0,
00:08.0,0.001802444,-0.006694794,0.000812531,0,
00:08.0,0.001808167,-0.006689072,0.000801086,0,
00:08.0,0.001808167,-0.006689072,0.000795364,0,
00:08.0,0.001796722,-0.006689072,0.000806808,0,
00:08.0,0.001796722,-0.006689072,0.000812531,0,
00:08.0,0.001808167,-0.006694794,0.000806808,0,
00:08.0,0.001813889,-0.006689072,0.000812531,0,
00:08.0,0.001802444,-0.006694794,0.000818253,0,
00:08.0,0.001813889,-0.006689072,0.000818253,0,
00:08.0,0.001808167,-0.006689072,0.000829697,0,
00:08.0,0.001808167,-0.006694794,0.000835419,0,
00:08.0,0.001813889,-0.006694794,0.000829697,0,
00:08.1,0.001802444,-0.006700516,0.000829697,0,
00:08.1,0.001808167,-0.006700516,0.000858307,0,
00:08.1,0.001813889,-0.006694794,0.000852585,0,
00:08.1,0.001808167,-0.006689072,0.000852585,0,
00:08.1,0.001825333,-0.006694794,0.000852585,0,
00:08.1,0.001819611,-0.006694794,0.000841141,0,
00:08.1,0.001808167,-0.006694794,0.000869751,0,
00:08.1,0.001808167,-0.006694794,0.000875473,0,
00:08.1,0.001813889,-0.006694794,0.000875473,0,
00:08.1,0.001813889,-0.006689072,0.000869751,0,
00:08.1,0.001813889,-0.006689072,0.000864029,0,
00:08.1,0.001819611,-0.006689072,0.000869751,0,
00:08.1,0.001819611,-0.006700516,0.000875473,0,
00:08.1,0.001808167,-0.006694794,0.000886917,0,
00:08.1,0.001813889,-0.006689072,0.000881195,0,
00:08.1,0.001825333,-0.006689072,0.000892639,0,
00:08.1,0.001819611,-0.006689072,0.000892639,0,
00:08.1,0.001825333,-0.006689072,0.000886917,0,
00:08.1,0.001825333,-0.006689072,0.000904083,0,
00:08.1,0.001808167,-0.006689072,0.000909805,0,
00:08.1,0.001813889,-0.006689072,0.000909805,0,
00:08.1,0.001813889,-0.006694794,0.000909805,0,
00:08.1,0.001813889,-0.006694794,0.000909805,0,
00:08.1,0.001819611,-0.006694794,0.000921249,0,
00:08.1,0.001819611,-0.006689072,0.000932693,0,
00:08.2,0.001819611,-0.006689072,0.000921249,0,
00:08.2,0.001819611,-0.006694794,0.000915527,0,
00:08.2,0.001819611,-0.006689072,0.000926971,0,
00:08.2,0.001802444,-0.006689072,0.000932693,0,
00:08.2,0.001813889,-0.006689072,0.00094986,0,
00:08.2,0.001808167,-0.006700516,0.000944138,0,
00:08.2,0.001802444,-0.006706238,0.000955582,0,
00:08.2,0.001813889,-0.006700516,0.00094986,0,
00:08.2,0.001825333,-0.006689072,0.00094986,0,
00:08.2,0.001819611,-0.00668335,0.000955582,0,
00:08.2,0.001808167,-0.006694794,0.000972748,0,
00:08.2,0.001819611,-0.006694794,0.000967026,0,
00:08.2,0.001813889,-0.006694794,0.000972748,0,
00:08.2,0.001813889,-0.006694794,0.000984192,0,
00:08.2,0.001808167,-0.006694794,0.000989914,0,
00:08.2,0.001819611,-0.006694794,0.000989914,0,
00:08.2,0.001819611,-0.006700516,0.00100708,0,
00:08.2,0.001808167,-0.006700516,0.001001358,0,
00:08.2,0.001813889,-0.006700516,0.000989914,0,
00:08.2,0.001808167,-0.006694794,0.000995636,0,
00:08.2,0.001813889,-0.006689072,0.001001358,0,
00:08.2,0.001813889,-0.006689072,0.00100708,0,
00:08.2,0.001819611,-0.006689072,0.001012802,0,
00:08.2,0.001825333,-0.006700516,0.001018524,0,
00:08.2,0.001813889,-0.006694794,0.001018524,0,
00:08.3,0.001819611,-0.006700516,0.001024246,0,
00:08.3,0.001831055,-0.006700516,0.001029968,0,
00:08.3,0.001825333,-0.006700516,0.00103569,0,
00:08.3,0.001831055,-0.006694794,0.001047134,0,
00:08.3,0.001825333,-0.006700516,0.001041412,0,
00:08.3,0.001819611,-0.006694794,0.001041412,0,
00:08.3,0.001819611,-0.006694794,0.001041412,0,
00:08.3,0.001819611,-0.006700516,0.001041412,0,
00:08.3,0.001819611,-0.006700516,0.001052856,0,
00:08.3,0.001831055,-0.006694794,0.001052856,0,
00:08.3,0.001831055,-0.006694794,0.001052856,0,
00:08.3,0.001813889,-0.006706238,0.001058578,0,
00:08.3,0.001831055,-0.006706238,0.001081467,0,
00:08.3,0.001836777,-0.006700516,0.001075745,0,
00:08.3,0.001831055,-0.006700516,0.001070023,0,
00:08.3,0.001825333,-0.006706238,0.001081467,0,
00:08.3,0.001831055,-0.006706238,0.001087189,0,
00:08.3,0.001836777,-0.006700516,0.001092911,0,
00:08.3,0.001836777,-0.006694794,0.001087189,0,
00:08.3,0.001842499,-0.006700516,0.001098633,0,
00:08.3,0.001842499,-0.006700516,0.001115799,0,
00:08.3,0.001836777,-0.006700516,0.001104355,0,
00:08.3,0.001836777,-0.006706238,0.001115799,0,
00:08.3,0.001842499,-0.006700516,0.001121521,0,
00:08.3,0.001836777,-0.006700516,0.001115799,0,
00:08.4,0.001848221,-0.006700516,0.001110077,0,
00:08.4,0.001842499,-0.006700516,0.001115799,0,
00:08.4,0.001836777,-0.006706238,0.001127243,0,
00:08.4,0.001831055,-0.006706238,0.001132965,0,
00:08.4,0.001836777,-0.006706238,0.001138687,0,
00:08.4,0.001859665,-0.006706238,0.001144409,0,
00:08.4,0.001848221,-0.006700516,0.001138687,0,
00:08.4,0.001836777,-0.006700516,0.001144409,0,
00:08.4,0.001842499,-0.006700516,0.001138687,0,
00:08.4,0.001848221,-0.006706238,0.001144409,0,
00:08.4,0.001842499,-0.006700516,0.001150131,0,
00:08.4,0.001848221,-0.006700516,0.001150131,0,
00:08.4,0.001848221,-0.006700516,0.001155853,0,
00:08.4,0.001842499,-0.006700516,0.001167297,0,
00:08.4,0.001836777,-0.006700516,0.001178741,0,
00:08.4,0.001865387,-0.006694794,0.001173019,0,
00:08.4,0.001853943,-0.006694794,0.001184464,0,
00:08.4,0.001842499,-0.006689072,0.001184464,0,
00:08.4,0.001848221,-0.006689072,0.001190186,0,
00:08.4,0.001848221,-0.006689072,0.001190186,0,
00:08.4,0.001853943,-0.00668335,0.001178741,0,
00:08.4,0.001859665,-0.00668335,0.001184464,0,
00:08.4,0.001853943,-0.00668335,0.001184464,0,
00:08.4,0.001842499,-0.00668335,0.001213074,0,
00:08.4,0.001842499,-0.00668335,0.001213074,0,
00:08.5,0.001853943,-0.006677628,0.00120163,0,
00:08.5,0.001865387,-0.006677628,0.001207352,0,
00:08.5,0.001859665,-0.006689072,0.001218796,0,
00:08.5,0.001853943,-0.006689072,0.001224518,0,
00:08.5,0.001853943,-0.006689072,0.001218796,0,
00:08.5,0.001871109,-0.00668335,0.001224518,0,
00:08.5,0.001859665,-0.00668335,0.001224518,0,
00:08.5,0.001859665,-0.006689072,0.001224518,0,
00:08.5,0.001865387,-0.00668335,0.001235962,0,
00:08.5,0.001871109,-0.00668335,0.001253128,0,
00:08.5,0.001871109,-0.006689072,0.001253128,0,
00:08.5,0.001859665,-0.00668335,0.001241684,0,
00:08.5,0.001853943,-0.00668335,0.001247406,0,
00:08.5,0.001865387,-0.006689072,0.00125885,0,
00:08.5,0.001859665,-0.00668335,0.00125885,0,
00:08.5,0.001876831,-0.006677628,0.001253128,0,
00:08.5,0.001871109,-0.00668335,0.001247406,0,
00:08.5,0.001871109,-0.00668335,0.00125885,0,
00:08.5,0.001871109,-0.00668335,0.001276016,0,
00:08.5,0.001871109,-0.00668335,0.001293182,0,
00:08.5,0.001876831,-0.00668335,0.00128746,0,
00:08.5,0.001876831,-0.00668335,0.001281738,0,
00:08.5,0.001871109,-0.00668335,0.00128746,0,
00:08.5,0.001865387,-0.00668335,0.001298904,0,
00:08.5,0.001871109,-0.00668335,0.001281738,0,
00:08.6,0.001876831,-0.006677628,0.00128746,0,
00:08.6,0.001876831,-0.006677628,0.001310349,0,
00:08.6,0.001893997,-0.00668335,0.001316071,0,
00:08.6,0.001882553,-0.006677628,0.001310349,0,
00:08.6,0.001876831,-0.00668335,0.001293182,0,
00:08.6,0.001882553,-0.00668335,0.001310349,0,
00:08.6,0.001882553,-0.00668335,0.001321793,0,
00:08.6,0.001882553,-0.00668335,0.001327515,0,
00:08.6,0.001876831,-0.006689072,0.001333237,0,
00:08.6,0.001876831,-0.006689072,0.001338959,0,
00:08.6,0.001882553,-0.006689072,0.001338959,0,
00:08.6,0.001882553,-0.00668335,0.001338959,0,
00:08.6,0.001876831,-0.00668335,0.001344681,0,
00:08.6,0.001893997,-0.006677628,0.001344681,0,
00:08.6,0.001893997,-0.00668335,0.001356125,0,
00:08.6,0.001899719,-0.00668335,0.001350403,0,
00:08.6,0.001893997,-0.006689072,0.001361847,0,
00:08.6,0.001893997,-0.00668335,0.001379013,0,
00:08.6,0.001899719,-0.006677628,0.001373291,0,
00:08.6,0.001905441,-0.006671906,0.001361847,0,
00:08.6,0.001905441,-0.00668335,0.001367569,0,
00:08.6,0.001911163,-0.00668335,0.001379013,0,
00:08.6,0.001899719,-0.00668335,0.001396179,0,
00:08.6,0.001905441,-0.006677628,0.001390457,0,
00:08.6,0.001911163,-0.006677628,0.001396179,0,
00:08.7,0.001905441,-0.006677628,0.001401901,0,
00:08.7,0.001911163,-0.006677628,0.001396179,0,
00:08.7,0.001911163,-0.006671906,0.001401901,0,
00:08.7,0.001916885,-0.006677628,0.001424789,0,
00:08.7,0.001905441,-0.00668335,0.001441956,0,
00:08.7,0.001905441,-0.006677628,0.001430511,0,
00:08.7,0.001911163,-0.006671906,0.001430511,0,
00:08.7,0.001905441,-0.006671906,0.001430511,0,
00:08.7,0.001899719,-0.006671906,0.001441956,0,
00:08.7,0.001911163,-0.006671906,0.001441956,0,
00:08.7,0.001916885,-0.006671906,0.001436234,0,
00:08.7,0.001911163,-0.006677628,0.001447678,0,
00:08.7,0.001911163,-0.006671906,0.001459122,0,
00:08.7,0.001916885,-0.006671906,0.0014534,0,
00:08.7,0.001916885,-0.00668335,0.001464844,0,
00:08.7,0.001934052,-0.006677628,0.001459122,0,
00:08.7,0.001922607,-0.006677628,0.001464844,0,
00:08.7,0.001916885,-0.006677628,0.001470566,0,
00:08.7,0.001922607,-0.006671906,0.001470566,0,
00:08.7,0.001911163,-0.00668335,0.001476288,0,
00:08.7,0.001911163,-0.00668335,0.001499176,0,
00:08.7,0.001922607,-0.006677628,0.001487732,0,
00:08.7,0.001934052,-0.006677628,0.001476288,0,
00:08.7,0.001916885,-0.00668335,0.001499176,0,
00:08.7,0.001916885,-0.006677628,0.001504898,0,
00:08.8,0.001922607,-0.00668335,0.001504898,0,
00:08.8,0.001905441,-0.00668335,0.00151062,0,
00:08.8,0.001916885,-0.006677628,0.00151062,0,
00:08.8,0.001916885,-0.006677628,0.001522064,0,
00:08.8,0.001922607,-0.006671906,0.00151062,0,
00:08.8,0.001934052,-0.006671906,0.001504898,0,
00:08.8,0.001934052,-0.006677628,0.001522064,0,
00:08.8,0.001928329,-0.00668335,0.00153923,0,
00:08.8,0.001922607,-0.00668335,0.001533508,0,
00:08.8,0.001934052,-0.006677628,0.00153923,0,
00:08.8,0.001939774,-0.006677628,0.001533508,0,
00:08.8,0.001928329,-0.00668335,0.001544952,0,
00:08.8,0.001928329,-0.00668335,0.00153923,0,
00:08.8,0.001934052,-0.006677628,0.001544952,0,
00:08.8,0.001922607,-0.00668335,0.001544952,0,
00:08.8,0.001928329,-0.006689072,0.001556396,0,
00:08.8,0.001922607,-0.006694794,0.001562119,0,
00:08.8,0.001928329,-0.006689072,0.001567841,0,
00:08.8,0.001922607,-0.006689072,0.001567841,0,
00:08.8,0.001928329,-0.00668335,0.001556396,0,
00:08.8,0.001928329,-0.006689072,0.001556396,0,
00:08.8,0.001928329,-0.006694794,0.001590729,0,
00:08.8,0.001928329,-0.006694794,0.001590729,0,
00:08.8,0.001934052,-0.006689072,0.001573563,0,
00:08.8,0.001939774,-0.00668335,0.001579285,0,
00:08.9,0.001916885,-0.006689072,0.001585007,0,
00:08.9,0.001916885,-0.006694794,0.001585007,0,
00:08.9,0.001934052,-0.00668335,0.001596451,0,
00:08.9,0.001934052,-0.006689072,0.001602173,0,
00:08.9,0.001928329,-0.006689072,0.001607895,0,
00:08.9,0.001928329,-0.006689072,0.001602173,0,
00:08.9,0.001934052,-0.00668335,0.001596451,0,
00:08.9,0.001939774,-0.006677628,0.001602173,0,
00:08.9,0.001939774,-0.006689072,0.001613617,0,
00:08.9,0.001939774,-0.006689072,0.001630783,0,
00:08.9,0.001939774,-0.006694794,0.001636505,0,
00:08.9,0.001928329,-0.006700516,0.001642227,0,
00:08.9,0.001934052,-0.00668335,0.001636505,0,
00:08.9,0.001945496,-0.00668335,0.001636505,0,
00:08.9,0.001951218,-0.006671906,0.001636505,0,
00:08.9,0.001939774,-0.00668335,0.001642227,0,
00:08.9,0.001928329,-0.00668335,0.001653671,0,
00:08.9,0.001945496,-0.00668335,0.001653671,0,
00:08.9,0.001939774,-0.006671906,0.001642227,0,
00:08.9,0.001945496,-0.006671906,0.001647949,0,
00:08.9,0.001934052,-0.00668335,0.001682281,0,
00:08.9,0.001945496,-0.006677628,0.001676559,0,
00:08.9,0.001951218,-0.006671906,0.001670837,0,
00:08.9,0.00195694,-0.006677628,0.001670837,0,
00:08.9,0.001939774,-0.006677628,0.001682281,0,
00:09.0,0.001945496,-0.006666183,0.001676559,0,
00:09.0,0.001951218,-0.006671906,0.001676559,0,
00:09.0,0.001945496,-0.006671906,0.001682281,0,
00:09.0,0.001962662,-0.006660461,0.001676559,0,
00:09.0,0.001962662,-0.006666183,0.001670837,0,
00:09.0,0.001951218,-0.006677628,0.001688004,0,
00:09.0,0.001945496,-0.00668335,0.001693726,0,
00:09.0,0.001951218,-0.006677628,0.001693726,0,
00:09.0,0.001951218,-0.006671906,0.001682281,0,
00:09.0,0.001945496,-0.006677628,0.001699448,0,
00:09.0,0.001951218,-0.006671906,0.00170517,0,
00:09.0,0.001951218,-0.006671906,0.001716614,0,
00:00:09,0.001951218,-0.006666183,0.001710892,0,
00:09.0,0.00195694,-0.006666183,0.00170517,0,
00:09.0,0.001962662,-0.006666183,0.001710892,0,
00:09.0,0.001962662,-0.006671906,0.001716614,0,
00:09.0,0.00195694,-0.006671906,0.001716614,0,
00:09.0,0.001962662,-0.006660461,0.001728058,0,
00:09.0,0.001951218,-0.006666183,0.001722336,0,
00:09.0,0.001962662,-0.006666183,0.001722336,0,
00:09.0,0.001951218,-0.006666183,0.001728058,0,
00:09.0,0.001962662,-0.006666183,0.001728058,0,
00:09.0,0.001968384,-0.006666183,0.001728058,0,
00:09.0,0.001962662,-0.006666183,0.001728058,0,
00:09.0,0.001968384,-0.006660461,0.001739502,0,
00:09.1,0.001951218,-0.006666183,0.001745224,0,
00:09.1,0.001945496,-0.006666183,0.001750946,0,
00:09.1,0.00198555,-0.006671906,0.001745224,0,
00:09.1,0.001979828,-0.006671906,0.001745224,0,
00:09.1,0.001979828,-0.006666183,0.001739502,0,
00:09.1,0.001974106,-0.006666183,0.001756668,0,
00:09.1,0.001974106,-0.006666183,0.001756668,0,
00:09.1,0.001968384,-0.006671906,0.00176239,0,
00:09.1,0.001974106,-0.006666183,0.001756668,0,
00:09.1,0.001974106,-0.006666183,0.001756668,0,
00:09.1,0.001979828,-0.006660461,0.001750946,0,
00:09.1,0.00198555,-0.006666183,0.001750946,0,
00:09.1,0.001979828,-0.006660461,0.001756668,0,
00:09.1,0.001979828,-0.006666183,0.00176239,0,
00:09.1,0.001979828,-0.006671906,0.001773834,0,
00:09.1,0.00198555,-0.006671906,0.001785278,0,
00:09.1,0.001991272,-0.006671906,0.001785278,0,
00:09.1,0.001974106,-0.006666183,0.001773834,0,
00:09.1,0.001979828,-0.006666183,0.001768112,0,
00:09.1,0.00198555,-0.006666183,0.001785278,0,
00:09.1,0.001996994,-0.006666183,0.001785278,0,
00:09.1,0.002002716,-0.006666183,0.001773834,0,
00:09.1,0.001991272,-0.006671906,0.001779556,0,
00:09.1,0.001996994,-0.006671906,0.001785278,0,
00:09.1,0.002008438,-0.006654739,0.001779556,0,
00:09.2,0.002008438,-0.006660461,0.001779556,0,
00:09.2,0.002002716,-0.006671906,0.001779556,0,
00:09.2,0.002002716,-0.006666183,0.001802444,0,
00:09.2,0.002008438,-0.006666183,0.001791,0,
00:09.2,0.002002716,-0.006666183,0.001785278,0,
00:09.2,0.002002716,-0.006666183,0.001796722,0,
00:09.2,0.002008438,-0.006671906,0.001825333,0,
00:09.2,0.00201416,-0.006671906,0.001836777,0,
00:09.2,0.00201416,-0.006671906,0.001848221,0,
00:09.2,0.002025604,-0.006666183,0.001836777,0,
00:09.2,0.002008438,-0.006677628,0.001836777,0,
00:09.2,0.00201416,-0.006677628,0.001859665,0,
00:09.2,0.002019882,-0.006671906,0.001853943,0,
00:09.2,0.002019882,-0.006671906,0.001848221,0,
00:09.2,0.002019882,-0.00668335,0.001848221,0,
00:09.2,0.002008438,-0.00668335,0.001848221,0,
00:09.2,0.002002716,-0.00668335,0.001842499,0,
00:09.2,0.00204277,-0.006677628,0.001842499,0,
00:09.2,0.002031326,-0.00668335,0.001853943,0,
00:09.2,0.002031326,-0.00668335,0.001865387,0,
00:09.2,0.00201416,-0.00668335,0.001865387,0,
00:09.2,0.002025604,-0.00668335,0.001842499,0,
00:09.2,0.002031326,-0.00668335,0.001848221,0,
00:09.2,0.002025604,-0.006677628,0.001859665,0,
00:09.2,0.002031326,-0.006689072,0.001853943,0,
00:09.3,0.002037048,-0.006694794,0.001848221,0,
00:09.3,0.00204277,-0.00668335,0.001848221,0,
00:09.3,0.002037048,-0.00668335,0.001842499,0,
00:09.3,0.00204277,-0.00668335,0.001842499,0,
00:09.3,0.002037048,-0.006689072,0.001842499,0,
00:09.3,0.002048492,-0.00668335,0.001853943,0,
00:09.3,0.002037048,-0.006689072,0.001853943,0,
00:09.3,0.002037048,-0.006694794,0.001859665,0,
00:09.3,0.002048492,-0.006689072,0.001848221,0,
00:09.3,0.002054214,-0.006689072,0.001842499,0,
00:09.3,0.00204277,-0.006689072,0.001836777,0,
00:09.3,0.002037048,-0.006694794,0.001848221,0,
00:09.3,0.002054214,-0.006689072,0.001836777,0,
00:09.3,0.002059937,-0.006694794,0.001836777,0,
00:09.3,0.002059937,-0.006694794,0.001831055,0,
00:09.3,0.00204277,-0.006700516,0.001836777,0,
00:09.3,0.002054214,-0.006700516,0.001848221,0,
00:09.3,0.002059937,-0.006694794,0.001842499,0,
00:09.3,0.002065659,-0.006700516,0.001853943,0,
00:09.3,0.002065659,-0.006706238,0.001842499,0,
00:09.3,0.002065659,-0.006694794,0.001842499,0,
00:09.3,0.00204277,-0.006700516,0.001831055,0,
00:09.3,0.002048492,-0.006706238,0.001842499,0,
00:09.3,0.002037048,-0.006706238,0.001836777,0,
00:09.3,0.00204277,-0.006717682,0.001842499,0,
00:09.4,0.002048492,-0.006717682,0.001842499,0,
00:09.4,0.002048492,-0.006723404,0.001853943,0,
00:09.4,0.002048492,-0.006723404,0.001842499,0,
00:09.4,0.002048492,-0.006723404,0.001831055,0,
00:09.4,0.002048492,-0.006729126,0.001842499,0,
00:09.4,0.002054214,-0.006729126,0.001836777,0,
00:09.4,0.002065659,-0.006729126,0.001842499,0,
00:09.4,0.002065659,-0.006734848,0.001836777,0,
00:09.4,0.002048492,-0.006729126,0.001819611,0,
00:09.4,0.002054214,-0.006734848,0.001825333,0,
00:09.4,0.002082825,-0.00674057,0.001819611,0,
00:09.4,0.002071381,-0.00674057,0.001825333,0,
00:09.4,0.002071381,-0.00674057,0.001825333,0,
00:09.4,0.002082825,-0.006729126,0.001836777,0,
00:09.4,0.002071381,-0.00674057,0.001831055,0,
00:09.4,0.002077103,-0.00674057,0.001819611,0,
00:09.4,0.002088547,-0.006734848,0.001819611,0,
00:09.4,0.002077103,-0.00674057,0.001813889,0,
00:09.4,0.002071381,-0.00674057,0.001819611,0,
00:09.4,0.002082825,-0.00674057,0.001819611,0,
00:09.4,0.002082825,-0.006746292,0.001825333,0,
00:09.4,0.002077103,-0.006752014,0.001825333,0,
00:09.4,0.002065659,-0.006752014,0.001825333,0,
00:09.4,0.002082825,-0.00674057,0.001813889,0,
00:09.4,0.002088547,-0.006746292,0.001796722,0,
00:09.5,0.002088547,-0.006746292,0.001808167,0,
00:09.5,0.002077103,-0.006763458,0.001831055,0,
00:09.5,0.002082825,-0.006757736,0.001825333,0,
00:09.5,0.002099991,-0.006757736,0.001819611,0,
00:09.5,0.002099991,-0.006752014,0.001808167,0,
00:09.5,0.002094269,-0.006746292,0.001802444,0,
00:09.5,0.002105713,-0.006757736,0.001802444,0,
00:09.5,0.002099991,-0.006757736,0.001808167,0,
00:09.5,0.002099991,-0.006752014,0.001796722,0,
00:09.5,0.002099991,-0.006752014,0.001796722,0,
00:09.5,0.002099991,-0.006757736,0.001796722,0,
00:09.5,0.002094269,-0.006757736,0.001796722,0,
00:09.5,0.002099991,-0.006757736,0.001808167,0,
00:09.5,0.002099991,-0.006757736,0.001802444,0,
00:09.5,0.002105713,-0.006763458,0.001791,0,
00:09.5,0.002099991,-0.006763458,0.001785278,0,
00:09.5,0.002099991,-0.006763458,0.001796722,0,
00:09.5,0.002094269,-0.006763458,0.001779556,0,
00:09.5,0.002105713,-0.006752014,0.001779556,0,
00:09.5,0.002105713,-0.006752014,0.001773834,0,
00:09.5,0.002099991,-0.006757736,0.001773834,0,
00:09.5,0.002088547,-0.006757736,0.00176239,0,
00:09.5,0.002099991,-0.006763458,0.00176239,0,
00:09.5,0.002117157,-0.006763458,0.001750946,0,
00:09.5,0.002111435,-0.006763458,0.001750946,0,
00:09.6,0.002117157,-0.006763458,0.001756668,0,
00:09.6,0.002122879,-0.006752014,0.001739502,0,
00:09.6,0.002122879,-0.006752014,0.001739502,0,
00:09.6,0.002117157,-0.006757736,0.00176239,0,
00:09.6,0.002111435,-0.006757736,0.001756668,0,
00:09.6,0.002117157,-0.006757736,0.001739502,0,
00:09.6,0.002117157,-0.006763458,0.001756668,0,
00:09.6,0.002122879,-0.006763458,0.001750946,0,
00:09.6,0.002117157,-0.006763458,0.001750946,0,
00:09.6,0.002111435,-0.006763458,0.001745224,0,
00:09.6,0.002122879,-0.006763458,0.001728058,0,
00:09.6,0.002128601,-0.006763458,0.001722336,0,
00:09.6,0.002117157,-0.006763458,0.001722336,0,
00:09.6,0.002128601,-0.00676918,0.001716614,0,
00:09.6,0.002128601,-0.00676918,0.001710892,0,
00:09.6,0.002128601,-0.006752014,0.001710892,0,
00:09.6,0.002111435,-0.006763458,0.001710892,0,
00:09.6,0.002111435,-0.00676918,0.001716614,0,
00:09.6,0.002134323,-0.006763458,0.001699448,0,
00:09.6,0.002134323,-0.006763458,0.001693726,0,
00:09.6,0.002122879,-0.006763458,0.001699448,0,
00:09.6,0.002128601,-0.00676918,0.001693726,0,
00:09.6,0.002122879,-0.006763458,0.001688004,0,
00:09.6,0.002128601,-0.00676918,0.00170517,0,
00:09.6,0.002134323,-0.006763458,0.001693726,0,
00:09.7,0.002134323,-0.006763458,0.001682281,0,
00:09.7,0.002128601,-0.006763458,0.001682281,0,
00:09.7,0.002145767,-0.00676918,0.001682281,0,
00:09.7,0.002145767,-0.00676918,0.001676559,0,
00:09.7,0.002140045,-0.006763458,0.001676559,0,
00:09.7,0.002134323,-0.00676918,0.001670837,0,
00:09.7,0.002128601,-0.006774902,0.001676559,0,
00:09.7,0.002140045,-0.006774902,0.001659393,0,
00:09.7,0.002140045,-0.00676918,0.001647949,0,
00:09.7,0.002145767,-0.00676918,0.001647949,0,
00:09.7,0.002145767,-0.006774902,0.001647949,0,
00:09.7,0.002151489,-0.006774902,0.001647949,0,
00:09.7,0.002151489,-0.006774902,0.001647949,0,
00:09.7,0.002145767,-0.006780624,0.001636505,0,
00:09.7,0.002151489,-0.006774902,0.001630783,0,
00:09.7,0.002151489,-0.00676918,0.001625061,0,
00:09.7,0.002162933,-0.006774902,0.001613617,0,
00:09.7,0.002145767,-0.006786346,0.001613617,0,
00:09.7,0.002140045,-0.006780624,0.001619339,0,
00:09.7,0.002157211,-0.006774902,0.001596451,0,
00:09.7,0.002157211,-0.006774902,0.001590729,0,
00:09.7,0.002157211,-0.006774902,0.001602173,0,
00:09.7,0.002162933,-0.006786346,0.001602173,0,
00:09.7,0.002157211,-0.006780624,0.001602173,0,
00:09.7,0.002151489,-0.006780624,0.001590729,0,
00:09.8,0.002151489,-0.006786346,0.001590729,0,
00:09.8,0.002157211,-0.006786346,0.001579285,0,
00:09.8,0.002174377,-0.006780624,0.001573563,0,
00:09.8,0.002162933,-0.006786346,0.001573563,0,
00:09.8,0.002162933,-0.006780624,0.001562119,0,
00:09.8,0.002162933,-0.006786346,0.001562119,0,
00:09.8,0.002157211,-0.006786346,0.001556396,0,
00:09.8,0.002174377,-0.006780624,0.00153923,0,
00:09.8,0.002174377,-0.006786346,0.00153923,0,
00:09.8,0.002168655,-0.006780624,0.001544952,0,
00:09.8,0.002168655,-0.006780624,0.001533508,0,
00:09.8,0.002168655,-0.006786346,0.001533508,0,
00:09.8,0.002180099,-0.006780624,0.001522064,0,
00:09.8,0.002174377,-0.006792068,0.001522064,0,
00:09.8,0.002162933,-0.006786346,0.00151062,0,
00:09.8,0.002168655,-0.006786346,0.001504898,0,
00:09.8,0.002174377,-0.006786346,0.001499176,0,
00:09.8,0.002168655,-0.006792068,0.00151062,0,
00:09.8,0.002162933,-0.006792068,0.001504898,0,
00:09.8,0.002162933,-0.006786346,0.001493454,0,
00:09.8,0.002180099,-0.006786346,0.001487732,0,
00:09.8,0.002168655,-0.006792068,0.001487732,0,
00:09.8,0.002197266,-0.006786346,0.001470566,0,
00:09.8,0.002174377,-0.006797791,0.00148201,0,
00:09.8,0.002174377,-0.006797791,0.001504898,0,
00:09.9,0.002174377,-0.006797791,0.00148201,0,
00:09.9,0.002180099,-0.006797791,0.001459122,0,
00:09.9,0.002174377,-0.006797791,0.0014534,0,
00:09.9,0.002180099,-0.006792068,0.0014534,0,
00:09.9,0.002180099,-0.006792068,0.001447678,0,
00:09.9,0.002185822,-0.006792068,0.001441956,0,
00:09.9,0.002180099,-0.006792068,0.001441956,0,
00:09.9,0.002180099,-0.006792068,0.001436234,0,
00:09.9,0.002168655,-0.006797791,0.001430511,0,
00:09.9,0.002180099,-0.006797791,0.001436234,0,
00:09.9,0.002180099,-0.006797791,0.001424789,0,
00:09.9,0.002180099,-0.006797791,0.001413345,0,
00:09.9,0.002185822,-0.006797791,0.001419067,0,
00:09.9,0.002180099,-0.006797791,0.001424789,0,
00:09.9,0.002180099,-0.006792068,0.001407623,0,
00:09.9,0.002162933,-0.006803513,0.001396179,0,
00:09.9,0.002174377,-0.006809235,0.001401901,0,
00:09.9,0.002185822,-0.006803513,0.001396179,0,
00:09.9,0.002185822,-0.006797791,0.001396179,0,
00:09.9,0.002185822,-0.006797791,0.001384735,0,
00:09.9,0.002180099,-0.006797791,0.001384735,0,
00:09.9,0.002180099,-0.006797791,0.001384735,0,
00:09.9,0.002180099,-0.006803513,0.001379013,0,
00:09.9,0.002180099,-0.006803513,0.001379013,0,
