Elapsed_Time,EMG1,EMG2,EMG3,BioRadio Event,Unnamed: 5
00:00:00,-0.001945496,0.000944138,-0.001670837,0,
00:00.0,-0.001951218,0.000984192,-0.001688004,0,
00:00.0,-0.001968384,0.000972748,-0.001768112,0,
00:00.0,-0.001934052,0.000961304,-0.001722336,0,
00:00.0,-0.001911163,0.000921249,-0.001642227,0,
00:00.0,-0.001882553,0.000938416,-0.001670837,0,
00:00.0,-0.001893997,0.00094986,-0.001653671,0,
00:00.0,-0.001939774,0.000972748,-0.001642227,0,
00:00.0,-0.00195694,0.000972748,-0.001688004,0,
00:00.0,-0.001939774,0.000995636,-0.001722336,0,
00:00.0,-0.001893997,0.000995636,-0.001739502,0,
00:00.0,-0.001899719,0.000909805,-0.001670837,0,
00:00.0,-0.001922607,0.000961304,-0.001688004,0,
00:00.1,-0.00195694,0.000984192,-0.001693726,0,
00:00.1,-0.001928329,0.000926971,-0.001756668,0,
00:00.1,-0.001916885,0.000955582,-0.001710892,0,
00:00.1,-0.001922607,0.000967026,-0.001682281,0,
00:00.1,-0.001934052,0.000961304,-0.001682281,0,
00:00.1,-0.001951218,0.000932693,-0.001728058,0,
00:00.1,-0.001893997,0.000961304,-0.001665115,0,
00:00.1,-0.001905441,0.00097847,-0.001665115,0,
00:00.1,-0.001939774,0.000932693,-0.001670837,0,
00:00.1,-0.00195694,0.000898361,-0.001699448,0,
00:00.1,-0.001922607,0.00097847,-0.001693726,0,
00:00.1,-0.001911163,0.000972748,-0.001682281,0,
00:00.1,-0.001939774,0.000932693,-0.001659393,0,
00:00.1,-0.001974106,0.000984192,-0.001699448,0,
00:00.1,-0.001928329,0.000967026,-0.001682281,0,
00:00.1,-0.001893997,0.000967026,-0.001676559,0,
00:00.1,-0.001934052,0.000938416,-0.00170517,0,
00:00.1,-0.001916885,0.000909805,-0.001699448,0,
00:00.1,-0.001905441,0.000938416,-0.001659393,0,
00:00.1,-0.001928329,0.000961304,-0.001688004,0,
00:00.1,-0.001934052,0.000955582,-0.001728058,0,
00:00.1,-0.001905441,0.000984192,-0.001688004,0,
00:00.1,-0.001939774,0.000972748,-0.001665115,0,
00:00.1,-0.001979828,0.000904083,-0.00176239,0,
00:00.1,-0.001882553,0.000955582,-0.001693726,0,
00:00.2,-0.001888275,0.00100708,-0.001630783,0,
00:00.2,-0.001934052,0.000984192,-0.001722336,0,
00:00.2,-0.001945496,0.000932693,-0.001722336,0,
00:00.2,-0.001928329,0.00094986,-0.001676559,0,
00:00.2,-0.001911163,0.000932693,-0.001630783,0,
00:00.2,-0.001922607,0.00094986,-0.001670837,0,
00:00.2,-0.001928329,0.001001358,-0.001653671,0,
00:00.2,-0.001928329,0.001041412,-0.00170517,0,
00:00.2,-0.001951218,0.000955582,-0.00176239,0,
00:00.2,-0.001911163,0.000938416,-0.001693726,0,
00:00.2,-0.001911163,0.00094986,-0.001636505,0,
00:00.2,-0.001916885,0.000944138,-0.001659393,0,
00:00.2,-0.001928329,0.000938416,-0.001659393,0,
00:00.2,-0.001911163,0.000955582,-0.001710892,0,
00:00.2,-0.001928329,0.00097847,-0.001716614,0,
00:00.2,-0.00195694,0.000967026,-0.001728058,0,
00:00.2,-0.001916885,0.000961304,-0.001653671,0,
00:00.2,-0.001888275,0.000938416,-0.001653671,0,
00:00.2,-0.001911163,0.000944138,-0.001670837,0,
00:00.2,-0.001922607,0.000989914,-0.001682281,0,
00:00.2,-0.001922607,0.000961304,-0.001745224,0,
00:00.2,-0.001962662,0.000915527,-0.001693726,0,
00:00.2,-0.001911163,0.00094986,-0.001699448,0,
00:00.2,-0.001905441,0.001018524,-0.001670837,0,
00:00.2,-0.001916885,0.00097847,-0.00170517,0,
00:00.3,-0.001939774,0.000938416,-0.001699448,0,
00:00.3,-0.001922607,0.000961304,-0.001636505,0,
00:00.3,-0.001911163,0.000967026,-0.001647949,0,
00:00.3,-0.001951218,0.000984192,-0.001688004,0,
00:00.3,-0.001939774,0.000932693,-0.001676559,0,
00:00.3,-0.001934052,0.000904083,-0.00170517,0,
00:00.3,-0.001916885,0.000972748,-0.00173378,0,
00:00.3,-0.001916885,0.001012802,-0.001710892,0,
00:00.3,-0.001934052,0.000938416,-0.001676559,0,
00:00.3,-0.001934052,0.000967026,-0.001647949,0,
00:00.3,-0.001905441,0.000926971,-0.001682281,0,
00:00.3,-0.001893997,0.000926971,-0.001728058,0,
00:00.3,-0.001911163,0.000932693,-0.00170517,0,
00:00.3,-0.001922607,0.000961304,-0.001653671,0,
00:00.3,-0.001996994,0.000909805,-0.00170517,0,
00:00.3,-0.001979828,0.000898361,-0.001676559,0,
00:00.3,-0.001893997,0.000955582,-0.001688004,0,
00:00.3,-0.001905441,0.001029968,-0.001688004,0,
00:00.3,-0.001893997,0.000961304,-0.001722336,0,
00:00.3,-0.001928329,0.000921249,-0.001745224,0,
00:00.3,-0.001899719,0.000932693,-0.001647949,0,
00:00.3,-0.001911163,0.000932693,-0.001630783,0,
00:00.3,-0.001945496,0.000938416,-0.001670837,0,
00:00.3,-0.001945496,0.000938416,-0.001676559,0,
00:00.3,-0.001928329,0.00094986,-0.001699448,0,
00:00.4,-0.001893997,0.00094986,-0.001728058,0,
00:00.4,-0.001899719,0.000967026,-0.001710892,0,
00:00.4,-0.001911163,0.00094986,-0.001688004,0,
00:00.4,-0.001934052,0.00094986,-0.001676559,0,
00:00.4,-0.001939774,0.000898361,-0.001665115,0,
00:00.4,-0.00195694,0.000909805,-0.001670837,0,
00:00.4,-0.001928329,0.000955582,-0.001688004,0,
00:00.4,-0.001859665,0.001018524,-0.001693726,0,
00:00.4,-0.001893997,0.000921249,-0.001688004,0,
00:00.4,-0.001934052,0.000932693,-0.001676559,0,
00:00.4,-0.001962662,0.000926971,-0.00173378,0,
00:00.4,-0.001974106,0.000932693,-0.001756668,0,
00:00.4,-0.001916885,0.000989914,-0.001716614,0,
00:00.4,-0.001842499,0.001024246,-0.001699448,0,
00:00.4,-0.001876831,0.000984192,-0.001665115,0,
00:00.4,-0.001916885,0.000938416,-0.001613617,0,
00:00.4,-0.001928329,0.000915527,-0.001653671,0,
00:00.4,-0.001934052,0.000955582,-0.001693726,0,
00:00.4,-0.001951218,0.000944138,-0.001699448,0,
00:00.4,-0.001928329,0.000955582,-0.001710892,0,
00:00.4,-0.001951218,0.000915527,-0.001682281,0,
00:00.4,-0.001928329,0.000967026,-0.001688004,0,
00:00.4,-0.001899719,0.000967026,-0.001693726,0,
00:00.4,-0.001905441,0.000926971,-0.001676559,0,
00:00.4,-0.001916885,0.000944138,-0.001756668,0,
00:00.5,-0.001934052,0.00097847,-0.001676559,0,
00:00.5,-0.001928329,0.000944138,-0.001636505,0,
00:00.5,-0.001939774,0.000904083,-0.001670837,0,
00:00.5,-0.001991272,0.000909805,-0.001722336,0,
00:00.5,-0.001928329,0.000926971,-0.00170517,0,
00:00.5,-0.001905441,0.000955582,-0.001728058,0,
00:00.5,-0.001899719,0.001024246,-0.001773834,0,
00:00.5,-0.001928329,0.000961304,-0.001642227,0,
00:00.5,-0.001893997,0.000938416,-0.001619339,0,
00:00.5,-0.001945496,0.000915527,-0.001682281,0,
00:00.5,-0.001934052,0.000926971,-0.001693726,0,
00:00.5,-0.001899719,0.000944138,-0.001699448,0,
00:00.5,-0.001893997,0.000972748,-0.001710892,0,
00:00.5,-0.001922607,0.00094986,-0.001716614,0,
00:00.5,-0.001916885,0.000955582,-0.001688004,0,
00:00.5,-0.001928329,0.000955582,-0.001750946,0,
00:00.5,-0.001939774,0.000989914,-0.00176239,0,
00:00.5,-0.00195694,0.000984192,-0.001659393,0,
00:00.5,-0.001951218,0.000926971,-0.001716614,0,
00:00.5,-0.001922607,0.000904083,-0.001642227,0,
00:00.5,-0.001916885,0.000932693,-0.00170517,0,
00:00.5,-0.001888275,0.000967026,-0.001676559,0,
00:00.5,-0.001916885,0.000944138,-0.001647949,0,
00:00.5,-0.001928329,0.000921249,-0.001693726,0,
00:00.5,-0.001911163,0.000938416,-0.001722336,0,
00:00.6,-0.001928329,0.000921249,-0.001676559,0,
00:00.6,-0.001945496,0.000921249,-0.001688004,0,
00:00.6,-0.001922607,0.000972748,-0.001699448,0,
00:00.6,-0.001922607,0.001001358,-0.00176239,0,
00:00.6,-0.001934052,0.000972748,-0.001779556,0,
00:00.6,-0.001922607,0.000955582,-0.001676559,0,
00:00.6,-0.001916885,0.00094986,-0.001670837,0,
00:00.6,-0.001928329,0.00094986,-0.001716614,0,
00:00.6,-0.001911163,0.000938416,-0.001682281,0,
00:00.6,-0.001916885,0.00094986,-0.001665115,0,
00:00.6,-0.001911163,0.000921249,-0.001745224,0,
00:00.6,-0.001916885,0.000932693,-0.001699448,0,
00:00.6,-0.001911163,0.00094986,-0.001693726,0,
00:00.6,-0.001939774,0.000984192,-0.001688004,0,
00:00.6,-0.001928329,0.000972748,-0.001716614,0,
00:00.6,-0.001928329,0.000926971,-0.001728058,0,
00:00.6,-0.001945496,0.000932693,-0.001756668,0,
00:00.6,-0.001939774,0.000915527,-0.001728058,0,
00:00.6,-0.001934052,0.000955582,-0.001785278,0,
00:00.6,-0.001922607,0.00097847,-0.001659393,0,
00:00.6,-0.001922607,0.000944138,-0.001670837,0,
00:00.6,-0.001916885,0.000938416,-0.001710892,0,
00:00.6,-0.001911163,0.000932693,-0.001647949,0,
00:00.6,-0.001928329,0.000932693,-0.001688004,0,
00:00.6,-0.001968384,0.000932693,-0.00170517,0,
00:00.7,-0.002002716,0.000938416,-0.001745224,0,
00:00.7,-0.001882553,0.001001358,-0.00173378,0,
00:00.7,-0.001848221,0.00100708,-0.001739502,0,
00:00.7,-0.001939774,0.000915527,-0.001670837,0,
00:00.7,-0.001945496,0.000915527,-0.001722336,0,
00:00.7,-0.001939774,0.000961304,-0.001682281,0,
00:00.7,-0.001905441,0.000967026,-0.001693726,0,
00:00.7,-0.001916885,0.000938416,-0.00170517,0,
00:00.7,-0.001951218,0.000967026,-0.001728058,0,
00:00.7,-0.001951218,0.000961304,-0.001756668,0,
00:00.7,-0.001928329,0.000961304,-0.001745224,0,
00:00.7,-0.001974106,0.000932693,-0.001676559,0,
00:00.7,-0.001905441,0.000989914,-0.001716614,0,
00:00.7,-0.001888275,0.000944138,-0.001750946,0,
00:00.7,-0.001899719,0.000909805,-0.001710892,0,
00:00.7,-0.001928329,0.000944138,-0.001682281,0,
00:00.7,-0.001939774,0.000915527,-0.001699448,0,
00:00.7,-0.001928329,0.000938416,-0.001682281,0,
00:00.7,-0.001962662,0.000972748,-0.001768112,0,
00:00.7,-0.001979828,0.000961304,-0.001756668,0,
00:00.7,-0.001893997,0.001052856,-0.00173378,0,
00:00.7,-0.001888275,0.001064301,-0.001756668,0,
00:00.7,-0.001922607,0.000989914,-0.001659393,0,
00:00.7,-0.001934052,0.000972748,-0.001659393,0,
00:00.7,-0.001928329,0.000926971,-0.001728058,0,
00:00.8,-0.001911163,0.000995636,-0.001739502,0,
00:00.8,-0.001934052,0.00097847,-0.001693726,0,
00:00.8,-0.001916885,0.001018524,-0.00173378,0,
00:00.8,-0.001899719,0.001058578,-0.001796722,0,
00:00.8,-0.001934052,0.001001358,-0.00173378,0,
00:00.8,-0.00195694,0.000967026,-0.001699448,0,
00:00.8,-0.001945496,0.000989914,-0.001728058,0,
00:00.8,-0.001922607,0.000984192,-0.001676559,0,
00:00.8,-0.001922607,0.00097847,-0.001682281,0,
00:00.8,-0.001899719,0.00100708,-0.001716614,0,
00:00.8,-0.001934052,0.001018524,-0.001722336,0,
00:00.8,-0.001968384,0.000961304,-0.001750946,0,
00:00.8,-0.001928329,0.00100708,-0.001716614,0,
00:00.8,-0.001951218,0.001052856,-0.00173378,0,
00:00.8,-0.001916885,0.000984192,-0.001710892,0,
00:00.8,-0.001882553,0.000995636,-0.00170517,0,
00:00.8,-0.001916885,0.00100708,-0.001722336,0,
00:00.8,-0.00195694,0.001018524,-0.001768112,0,
00:00.8,-0.001968384,0.001029968,-0.00176239,0,
00:00.8,-0.001899719,0.001029968,-0.001699448,0,
00:00.8,-0.001899719,0.000972748,-0.001693726,0,
00:00.8,-0.001928329,0.000972748,-0.001716614,0,
00:00.8,-0.001928329,0.001018524,-0.001819611,0,
00:00.8,-0.001939774,0.00100708,-0.001745224,0,
00:00.8,-0.001945496,0.000967026,-0.00170517,0,
00:00.9,-0.001951218,0.001001358,-0.001716614,0,
00:00.9,-0.001945496,0.001041412,-0.001693726,0,
00:00.9,-0.001934052,0.001012802,-0.001728058,0,
00:00.9,-0.001962662,0.00100708,-0.00173378,0,
00:00.9,-0.001922607,0.001018524,-0.001716614,0,
00:00.9,-0.001922607,0.00097847,-0.001716614,0,
00:00.9,-0.001945496,0.00097847,-0.001716614,0,
00:00.9,-0.001945496,0.001018524,-0.00173378,0,
00:00.9,-0.001951218,0.001001358,-0.001745224,0,
00:00.9,-0.00195694,0.001012802,-0.001739502,0,
00:00.9,-0.001922607,0.00103569,-0.001745224,0,
00:00.9,-0.001922607,0.001012802,-0.001722336,0,
00:00.9,-0.001911163,0.000961304,-0.001739502,0,
00:00.9,-0.001945496,0.00097847,-0.00173378,0,
00:00.9,-0.001922607,0.000995636,-0.001779556,0,
00:00.9,-0.001934052,0.001018524,-0.001773834,0,
00:00.9,-0.001922607,0.00097847,-0.001710892,0,
00:00.9,-0.001922607,0.000972748,-0.001785278,0,
00:00.9,-0.001922607,0.001012802,-0.001722336,0,
00:00.9,-0.00195694,0.001018524,-0.001710892,0,
00:00.9,-0.001962662,0.00103569,-0.001728058,0,
00:00.9,-0.001939774,0.001001358,-0.001693726,0,
00:00.9,-0.001934052,0.000961304,-0.001750946,0,
00:00.9,-0.001928329,0.00097847,-0.001750946,0,
00:00.9,-0.001974106,0.00100708,-0.001728058,0,
00:01.0,-0.002002716,0.001001358,-0.001750946,0,
00:01.0,-0.001899719,0.00103569,-0.001722336,0,
00:01.0,-0.001905441,0.001001358,-0.00173378,0,
00:01.0,-0.001951218,0.00100708,-0.001739502,0,
00:01.0,-0.001934052,0.000989914,-0.001745224,0,
00:01.0,-0.001939774,0.00097847,-0.001750946,0,
00:01.0,-0.001916885,0.000995636,-0.001688004,0,
00:01.0,-0.001928329,0.000995636,-0.001739502,0,
00:01.0,-0.001951218,0.00097847,-0.00176239,0,
00:01.0,-0.001939774,0.001018524,-0.001756668,0,
00:01.0,-0.001922607,0.001001358,-0.00176239,0,
00:01.0,-0.001922607,0.000989914,-0.001756668,0,
00:00:01,-0.001934052,0.000995636,-0.001750946,0,
00:01.0,-0.001991272,0.000972748,-0.001710892,0,
00:01.0,-0.001928329,0.001001358,-0.001739502,0,
00:01.0,-0.001916885,0.001024246,-0.001756668,0,
00:01.0,-0.00195694,0.001018524,-0.001716614,0,
00:01.0,-0.001962662,0.001001358,-0.001773834,0,
00:01.0,-0.001928329,0.001001358,-0.001722336,0,
00:01.0,-0.001934052,0.000995636,-0.00176239,0,
00:01.0,-0.001916885,0.001012802,-0.001773834,0,
00:01.0,-0.00195694,0.000995636,-0.001779556,0,
00:01.0,-0.001945496,0.001012802,-0.001716614,0,
00:01.0,-0.001922607,0.001018524,-0.00170517,0,
00:01.0,-0.001939774,0.001024246,-0.001722336,0,
00:01.1,-0.001945496,0.000938416,-0.001756668,0,
00:01.1,-0.001928329,0.00094986,-0.001722336,0,
00:01.1,-0.001934052,0.000984192,-0.00176239,0,
00:01.1,-0.00195694,0.000984192,-0.001773834,0,
00:01.1,-0.001951218,0.000989914,-0.001722336,0,
00:01.1,-0.001934052,0.000995636,-0.00176239,0,
00:01.1,-0.001951218,0.00103569,-0.001859665,0,
00:01.1,-0.001928329,0.000967026,-0.001745224,0,
00:01.1,-0.001928329,0.00097847,-0.001688004,0,
00:01.1,-0.001928329,0.001001358,-0.00170517,0,
00:01.1,-0.001951218,0.000995636,-0.001722336,0,
00:01.1,-0.001911163,0.001012802,-0.00173378,0,
00:01.1,-0.001934052,0.00097847,-0.001745224,0,
00:01.1,-0.001928329,0.001001358,-0.001750946,0,
00:01.1,-0.001934052,0.001024246,-0.001808167,0,
00:01.1,-0.001951218,0.00103569,-0.001779556,0,
00:01.1,-0.001945496,0.001001358,-0.001779556,0,
00:01.1,-0.001905441,0.001001358,-0.00170517,0,
00:01.1,-0.001951218,0.00094986,-0.00173378,0,
00:01.1,-0.001979828,0.000955582,-0.001785278,0,
00:01.1,-0.001962662,0.001001358,-0.001750946,0,
00:01.1,-0.001951218,0.001001358,-0.001745224,0,
00:01.1,-0.001928329,0.00094986,-0.001722336,0,
00:01.1,-0.001905441,0.00097847,-0.001756668,0,
00:01.1,-0.001928329,0.000995636,-0.001745224,0,
00:01.2,-0.001934052,0.000984192,-0.001785278,0,
00:01.2,-0.001945496,0.000967026,-0.001773834,0,
00:01.2,-0.001928329,0.000995636,-0.001756668,0,
00:01.2,-0.001922607,0.001012802,-0.001791,0,
00:01.2,-0.001939774,0.000984192,-0.001739502,0,
00:01.2,-0.001962662,0.000995636,-0.001773834,0,
00:01.2,-0.001951218,0.00103569,-0.001785278,0,
00:01.2,-0.001922607,0.001052856,-0.001728058,0,
00:01.2,-0.001934052,0.001024246,-0.00173378,0,
00:01.2,-0.001968384,0.000961304,-0.001768112,0,
00:01.2,-0.001974106,0.000967026,-0.001756668,0,
00:01.2,-0.001916885,0.001047134,-0.001722336,0,
00:01.2,-0.001899719,0.001024246,-0.001750946,0,
00:01.2,-0.001928329,0.000972748,-0.001785278,0,
00:01.2,-0.001928329,0.00097847,-0.001750946,0,
00:01.2,-0.001934052,0.000989914,-0.001739502,0,
00:01.2,-0.001911163,0.001029968,-0.001722336,0,
00:01.2,-0.001922607,0.000995636,-0.001745224,0,
00:01.2,-0.001928329,0.000961304,-0.001773834,0,
00:01.2,-0.001928329,0.000995636,-0.001813889,0,
00:01.2,-0.001945496,0.000989914,-0.001773834,0,
00:01.2,-0.001951218,0.000995636,-0.001796722,0,
00:01.2,-0.001928329,0.001001358,-0.001728058,0,
00:01.2,-0.001922607,0.001029968,-0.001768112,0,
00:01.2,-0.001939774,0.000972748,-0.001813889,0,
00:01.3,-0.001939774,0.000989914,-0.001750946,0,
00:01.3,-0.001945496,0.000967026,-0.001779556,0,
00:01.3,-0.001939774,0.001001358,-0.00173378,0,
00:01.3,-0.001911163,0.001064301,-0.001773834,0,
00:01.3,-0.001922607,0.001018524,-0.001722336,0,
00:01.3,-0.001939774,0.000967026,-0.001728058,0,
00:01.3,-0.001962662,0.000984192,-0.00176239,0,
00:01.3,-0.001945496,0.001001358,-0.00176239,0,
00:01.3,-0.001928329,0.000995636,-0.001768112,0,
00:01.3,-0.001922607,0.001024246,-0.001756668,0,
00:01.3,-0.001934052,0.001024246,-0.001779556,0,
00:01.3,-0.001962662,0.001012802,-0.001785278,0,
00:01.3,-0.00198555,0.000967026,-0.001768112,0,
00:01.3,-0.001951218,0.00100708,-0.00176239,0,
00:01.3,-0.001939774,0.000995636,-0.001722336,0,
00:01.3,-0.001939774,0.000972748,-0.00176239,0,
00:01.3,-0.001911163,0.00100708,-0.001813889,0,
00:01.3,-0.001928329,0.001024246,-0.001773834,0,
00:01.3,-0.001934052,0.001024246,-0.001710892,0,
00:01.3,-0.001934052,0.000995636,-0.001785278,0,
00:01.3,-0.001945496,0.000967026,-0.001796722,0,
00:01.3,-0.00195694,0.000961304,-0.001768112,0,
00:01.3,-0.001922607,0.001012802,-0.001768112,0,
00:01.3,-0.001939774,0.00100708,-0.001750946,0,
00:01.3,-0.001962662,0.001041412,-0.001716614,0,
00:01.4,-0.001934052,0.001018524,-0.001779556,0,
00:01.4,-0.001911163,0.001012802,-0.00176239,0,
00:01.4,-0.001939774,0.001018524,-0.001739502,0,
00:01.4,-0.001951218,0.001001358,-0.001750946,0,
00:01.4,-0.001968384,0.00100708,-0.001785278,0,
00:01.4,-0.001945496,0.001012802,-0.00176239,0,
00:01.4,-0.001934052,0.00100708,-0.001756668,0,
00:01.4,-0.001934052,0.000995636,-0.001842499,0,
00:01.4,-0.001934052,0.001024246,-0.001808167,0,
00:01.4,-0.001939774,0.00094986,-0.001710892,0,
00:01.4,-0.001928329,0.000989914,-0.001728058,0,
00:01.4,-0.001928329,0.001012802,-0.001768112,0,
00:01.4,-0.001962662,0.001001358,-0.001779556,0,
00:01.4,-0.001974106,0.000961304,-0.001831055,0,
00:01.4,-0.001905441,0.00100708,-0.001750946,0,
00:01.4,-0.001928329,0.001041412,-0.001710892,0,
00:01.4,-0.001939774,0.000989914,-0.001773834,0,
00:01.4,-0.001934052,0.000984192,-0.001831055,0,
00:01.4,-0.001939774,0.001018524,-0.001791,0,
00:01.4,-0.001968384,0.001001358,-0.001745224,0,
00:01.4,-0.001962662,0.00097847,-0.001756668,0,
00:01.4,-0.001934052,0.00100708,-0.00176239,0,
00:01.4,-0.001939774,0.001012802,-0.001768112,0,
00:01.4,-0.001916885,0.000989914,-0.001768112,0,
00:01.4,-0.001945496,0.000984192,-0.001750946,0,
00:01.5,-0.00195694,0.000995636,-0.001773834,0,
00:01.5,-0.001951218,0.000984192,-0.001831055,0,
00:01.5,-0.001962662,0.000972748,-0.001768112,0,
00:01.5,-0.001945496,0.001001358,-0.001773834,0,
00:01.5,-0.001911163,0.001064301,-0.001773834,0,
00:01.5,-0.001916885,0.001012802,-0.001773834,0,
00:01.5,-0.001934052,0.000984192,-0.001802444,0,
00:01.5,-0.001911163,0.00097847,-0.001756668,0,
00:01.5,-0.001922607,0.000984192,-0.001773834,0,
00:01.5,-0.001945496,0.001024246,-0.001796722,0,
00:01.5,-0.001951218,0.00100708,-0.001802444,0,
00:01.5,-0.001939774,0.00097847,-0.00176239,0,
00:01.5,-0.001951218,0.000972748,-0.001802444,0,
00:01.5,-0.001934052,0.000989914,-0.001796722,0,
00:01.5,-0.001979828,0.001018524,-0.001779556,0,
00:01.5,-0.00195694,0.000989914,-0.001768112,0,
00:01.5,-0.001928329,0.000972748,-0.001750946,0,
00:01.5,-0.001939774,0.000989914,-0.001802444,0,
00:01.5,-0.001962662,0.00097847,-0.001819611,0,
00:01.5,-0.001962662,0.00097847,-0.001785278,0,
00:01.5,-0.001945496,0.000984192,-0.001756668,0,
00:01.5,-0.00195694,0.00100708,-0.001773834,0,
00:01.5,-0.001951218,0.001029968,-0.001768112,0,
00:01.5,-0.001916885,0.000989914,-0.001773834,0,
00:01.5,-0.001905441,0.001001358,-0.001796722,0,
00:01.6,-0.001922607,0.001012802,-0.001750946,0,
00:01.6,-0.001934052,0.000989914,-0.001773834,0,
00:01.6,-0.001945496,0.00100708,-0.001802444,0,
00:01.6,-0.001928329,0.00100708,-0.001876831,0,
00:01.6,-0.001945496,0.00100708,-0.001842499,0,
00:01.6,-0.001934052,0.000984192,-0.00173378,0,
00:01.6,-0.001916885,0.000961304,-0.001756668,0,
00:01.6,-0.001974106,0.001012802,-0.00176239,0,
00:01.6,-0.001922607,0.001041412,-0.001785278,0,
00:01.6,-0.001939774,0.000989914,-0.001739502,0,
00:01.6,-0.001945496,0.000967026,-0.001808167,0,
00:01.6,-0.001939774,0.000995636,-0.001745224,0,
00:01.6,-0.001951218,0.001018524,-0.00176239,0,
00:01.6,-0.00198555,0.001001358,-0.001779556,0,
00:01.6,-0.001962662,0.000984192,-0.001768112,0,
00:01.6,-0.001876831,0.001018524,-0.001785278,0,
00:01.6,-0.001922607,0.000995636,-0.001802444,0,
00:01.6,-0.001922607,0.000989914,-0.001813889,0,
00:01.6,-0.001899719,0.001012802,-0.001791,0,
00:01.6,-0.001934052,0.001001358,-0.001768112,0,
00:01.6,-0.001934052,0.000989914,-0.001808167,0,
00:01.6,-0.00195694,0.001047134,-0.001842499,0,
00:01.6,-0.00198555,0.000995636,-0.001836777,0,
00:01.6,-0.001888275,0.000972748,-0.001865387,0,
00:01.6,-0.001911163,0.00097847,-0.001722336,0,
00:01.7,-0.001922607,0.000989914,-0.001710892,0,
00:01.7,-0.00195694,0.000961304,-0.001808167,0,
00:01.7,-0.001945496,0.00100708,-0.001825333,0,
00:01.7,-0.001951218,0.000995636,-0.001739502,0,
00:01.7,-0.001934052,0.00097847,-0.001825333,0,
00:01.7,-0.001911163,0.000984192,-0.001796722,0,
00:01.7,-0.001951218,0.001047134,-0.00173378,0,
00:01.7,-0.001922607,0.001047134,-0.001768112,0,
00:01.7,-0.001928329,0.000972748,-0.001779556,0,
00:01.7,-0.001939774,0.000995636,-0.001836777,0,
00:01.7,-0.001922607,0.000984192,-0.001848221,0,
00:01.7,-0.001922607,0.000989914,-0.001773834,0,
00:01.7,-0.001939774,0.00103569,-0.00176239,0,
00:01.7,-0.001945496,0.001001358,-0.001785278,0,
00:01.7,-0.001911163,0.00097847,-0.001779556,0,
00:01.7,-0.001928329,0.00100708,-0.001825333,0,
00:01.7,-0.001951218,0.001047134,-0.001831055,0,
00:01.7,-0.00195694,0.001018524,-0.001842499,0,
00:01.7,-0.001945496,0.000995636,-0.001825333,0,
00:01.7,-0.001934052,0.00097847,-0.001722336,0,
00:01.7,-0.001882553,0.000984192,-0.001779556,0,
00:01.7,-0.001922607,0.000995636,-0.001802444,0,
00:01.7,-0.001928329,0.000989914,-0.001779556,0,
00:01.7,-0.001928329,0.00097847,-0.001756668,0,
00:01.7,-0.001934052,0.000989914,-0.001791,0,
00:01.8,-0.001922607,0.00100708,-0.001819611,0,
00:01.8,-0.001962662,0.000995636,-0.001785278,0,
00:01.8,-0.001974106,0.001024246,-0.001785278,0,
00:01.8,-0.001979828,0.001041412,-0.001848221,0,
00:01.8,-0.001945496,0.000989914,-0.001848221,0,
00:01.8,-0.001882553,0.001058578,-0.001842499,0,
00:01.8,-0.001922607,0.001127243,-0.001808167,0,
00:01.8,-0.001911163,0.001001358,-0.00176239,0,
00:01.8,-0.001916885,0.000944138,-0.001836777,0,
00:01.8,-0.001905441,0.000972748,-0.001802444,0,
00:01.8,-0.001911163,0.000989914,-0.001756668,0,
00:01.8,-0.001922607,0.00100708,-0.001791,0,
00:01.8,-0.001951218,0.000989914,-0.001768112,0,
00:01.8,-0.001951218,0.000989914,-0.001796722,0,
00:01.8,-0.001951218,0.001012802,-0.001819611,0,
00:01.8,-0.001951218,0.000972748,-0.001779556,0,
00:01.8,-0.001962662,0.000984192,-0.001813889,0,
00:01.8,-0.001928329,0.001070023,-0.001945496,0,
00:01.8,-0.001922607,0.00100708,-0.001779556,0,
00:01.8,-0.001934052,0.00100708,-0.001750946,0,
00:01.8,-0.001922607,0.001001358,-0.001802444,0,
00:01.8,-0.001928329,0.00100708,-0.001819611,0,
00:01.8,-0.001928329,0.001012802,-0.00176239,0,
00:01.8,-0.001922607,0.001012802,-0.001825333,0,
00:01.8,-0.001905441,0.001018524,-0.001819611,0,
00:01.9,-0.001922607,0.001001358,-0.001831055,0,
00:01.9,-0.001934052,0.000995636,-0.001785278,0,
00:01.9,-0.001928329,0.001064301,-0.001802444,0,
00:01.9,-0.001905441,0.001052856,-0.001819611,0,
00:01.9,-0.001916885,0.001052856,-0.001836777,0,
00:01.9,-0.001974106,0.000995636,-0.001785278,0,
00:01.9,-0.001962662,0.000926971,-0.001791,0,
00:01.9,-0.001905441,0.000972748,-0.001796722,0,
00:01.9,-0.001939774,0.001001358,-0.001831055,0,
00:01.9,-0.00198555,0.000989914,-0.001848221,0,
00:01.9,-0.001974106,0.000995636,-0.001796722,0,
00:01.9,-0.001922607,0.001001358,-0.001779556,0,
00:01.9,-0.001939774,0.000995636,-0.001813889,0,
00:01.9,-0.001928329,0.00100708,-0.001819611,0,
00:01.9,-0.001922607,0.001018524,-0.001813889,0,
00:01.9,-0.001939774,0.000989914,-0.001836777,0,
00:01.9,-0.001916885,0.000989914,-0.001848221,0,
00:01.9,-0.001905441,0.001012802,-0.001853943,0,
00:01.9,-0.001922607,0.001024246,-0.001842499,0,
00:01.9,-0.001934052,0.001024246,-0.001768112,0,
00:01.9,-0.001934052,0.001024246,-0.001848221,0,
00:01.9,-0.001934052,0.00100708,-0.001842499,0,
00:01.9,-0.001939774,0.001012802,-0.001756668,0,
00:01.9,-0.00195694,0.001018524,-0.001819611,0,
00:01.9,-0.001951218,0.001029968,-0.001836777,0,
00:02.0,-0.001928329,0.001052856,-0.001813889,0,
00:02.0,-0.001916885,0.001052856,-0.001842499,0,
00:02.0,-0.001934052,0.000972748,-0.001779556,0,
00:02.0,-0.001962662,0.000995636,-0.001808167,0,
00:02.0,-0.001939774,0.001001358,-0.001779556,0,
00:02.0,-0.001939774,0.00100708,-0.001813889,0,
00:02.0,-0.001939774,0.001024246,-0.001831055,0,
00:02.0,-0.001928329,0.001070023,-0.001808167,0,
00:02.0,-0.001905441,0.001064301,-0.001848221,0,
00:02.0,-0.001928329,0.000995636,-0.001842499,0,
00:02.0,-0.00195694,0.000984192,-0.001779556,0,
00:02.0,-0.001922607,0.001041412,-0.001819611,0,
00:00:02,-0.001928329,0.00100708,-0.001842499,0,
00:02.0,-0.001928329,0.001012802,-0.001802444,0,
00:02.0,-0.001911163,0.00100708,-0.001848221,0,
00:02.0,-0.001962662,0.001012802,-0.001842499,0,
00:02.0,-0.001962662,0.001029968,-0.001808167,0,
00:02.0,-0.001951218,0.00097847,-0.001876831,0,
00:02.0,-0.001968384,0.00100708,-0.001893997,0,
00:02.0,-0.001893997,0.001081467,-0.001802444,0,
00:02.0,-0.001922607,0.001024246,-0.001785278,0,
00:02.0,-0.001939774,0.001047134,-0.001825333,0,
00:02.0,-0.001905441,0.000989914,-0.001796722,0,
00:02.0,-0.001928329,0.000995636,-0.001796722,0,
00:02.0,-0.001962662,0.000995636,-0.001808167,0,
00:02.1,-0.001934052,0.001001358,-0.001853943,0,
00:02.1,-0.001928329,0.001018524,-0.001825333,0,
00:02.1,-0.001951218,0.001024246,-0.001836777,0,
00:02.1,-0.001979828,0.001064301,-0.001859665,0,
00:02.1,-0.001888275,0.001058578,-0.001848221,0,
00:02.1,-0.001888275,0.001001358,-0.001905441,0,
00:02.1,-0.001934052,0.00100708,-0.001750946,0,
00:02.1,-0.001905441,0.001012802,-0.00176239,0,
00:02.1,-0.00195694,0.00097847,-0.001859665,0,
00:02.1,-0.001951218,0.001012802,-0.001888275,0,
00:02.1,-0.001945496,0.001001358,-0.001808167,0,
00:02.1,-0.001928329,0.000995636,-0.001796722,0,
00:02.1,-0.001939774,0.000995636,-0.001825333,0,
00:02.1,-0.001945496,0.001012802,-0.001836777,0,
00:02.1,-0.001945496,0.001012802,-0.001876831,0,
00:02.1,-0.001939774,0.001058578,-0.001922607,0,
00:02.1,-0.001928329,0.001047134,-0.001808167,0,
00:02.1,-0.001888275,0.001024246,-0.001802444,0,
00:02.1,-0.001939774,0.001018524,-0.001871109,0,
00:02.1,-0.001945496,0.000967026,-0.001773834,0,
00:02.1,-0.001939774,0.000989914,-0.001791,0,
00:02.1,-0.001934052,0.001012802,-0.001813889,0,
00:02.1,-0.001928329,0.000989914,-0.001825333,0,
00:02.1,-0.001922607,0.000995636,-0.001836777,0,
00:02.1,-0.001945496,0.001041412,-0.001831055,0,
00:02.2,-0.001945496,0.000995636,-0.001853943,0,
00:02.2,-0.001939774,0.000989914,-0.001882553,0,
00:02.2,-0.001934052,0.00103569,-0.001836777,0,
00:02.2,-0.001968384,0.000995636,-0.001871109,0,
00:02.2,-0.002002716,0.00100708,-0.001962662,0,
00:02.2,-0.001928329,0.001029968,-0.001876831,0,
00:02.2,-0.001888275,0.001012802,-0.001756668,0,
00:02.2,-0.001893997,0.001012802,-0.001785278,0,
00:02.2,-0.001905441,0.000995636,-0.001853943,0,
00:02.2,-0.001922607,0.001024246,-0.001848221,0,
00:02.2,-0.001939774,0.001012802,-0.001813889,0,
00:02.2,-0.001951218,0.001001358,-0.001813889,0,
00:02.2,-0.001968384,0.000995636,-0.001836777,0,
00:02.2,-0.001962662,0.001012802,-0.001842499,0,
00:02.2,-0.001911163,0.001075745,-0.001876831,0,
00:02.2,-0.001945496,0.001012802,-0.001899719,0,
00:02.2,-0.001962662,0.000984192,-0.001796722,0,
00:02.2,-0.001934052,0.000984192,-0.001791,0,
00:02.2,-0.001928329,0.001012802,-0.001853943,0,
00:02.2,-0.001945496,0.001041412,-0.001871109,0,
00:02.2,-0.001905441,0.00103569,-0.001842499,0,
00:02.2,-0.001939774,0.000984192,-0.001819611,0,
00:02.2,-0.001979828,0.00097847,-0.001865387,0,
00:02.2,-0.001934052,0.000989914,-0.001865387,0,
00:02.2,-0.001922607,0.001001358,-0.001848221,0,
00:02.3,-0.001934052,0.001024246,-0.001842499,0,
00:02.3,-0.001916885,0.00103569,-0.001888275,0,
00:02.3,-0.001916885,0.001024246,-0.001836777,0,
00:02.3,-0.001888275,0.000967026,-0.001796722,0,
00:02.3,-0.001922607,0.000989914,-0.001842499,0,
00:02.3,-0.001922607,0.001041412,-0.001859665,0,
00:02.3,-0.001939774,0.001064301,-0.001893997,0,
00:02.3,-0.001945496,0.00100708,-0.001859665,0,
00:02.3,-0.001934052,0.001018524,-0.001813889,0,
00:02.3,-0.001934052,0.001024246,-0.001876831,0,
00:02.3,-0.00195694,0.000984192,-0.001813889,0,
00:02.3,-0.001945496,0.000989914,-0.001825333,0,
00:02.3,-0.001968384,0.000995636,-0.001859665,0,
00:02.3,-0.001974106,0.001018524,-0.001853943,0,
00:02.3,-0.001916885,0.001087189,-0.001905441,0,
00:02.3,-0.001893997,0.001024246,-0.001939774,0,
00:02.3,-0.001928329,0.000972748,-0.001859665,0,
00:02.3,-0.001934052,0.000989914,-0.001802444,0,
00:02.3,-0.001905441,0.00100708,-0.001853943,0,
00:02.3,-0.001916885,0.001012802,-0.001825333,0,
00:02.3,-0.001922607,0.00100708,-0.001831055,0,
00:02.3,-0.001934052,0.001001358,-0.001853943,0,
00:02.3,-0.00195694,0.001018524,-0.001842499,0,
00:02.3,-0.001979828,0.000995636,-0.001865387,0,
00:02.3,-0.001979828,0.000995636,-0.001916885,0,
00:02.4,-0.001911163,0.001029968,-0.001888275,0,
00:02.4,-0.001911163,0.00103569,-0.001813889,0,
00:02.4,-0.001888275,0.00103569,-0.001848221,0,
00:02.4,-0.001922607,0.000995636,-0.001842499,0,
00:02.4,-0.001945496,0.000995636,-0.001865387,0,
00:02.4,-0.001939774,0.001018524,-0.001882553,0,
00:02.4,-0.001893997,0.001070023,-0.001922607,0,
00:02.4,-0.001939774,0.001052856,-0.001853943,0,
00:02.4,-0.001939774,0.000989914,-0.001796722,0,
00:02.4,-0.001939774,0.000984192,-0.001848221,0,
00:02.4,-0.001928329,0.000984192,-0.001871109,0,
00:02.4,-0.001945496,0.001001358,-0.001865387,0,
00:02.4,-0.001934052,0.00100708,-0.001888275,0,
00:02.4,-0.001939774,0.001024246,-0.001842499,0,
00:02.4,-0.001962662,0.00100708,-0.001836777,0,
00:02.4,-0.001962662,0.001012802,-0.001865387,0,
00:02.4,-0.001899719,0.000995636,-0.001893997,0,
00:02.4,-0.001916885,0.000989914,-0.001831055,0,
00:02.4,-0.001905441,0.001041412,-0.001859665,0,
00:02.4,-0.001911163,0.001001358,-0.001859665,0,
00:02.4,-0.001905441,0.001047134,-0.001882553,0,
00:02.4,-0.001928329,0.001058578,-0.001945496,0,
00:02.4,-0.001962662,0.001041412,-0.001888275,0,
00:02.4,-0.001968384,0.000944138,-0.001836777,0,
00:02.4,-0.001928329,0.000984192,-0.001825333,0,
00:02.5,-0.001945496,0.000984192,-0.001848221,0,
00:02.5,-0.001928329,0.000989914,-0.001859665,0,
00:02.5,-0.001916885,0.001075745,-0.001888275,0,
00:02.5,-0.001945496,0.001104355,-0.001928329,0,
00:02.5,-0.00195694,0.00100708,-0.001905441,0,
00:02.5,-0.001916885,0.000972748,-0.001905441,0,
00:02.5,-0.001928329,0.000944138,-0.001888275,0,
00:02.5,-0.001922607,0.000995636,-0.001859665,0,
00:02.5,-0.001922607,0.001064301,-0.001842499,0,
00:02.5,-0.001922607,0.000995636,-0.001853943,0,
00:02.5,-0.001922607,0.00097847,-0.001831055,0,
00:02.5,-0.001934052,0.000984192,-0.001859665,0,
00:02.5,-0.001945496,0.000989914,-0.001871109,0,
00:02.5,-0.001962662,0.000989914,-0.001899719,0,
00:02.5,-0.001939774,0.000995636,-0.001899719,0,
00:02.5,-0.001939774,0.001001358,-0.001871109,0,
00:02.5,-0.001905441,0.001041412,-0.001882553,0,
00:02.5,-0.001911163,0.001087189,-0.002002716,0,
00:02.5,-0.001916885,0.001173019,-0.001911163,0,
00:02.5,-0.001916885,0.001138687,-0.001853943,0,
00:02.5,-0.001962662,0.000989914,-0.001831055,0,
00:02.5,-0.001916885,0.000995636,-0.001876831,0,
00:02.5,-0.001916885,0.00103569,-0.001848221,0,
00:02.5,-0.001916885,0.001047134,-0.001848221,0,
00:02.5,-0.001928329,0.001047134,-0.001893997,0,
00:02.6,-0.001974106,0.001024246,-0.001876831,0,
00:02.6,-0.001974106,0.001052856,-0.001899719,0,
00:02.6,-0.001911163,0.001161575,-0.001991272,0,
00:02.6,-0.001916885,0.001052856,-0.001836777,0,
00:02.6,-0.001916885,0.000984192,-0.001842499,0,
00:02.6,-0.001928329,0.00103569,-0.001905441,0,
00:02.6,-0.001939774,0.001029968,-0.001871109,0,
00:02.6,-0.001928329,0.001052856,-0.001882553,0,
00:02.6,-0.001922607,0.001052856,-0.001865387,0,
00:02.6,-0.001928329,0.001047134,-0.001865387,0,
00:02.6,-0.00195694,0.001041412,-0.001882553,0,
00:02.6,-0.001991272,0.001058578,-0.001888275,0,
00:02.6,-0.001991272,0.001092911,-0.001945496,0,
00:02.6,-0.001899719,0.001115799,-0.001945496,0,
00:02.6,-0.001905441,0.001075745,-0.001996994,0,
00:02.6,-0.001916885,0.001024246,-0.001813889,0,
00:02.6,-0.001911163,0.001024246,-0.001813889,0,
00:02.6,-0.001905441,0.001041412,-0.001871109,0,
00:02.6,-0.001922607,0.001052856,-0.001905441,0,
00:02.6,-0.001934052,0.001041412,-0.001842499,0,
00:02.6,-0.001945496,0.001012802,-0.001859665,0,
00:02.6,-0.00195694,0.001024246,-0.001899719,0,
00:02.6,-0.002008438,0.001024246,-0.001876831,0,
00:02.6,-0.001945496,0.00103569,-0.001882553,0,
00:02.6,-0.001905441,0.001064301,-0.001934052,0,
00:02.7,-0.001876831,0.001052856,-0.001922607,0,
00:02.7,-0.001911163,0.001081467,-0.001911163,0,
00:02.7,-0.001951218,0.001058578,-0.001888275,0,
00:02.7,-0.001951218,0.00103569,-0.001842499,0,
00:02.7,-0.001951218,0.001075745,-0.001888275,0,
00:02.7,-0.001951218,0.001041412,-0.001911163,0,
00:02.7,-0.002002716,0.001018524,-0.001893997,0,
00:02.7,-0.001928329,0.001092911,-0.001951218,0,
00:02.7,-0.001876831,0.001064301,-0.001962662,0,
00:02.7,-0.001928329,0.001018524,-0.001848221,0,
00:02.7,-0.001939774,0.00103569,-0.001859665,0,
00:02.7,-0.001951218,0.001001358,-0.001859665,0,
00:02.7,-0.001974106,0.001012802,-0.001865387,0,
00:02.7,-0.001945496,0.001070023,-0.001899719,0,
00:02.7,-0.001945496,0.001024246,-0.001905441,0,
00:02.7,-0.001939774,0.001024246,-0.001893997,0,
00:02.7,-0.001951218,0.001024246,-0.001911163,0,
00:02.7,-0.001928329,0.001029968,-0.001922607,0,
00:02.7,-0.001945496,0.001029968,-0.001888275,0,
00:02.7,-0.001934052,0.001070023,-0.001911163,0,
00:02.7,-0.001911163,0.001087189,-0.001928329,0,
00:02.7,-0.00195694,0.001064301,-0.001911163,0,
00:02.7,-0.001945496,0.00100708,-0.001916885,0,
00:02.7,-0.001934052,0.001024246,-0.001916885,0,
00:02.7,-0.001928329,0.001052856,-0.001922607,0,
00:02.8,-0.001945496,0.001087189,-0.001865387,0,
00:02.8,-0.00195694,0.001104355,-0.001899719,0,
00:02.8,-0.001928329,0.001024246,-0.001968384,0,
00:02.8,-0.001934052,0.00103569,-0.001916885,0,
00:02.8,-0.001939774,0.001041412,-0.001871109,0,
00:02.8,-0.001974106,0.001001358,-0.001876831,0,
00:02.8,-0.001968384,0.001041412,-0.001876831,0,
00:02.8,-0.001945496,0.001058578,-0.001905441,0,
00:02.8,-0.001934052,0.001024246,-0.001882553,0,
00:02.8,-0.001939774,0.001024246,-0.001888275,0,
00:02.8,-0.001911163,0.001047134,-0.001911163,0,
00:02.8,-0.001945496,0.001052856,-0.001951218,0,
00:02.8,-0.00195694,0.001052856,-0.001916885,0,
00:02.8,-0.001939774,0.001075745,-0.001882553,0,
00:02.8,-0.001922607,0.001052856,-0.001905441,0,
00:02.8,-0.001905441,0.001081467,-0.001899719,0,
00:02.8,-0.001911163,0.001012802,-0.001911163,0,
00:02.8,-0.001905441,0.001018524,-0.001928329,0,
00:02.8,-0.001939774,0.001070023,-0.001945496,0,
00:02.8,-0.00201416,0.001058578,-0.001945496,0,
00:02.8,-0.001945496,0.001041412,-0.00195694,0,
00:02.8,-0.001882553,0.001081467,-0.001945496,0,
00:02.8,-0.001934052,0.001052856,-0.001876831,0,
00:02.8,-0.001911163,0.001052856,-0.001876831,0,
00:02.8,-0.001899719,0.00100708,-0.001871109,0,
00:02.9,-0.001911163,0.00100708,-0.001922607,0,
00:02.9,-0.001928329,0.001012802,-0.001893997,0,
00:02.9,-0.001922607,0.001029968,-0.001916885,0,
00:02.9,-0.001922607,0.001047134,-0.001922607,0,
00:02.9,-0.001968384,0.00103569,-0.001911163,0,
00:02.9,-0.001934052,0.001047134,-0.001882553,0,
00:02.9,-0.001928329,0.001052856,-0.001905441,0,
00:02.9,-0.001928329,0.00100708,-0.001899719,0,
00:02.9,-0.001911163,0.001029968,-0.001939774,0,
00:02.9,-0.001928329,0.001024246,-0.001916885,0,
00:02.9,-0.001974106,0.00100708,-0.001893997,0,
00:02.9,-0.001951218,0.001029968,-0.001916885,0,
00:02.9,-0.001945496,0.001029968,-0.00195694,0,
00:02.9,-0.001928329,0.00103569,-0.001945496,0,
00:02.9,-0.001888275,0.001041412,-0.001928329,0,
00:02.9,-0.001893997,0.001092911,-0.001974106,0,
00:02.9,-0.001945496,0.001064301,-0.001945496,0,
00:02.9,-0.001951218,0.001058578,-0.001882553,0,
00:02.9,-0.001899719,0.00103569,-0.001893997,0,
00:02.9,-0.001922607,0.000984192,-0.001905441,0,
00:02.9,-0.001922607,0.001001358,-0.001876831,0,
00:02.9,-0.001928329,0.001024246,-0.001928329,0,
00:02.9,-0.001922607,0.001029968,-0.001951218,0,
00:02.9,-0.001922607,0.001018524,-0.001951218,0,
00:02.9,-0.001945496,0.000995636,-0.001893997,0,
00:03.0,-0.001945496,0.001024246,-0.001899719,0,
00:03.0,-0.001945496,0.001029968,-0.001905441,0,
00:03.0,-0.001962662,0.001024246,-0.001922607,0,
00:03.0,-0.002002716,0.001018524,-0.001922607,0,
00:03.0,-0.001951218,0.001047134,-0.001934052,0,
00:03.0,-0.001922607,0.001029968,-0.001945496,0,
00:03.0,-0.001934052,0.001001358,-0.001951218,0,
00:03.0,-0.001853943,0.001150131,-0.002054214,0,
00:03.0,-0.001865387,0.001161575,-0.00204277,0,
00:03.0,-0.001922607,0.001018524,-0.001922607,0,
00:03.0,-0.001922607,0.001018524,-0.001934052,0,
00:03.0,-0.001951218,0.001058578,-0.001819611,0,
00:00:03,-0.001968384,0.000961304,-0.001831055,0,
00:03.0,-0.00195694,0.00097847,-0.001882553,0,
00:03.0,-0.001951218,0.001001358,-0.001899719,0,
00:03.0,-0.00195694,0.001018524,-0.001939774,0,
00:03.0,-0.001951218,0.001018524,-0.001939774,0,
00:03.0,-0.001968384,0.00100708,-0.001905441,0,
00:03.0,-0.001968384,0.001012802,-0.001928329,0,
00:03.0,-0.001974106,0.001018524,-0.001939774,0,
00:03.0,-0.001974106,0.001018524,-0.00195694,0,
00:03.0,-0.001934052,0.001047134,-0.001974106,0,
00:03.0,-0.001922607,0.001064301,-0.001928329,0,
00:03.0,-0.00195694,0.001058578,-0.001945496,0,
00:03.0,-0.001888275,0.001041412,-0.001899719,0,
00:03.1,-0.001876831,0.001024246,-0.001928329,0,
00:03.1,-0.001916885,0.00100708,-0.001911163,0,
00:03.1,-0.001939774,0.00103569,-0.001939774,0,
00:03.1,-0.001945496,0.001029968,-0.002002716,0,
00:03.1,-0.001928329,0.001052856,-0.001922607,0,
00:03.1,-0.001934052,0.00103569,-0.001928329,0,
00:03.1,-0.001945496,0.001012802,-0.001905441,0,
00:03.1,-0.001939774,0.001024246,-0.001928329,0,
00:03.1,-0.001945496,0.00103569,-0.001928329,0,
00:03.1,-0.001951218,0.001070023,-0.001974106,0,
00:03.1,-0.001974106,0.001001358,-0.001945496,0,
00:03.1,-0.001951218,0.00100708,-0.001916885,0,
00:03.1,-0.001939774,0.001018524,-0.001916885,0,
00:03.1,-0.001962662,0.00103569,-0.001922607,0,
00:03.1,-0.001968384,0.001029968,-0.00198555,0,
00:03.1,-0.001945496,0.00100708,-0.001928329,0,
00:03.1,-0.001939774,0.001024246,-0.001928329,0,
00:03.1,-0.001916885,0.00103569,-0.001934052,0,
00:03.1,-0.001922607,0.001024246,-0.001962662,0,
00:03.1,-0.001939774,0.001024246,-0.001934052,0,
00:03.1,-0.001951218,0.001087189,-0.001928329,0,
00:03.1,-0.001939774,0.001047134,-0.001916885,0,
00:03.1,-0.001939774,0.000944138,-0.001911163,0,
00:03.1,-0.001928329,0.001024246,-0.001928329,0,
00:03.1,-0.001939774,0.001064301,-0.00195694,0,
00:03.2,-0.00195694,0.001064301,-0.00201416,0,
00:03.2,-0.001945496,0.001029968,-0.002002716,0,
00:03.2,-0.001888275,0.001041412,-0.001968384,0,
00:03.2,-0.001951218,0.001018524,-0.001922607,0,
00:03.2,-0.001968384,0.00100708,-0.001899719,0,
00:03.2,-0.001939774,0.001012802,-0.001888275,0,
00:03.2,-0.001928329,0.00103569,-0.001945496,0,
00:03.2,-0.00195694,0.001052856,-0.001916885,0,
00:03.2,-0.00195694,0.001029968,-0.001962662,0,
00:03.2,-0.001962662,0.001024246,-0.00195694,0,
00:03.2,-0.001979828,0.001029968,-0.001911163,0,
00:03.2,-0.00195694,0.001018524,-0.001951218,0,
00:03.2,-0.001916885,0.00103569,-0.001945496,0,
00:03.2,-0.001934052,0.001058578,-0.001928329,0,
00:03.2,-0.001951218,0.001041412,-0.00195694,0,
00:03.2,-0.001911163,0.001018524,-0.001928329,0,
00:03.2,-0.001962662,0.001012802,-0.00195694,0,
00:03.2,-0.001962662,0.001012802,-0.00195694,0,
00:03.2,-0.001916885,0.001041412,-0.001979828,0,
00:03.2,-0.001916885,0.001041412,-0.001991272,0,
00:03.2,-0.001928329,0.00103569,-0.002031326,0,
00:03.2,-0.001939774,0.001024246,-0.001893997,0,
00:03.2,-0.00195694,0.001029968,-0.001871109,0,
00:03.2,-0.001945496,0.001041412,-0.001911163,0,
00:03.2,-0.001974106,0.00103569,-0.001922607,0,
00:03.3,-0.001934052,0.001041412,-0.001922607,0,
00:03.3,-0.001922607,0.00103569,-0.001945496,0,
00:03.3,-0.001934052,0.001070023,-0.001934052,0,
00:03.3,-0.001951218,0.001047134,-0.001974106,0,
00:03.3,-0.00195694,0.001018524,-0.001945496,0,
00:03.3,-0.001979828,0.00103569,-0.001934052,0,
00:03.3,-0.001951218,0.001029968,-0.001962662,0,
00:03.3,-0.001916885,0.00100708,-0.001939774,0,
00:03.3,-0.001882553,0.001041412,-0.001945496,0,
00:03.3,-0.001928329,0.00103569,-0.002008438,0,
00:03.3,-0.001945496,0.001018524,-0.001945496,0,
00:03.3,-0.001962662,0.001058578,-0.001882553,0,
00:03.3,-0.001968384,0.001058578,-0.001991272,0,
00:03.3,-0.001962662,0.00103569,-0.002031326,0,
00:03.3,-0.001939774,0.001012802,-0.00195694,0,
00:03.3,-0.001911163,0.001029968,-0.001922607,0,
00:03.3,-0.001939774,0.00103569,-0.001899719,0,
00:03.3,-0.001939774,0.001001358,-0.001916885,0,
00:03.3,-0.001922607,0.001029968,-0.001928329,0,
00:03.3,-0.001934052,0.001052856,-0.00195694,0,
00:03.3,-0.00195694,0.001018524,-0.001962662,0,
00:03.3,-0.001951218,0.001029968,-0.001951218,0,
00:03.3,-0.00195694,0.001098633,-0.002008438,0,
00:03.3,-0.001962662,0.001024246,-0.00195694,0,
00:03.3,-0.001934052,0.001001358,-0.001928329,0,
00:03.4,-0.001939774,0.001018524,-0.00195694,0,
00:03.4,-0.001939774,0.001029968,-0.001979828,0,
00:03.4,-0.00195694,0.001018524,-0.002008438,0,
00:03.4,-0.001945496,0.001001358,-0.001911163,0,
00:03.4,-0.001951218,0.001029968,-0.001911163,0,
00:03.4,-0.001962662,0.00103569,-0.00195694,0,
00:03.4,-0.00195694,0.001047134,-0.001968384,0,
00:03.4,-0.001934052,0.001081467,-0.001945496,0,
00:03.4,-0.001928329,0.001058578,-0.00195694,0,
00:03.4,-0.001962662,0.00100708,-0.001996994,0,
00:03.4,-0.001951218,0.001001358,-0.001974106,0,
00:03.4,-0.001939774,0.001018524,-0.001945496,0,
00:03.4,-0.001934052,0.001018524,-0.00195694,0,
00:03.4,-0.00195694,0.001064301,-0.002054214,0,
00:03.4,-0.001934052,0.001064301,-0.002002716,0,
00:03.4,-0.001916885,0.001058578,-0.001893997,0,
00:03.4,-0.00195694,0.001052856,-0.001905441,0,
00:03.4,-0.001939774,0.001018524,-0.001899719,0,
00:03.4,-0.001962662,0.001029968,-0.001939774,0,
00:03.4,-0.001974106,0.000984192,-0.001979828,0,
00:03.4,-0.001968384,0.00097847,-0.001996994,0,
00:03.4,-0.001951218,0.001001358,-0.001962662,0,
00:03.4,-0.001934052,0.001029968,-0.001951218,0,
00:03.4,-0.001934052,0.001041412,-0.001939774,0,
00:03.4,-0.001939774,0.001024246,-0.001951218,0,
00:03.5,-0.001962662,0.001029968,-0.001968384,0,
00:03.5,-0.001939774,0.001012802,-0.001974106,0,
00:03.5,-0.001916885,0.00103569,-0.001996994,0,
00:03.5,-0.001934052,0.001064301,-0.001968384,0,
00:03.5,-0.001951218,0.001047134,-0.001968384,0,
00:03.5,-0.001951218,0.000995636,-0.001991272,0,
00:03.5,-0.001928329,0.000995636,-0.001905441,0,
00:03.5,-0.001945496,0.001012802,-0.001939774,0,
00:03.5,-0.001934052,0.001041412,-0.001968384,0,
00:03.5,-0.001928329,0.001041412,-0.001979828,0,
00:03.5,-0.001939774,0.001041412,-0.00198555,0,
00:03.5,-0.00195694,0.001029968,-0.00198555,0,
00:03.5,-0.001974106,0.001029968,-0.001945496,0,
00:03.5,-0.001968384,0.001012802,-0.001945496,0,
00:03.5,-0.001979828,0.001001358,-0.002025604,0,
00:03.5,-0.001922607,0.001047134,-0.001962662,0,
00:03.5,-0.001905441,0.001029968,-0.001962662,0,
00:03.5,-0.001922607,0.001018524,-0.00195694,0,
00:03.5,-0.001951218,0.001018524,-0.001951218,0,
00:03.5,-0.001951218,0.001052856,-0.001991272,0,
00:03.5,-0.001962662,0.001018524,-0.001916885,0,
00:03.5,-0.001939774,0.001018524,-0.001916885,0,
00:03.5,-0.001951218,0.001070023,-0.001962662,0,
00:03.5,-0.001939774,0.001024246,-0.001979828,0,
00:03.5,-0.001951218,0.001012802,-0.001991272,0,
00:03.6,-0.001968384,0.001024246,-0.001951218,0,
00:03.6,-0.001934052,0.001018524,-0.001939774,0,
00:03.6,-0.001934052,0.000989914,-0.001991272,0,
00:03.6,-0.001939774,0.001012802,-0.001996994,0,
00:03.6,-0.001939774,0.001018524,-0.00195694,0,
00:03.6,-0.001922607,0.001064301,-0.001951218,0,
00:03.6,-0.001939774,0.001052856,-0.001951218,0,
00:03.6,-0.001951218,0.001018524,-0.001968384,0,
00:03.6,-0.001979828,0.00100708,-0.00198555,0,
00:03.6,-0.001939774,0.00103569,-0.001968384,0,
00:03.6,-0.001934052,0.001041412,-0.001991272,0,
00:03.6,-0.001939774,0.001012802,-0.00198555,0,
00:03.6,-0.001945496,0.001041412,-0.001979828,0,
00:03.6,-0.001911163,0.001041412,-0.001996994,0,
00:03.6,-0.001922607,0.00100708,-0.001934052,0,
00:03.6,-0.001951218,0.001001358,-0.001962662,0,
00:03.6,-0.001962662,0.001001358,-0.001928329,0,
00:03.6,-0.00195694,0.001012802,-0.001974106,0,
00:03.6,-0.00195694,0.00103569,-0.001945496,0,
00:03.6,-0.001939774,0.001092911,-0.001974106,0,
00:03.6,-0.00195694,0.001001358,-0.002002716,0,
00:03.6,-0.001979828,0.000984192,-0.001996994,0,
00:03.6,-0.001934052,0.001018524,-0.001979828,0,
00:03.6,-0.001916885,0.001024246,-0.001968384,0,
00:03.6,-0.001916885,0.001058578,-0.001922607,0,
00:03.7,-0.001962662,0.001052856,-0.00198555,0,
00:03.7,-0.001991272,0.000995636,-0.001974106,0,
00:03.7,-0.00195694,0.001012802,-0.001968384,0,
00:03.7,-0.001951218,0.001024246,-0.002037048,0,
00:03.7,-0.001916885,0.001012802,-0.001951218,0,
00:03.7,-0.001928329,0.001001358,-0.001893997,0,
00:03.7,-0.001928329,0.00103569,-0.001939774,0,
00:03.7,-0.001934052,0.001075745,-0.001951218,0,
00:03.7,-0.001951218,0.001001358,-0.002008438,0,
00:03.7,-0.001939774,0.001024246,-0.002002716,0,
00:03.7,-0.00195694,0.001064301,-0.001996994,0,
00:03.7,-0.00195694,0.000995636,-0.001951218,0,
00:03.7,-0.00195694,0.00100708,-0.001962662,0,
00:03.7,-0.001951218,0.001012802,-0.00198555,0,
00:03.7,-0.001916885,0.001018524,-0.001939774,0,
00:03.7,-0.001962662,0.001024246,-0.00198555,0,
00:03.7,-0.00198555,0.001041412,-0.001996994,0,
00:03.7,-0.001934052,0.001070023,-0.001996994,0,
00:03.7,-0.001922607,0.001052856,-0.001945496,0,
00:03.7,-0.001934052,0.00100708,-0.002019882,0,
00:03.7,-0.001939774,0.001018524,-0.00201416,0,
00:03.7,-0.001939774,0.001029968,-0.001934052,0,
00:03.7,-0.001974106,0.000995636,-0.001996994,0,
00:03.7,-0.001934052,0.001024246,-0.001974106,0,
00:03.7,-0.001939774,0.000995636,-0.001928329,0,
00:03.8,-0.001951218,0.001018524,-0.001928329,0,
00:03.8,-0.001928329,0.001058578,-0.001979828,0,
00:03.8,-0.001945496,0.001029968,-0.002037048,0,
00:03.8,-0.00195694,0.001104355,-0.001939774,0,
00:03.8,-0.00198555,0.001041412,-0.001968384,0,
00:03.8,-0.001974106,0.000972748,-0.00201416,0,
00:03.8,-0.001928329,0.001024246,-0.001951218,0,
00:03.8,-0.001945496,0.00100708,-0.00195694,0,
00:03.8,-0.001945496,0.001018524,-0.00198555,0,
00:03.8,-0.001928329,0.00103569,-0.001991272,0,
00:03.8,-0.001934052,0.00103569,-0.001996994,0,
00:03.8,-0.001951218,0.001052856,-0.001968384,0,
00:03.8,-0.001962662,0.001058578,-0.002025604,0,
00:03.8,-0.001945496,0.00100708,-0.001991272,0,
00:03.8,-0.00195694,0.000995636,-0.001968384,0,
00:03.8,-0.001922607,0.001001358,-0.00198555,0,
00:03.8,-0.001951218,0.00100708,-0.001991272,0,
00:03.8,-0.001934052,0.001024246,-0.001939774,0,
00:03.8,-0.001928329,0.001029968,-0.00204277,0,
00:03.8,-0.001934052,0.00100708,-0.002002716,0,
00:03.8,-0.001968384,0.001024246,-0.002008438,0,
00:03.8,-0.002008438,0.001018524,-0.001979828,0,
00:03.8,-0.001962662,0.001012802,-0.001905441,0,
00:03.8,-0.001939774,0.001041412,-0.001962662,0,
00:03.8,-0.001945496,0.001024246,-0.001991272,0,
00:03.9,-0.001951218,0.001018524,-0.001991272,0,
00:03.9,-0.001939774,0.000989914,-0.001974106,0,
00:03.9,-0.001945496,0.001029968,-0.001996994,0,
00:03.9,-0.001991272,0.001064301,-0.002008438,0,
00:03.9,-0.001945496,0.001052856,-0.002019882,0,
00:03.9,-0.001905441,0.001052856,-0.001996994,0,
00:03.9,-0.001945496,0.001047134,-0.001974106,0,
00:03.9,-0.001974106,0.000972748,-0.001962662,0,
00:03.9,-0.001928329,0.000989914,-0.001974106,0,
00:03.9,-0.001962662,0.001018524,-0.001974106,0,
00:03.9,-0.001951218,0.00103569,-0.00198555,0,
00:03.9,-0.001934052,0.001018524,-0.001962662,0,
00:03.9,-0.00195694,0.001001358,-0.001979828,0,
00:03.9,-0.001934052,0.001012802,-0.001991272,0,
00:03.9,-0.001939774,0.001047134,-0.002002716,0,
00:03.9,-0.001974106,0.00103569,-0.002048492,0,
00:03.9,-0.002002716,0.001001358,-0.002002716,0,
00:03.9,-0.00195694,0.001041412,-0.001996994,0,
00:03.9,-0.001951218,0.001029968,-0.00195694,0,
00:03.9,-0.001934052,0.00100708,-0.00198555,0,
00:03.9,-0.001928329,0.001018524,-0.002008438,0,
00:03.9,-0.001939774,0.001018524,-0.00198555,0,
00:03.9,-0.00195694,0.001012802,-0.001979828,0,
00:03.9,-0.001945496,0.000995636,-0.001996994,0,
00:03.9,-0.001934052,0.001001358,-0.00201416,0,
00:04.0,-0.00195694,0.001001358,-0.001991272,0,
00:04.0,-0.001934052,0.001098633,-0.002054214,0,
00:04.0,-0.001945496,0.001081467,-0.002019882,0,
00:04.0,-0.001979828,0.001018524,-0.001962662,0,
00:04.0,-0.00195694,0.000995636,-0.001968384,0,
00:04.0,-0.001916885,0.000989914,-0.00195694,0,
00:04.0,-0.001939774,0.001012802,-0.001996994,0,
00:04.0,-0.001934052,0.001070023,-0.001968384,0,
00:04.0,-0.001979828,0.001058578,-0.002008438,0,
00:04.0,-0.001991272,0.000972748,-0.00201416,0,
00:04.0,-0.001945496,0.001024246,-0.001979828,0,
00:04.0,-0.001951218,0.001018524,-0.001991272,0,
00:00:04,-0.001951218,0.00100708,-0.001991272,0,
00:04.0,-0.001934052,0.001012802,-0.001996994,0,
00:04.0,-0.001945496,0.00103569,-0.001996994,0,
00:04.0,-0.001945496,0.001018524,-0.002019882,0,
00:04.0,-0.001979828,0.00100708,-0.002008438,0,
00:04.0,-0.001934052,0.000995636,-0.001991272,0,
00:04.0,-0.001928329,0.001024246,-0.002088547,0,
00:04.0,-0.001939774,0.00103569,-0.00201416,0,
00:04.0,-0.001945496,0.001041412,-0.00195694,0,
00:04.0,-0.001939774,0.001058578,-0.001996994,0,
00:04.0,-0.001945496,0.001018524,-0.001991272,0,
00:04.0,-0.001951218,0.000984192,-0.001991272,0,
00:04.0,-0.001974106,0.001041412,-0.002059937,0,
00:04.1,-0.002002716,0.001052856,-0.001996994,0,
00:04.1,-0.001974106,0.00100708,-0.001962662,0,
00:04.1,-0.001916885,0.001029968,-0.001991272,0,
00:04.1,-0.001905441,0.001087189,-0.002008438,0,
00:04.1,-0.001928329,0.001052856,-0.002002716,0,
00:04.1,-0.001991272,0.00097847,-0.002037048,0,
00:04.1,-0.001991272,0.000989914,-0.001991272,0,
00:04.1,-0.002008438,0.001024246,-0.001996994,0,
00:04.1,-0.001916885,0.001070023,-0.002037048,0,
00:04.1,-0.001893997,0.00103569,-0.002019882,0,
00:04.1,-0.001922607,0.001052856,-0.001991272,0,
00:04.1,-0.001962662,0.00103569,-0.002008438,0,
00:04.1,-0.001962662,0.001024246,-0.002008438,0,
00:04.1,-0.001968384,0.00103569,-0.001974106,0,
00:04.1,-0.00195694,0.001018524,-0.001991272,0,
00:04.1,-0.001945496,0.00100708,-0.002025604,0,
00:04.1,-0.001951218,0.00100708,-0.002002716,0,
00:04.1,-0.001951218,0.001024246,-0.002019882,0,
00:04.1,-0.001951218,0.001047134,-0.002008438,0,
00:04.1,-0.001945496,0.001052856,-0.002019882,0,
00:04.1,-0.001962662,0.001018524,-0.001996994,0,
00:04.1,-0.001951218,0.001018524,-0.00201416,0,
00:04.1,-0.001934052,0.001024246,-0.00204277,0,
00:04.1,-0.001939774,0.001018524,-0.002099991,0,
00:04.1,-0.001939774,0.00103569,-0.00198555,0,
00:04.2,-0.001968384,0.001029968,-0.002008438,0,
00:04.2,-0.001945496,0.00103569,-0.002002716,0,
00:04.2,-0.001945496,0.001058578,-0.002008438,0,
00:04.2,-0.00198555,0.001029968,-0.002002716,0,
00:04.2,-0.001945496,0.000995636,-0.00195694,0,
00:04.2,-0.001916885,0.00103569,-0.002002716,0,
00:04.2,-0.001928329,0.001058578,-0.002031326,0,
00:04.2,-0.001934052,0.001087189,-0.002025604,0,
00:04.2,-0.001945496,0.001029968,-0.002008438,0,
00:04.2,-0.002008438,0.000984192,-0.00201416,0,
00:04.2,-0.001939774,0.001052856,-0.001991272,0,
00:04.2,-0.001911163,0.001064301,-0.002019882,0,
00:04.2,-0.001934052,0.001012802,-0.00201416,0,
00:04.2,-0.001945496,0.001001358,-0.002019882,0,
00:04.2,-0.001939774,0.001024246,-0.002019882,0,
00:04.2,-0.001928329,0.001070023,-0.002025604,0,
00:04.2,-0.001945496,0.001041412,-0.00201416,0,
00:04.2,-0.001962662,0.001018524,-0.00198555,0,
00:04.2,-0.001928329,0.001029968,-0.00201416,0,
00:04.2,-0.001939774,0.001029968,-0.002037048,0,
00:04.2,-0.001968384,0.001041412,-0.00201416,0,
00:04.2,-0.00195694,0.00103569,-0.002019882,0,
00:04.2,-0.001962662,0.000995636,-0.002019882,0,
00:04.2,-0.001934052,0.001029968,-0.002019882,0,
00:04.2,-0.001928329,0.00103569,-0.002054214,0,
00:04.3,-0.001945496,0.001041412,-0.002025604,0,
00:04.3,-0.001945496,0.001058578,-0.002037048,0,
00:04.3,-0.001951218,0.001070023,-0.00204277,0,
00:04.3,-0.001951218,0.001092911,-0.001996994,0,
00:04.3,-0.001968384,0.001047134,-0.002071381,0,
00:04.3,-0.00195694,0.00100708,-0.00204277,0,
00:04.3,-0.001951218,0.001012802,-0.002008438,0,
00:04.3,-0.001968384,0.001029968,-0.001996994,0,
00:04.3,-0.00195694,0.001041412,-0.001996994,0,
00:04.3,-0.00195694,0.001018524,-0.002002716,0,
00:04.3,-0.001968384,0.001012802,-0.00198555,0,
00:04.3,-0.001962662,0.001070023,-0.00201416,0,
00:04.3,-0.001968384,0.001047134,-0.002094269,0,
00:04.3,-0.00195694,0.001041412,-0.002002716,0,
00:04.3,-0.001928329,0.001064301,-0.001991272,0,
00:04.3,-0.001951218,0.001018524,-0.002019882,0,
00:04.3,-0.001991272,0.001058578,-0.002048492,0,
00:04.3,-0.00198555,0.00103569,-0.002088547,0,
00:04.3,-0.001939774,0.001024246,-0.002025604,0,
00:04.3,-0.001939774,0.001075745,-0.001991272,0,
00:04.3,-0.001951218,0.001058578,-0.002025604,0,
00:04.3,-0.001928329,0.001024246,-0.001979828,0,
00:04.3,-0.001962662,0.001024246,-0.00204277,0,
00:04.3,-0.001979828,0.001058578,-0.00201416,0,
00:04.3,-0.001991272,0.00100708,-0.002048492,0,
00:04.4,-0.001979828,0.001018524,-0.002065659,0,
00:04.4,-0.001939774,0.001047134,-0.00201416,0,
00:04.4,-0.001945496,0.001058578,-0.002019882,0,
00:04.4,-0.001951218,0.00103569,-0.002025604,0,
00:04.4,-0.001945496,0.001058578,-0.002025604,0,
00:04.4,-0.001974106,0.001041412,-0.002031326,0,
00:04.4,-0.001996994,0.001012802,-0.002031326,0,
00:04.4,-0.001951218,0.001070023,-0.002054214,0,
00:04.4,-0.001939774,0.001087189,-0.002059937,0,
00:04.4,-0.001951218,0.001024246,-0.002054214,0,
00:04.4,-0.001962662,0.001012802,-0.001974106,0,
00:04.4,-0.00198555,0.001041412,-0.002008438,0,
00:04.4,-0.00198555,0.00103569,-0.002031326,0,
00:04.4,-0.001934052,0.001058578,-0.00201416,0,
00:04.4,-0.00195694,0.001041412,-0.002025604,0,
00:04.4,-0.001934052,0.001041412,-0.002059937,0,
00:04.4,-0.001945496,0.001092911,-0.00204277,0,
00:04.4,-0.001968384,0.001064301,-0.00201416,0,
00:04.4,-0.001996994,0.001024246,-0.002059937,0,
00:04.4,-0.001979828,0.001012802,-0.001979828,0,
00:04.4,-0.001928329,0.001029968,-0.002025604,0,
00:04.4,-0.001945496,0.00103569,-0.00201416,0,
00:04.4,-0.001979828,0.00103569,-0.00204277,0,
00:04.4,-0.001974106,0.001029968,-0.002054214,0,
00:04.4,-0.001962662,0.001029968,-0.00201416,0,
00:04.5,-0.001979828,0.001029968,-0.002008438,0,
00:04.5,-0.001951218,0.001047134,-0.002025604,0,
00:04.5,-0.001974106,0.001041412,-0.002048492,0,
00:04.5,-0.001991272,0.001047134,-0.002077103,0,
00:04.5,-0.00198555,0.001018524,-0.002054214,0,
00:04.5,-0.001945496,0.001075745,-0.002054214,0,
00:04.5,-0.001928329,0.001115799,-0.002105713,0,
00:04.5,-0.00195694,0.00103569,-0.00204277,0,
00:04.5,-0.001968384,0.001058578,-0.00198555,0,
00:04.5,-0.00195694,0.001064301,-0.002065659,0,
00:04.5,-0.001951218,0.001029968,-0.001996994,0,
00:04.5,-0.001951218,0.001012802,-0.00198555,0,
00:04.5,-0.001951218,0.00103569,-0.002019882,0,
00:04.5,-0.00195694,0.001058578,-0.002031326,0,
00:04.5,-0.001968384,0.001041412,-0.002054214,0,
00:04.5,-0.001979828,0.001047134,-0.002065659,0,
00:04.5,-0.001974106,0.001047134,-0.002025604,0,
00:04.5,-0.001939774,0.001081467,-0.002082825,0,
00:04.5,-0.001968384,0.001115799,-0.002077103,0,
00:04.5,-0.002008438,0.001081467,-0.002117157,0,
00:04.5,-0.001945496,0.001052856,-0.002059937,0,
00:04.5,-0.00198555,0.00100708,-0.001996994,0,
00:04.5,-0.001991272,0.00100708,-0.001979828,0,
00:04.5,-0.001922607,0.001029968,-0.002008438,0,
00:04.5,-0.001951218,0.001029968,-0.002008438,0,
00:04.6,-0.001974106,0.00103569,-0.002025604,0,
00:04.6,-0.001974106,0.001029968,-0.002025604,0,
00:04.6,-0.001974106,0.00103569,-0.002031326,0,
00:04.6,-0.001974106,0.001029968,-0.00204277,0,
00:04.6,-0.001968384,0.001024246,-0.002037048,0,
00:04.6,-0.001968384,0.00103569,-0.00204277,0,
00:04.6,-0.001979828,0.001041412,-0.002048492,0,
00:04.6,-0.001974106,0.001041412,-0.002048492,0,
00:04.6,-0.00195694,0.001047134,-0.002048492,0,
00:04.6,-0.001968384,0.001064301,-0.002099991,0,
00:04.6,-0.002002716,0.001052856,-0.002059937,0,
00:04.6,-0.002002716,0.001161575,-0.002105713,0,
00:04.6,-0.001911163,0.001127243,-0.00223732,0,
00:04.6,-0.001905441,0.001029968,-0.002094269,0,
00:04.6,-0.001951218,0.001029968,-0.001911163,0,
00:04.6,-0.001974106,0.00103569,-0.002008438,0,
00:04.6,-0.001962662,0.001029968,-0.001968384,0,
00:04.6,-0.002002716,0.001018524,-0.002019882,0,
00:04.6,-0.001979828,0.001029968,-0.002019882,0,
00:04.6,-0.001974106,0.001024246,-0.002059937,0,
00:04.6,-0.001979828,0.001029968,-0.002059937,0,
00:04.6,-0.001974106,0.001064301,-0.002025604,0,
00:04.6,-0.001962662,0.001087189,-0.00204277,0,
00:04.6,-0.001945496,0.001047134,-0.002071381,0,
00:04.6,-0.00195694,0.001041412,-0.002059937,0,
00:04.7,-0.001991272,0.001024246,-0.002048492,0,
00:04.7,-0.002002716,0.001024246,-0.002071381,0,
00:04.7,-0.001979828,0.000989914,-0.002048492,0,
00:04.7,-0.00195694,0.001001358,-0.00204277,0,
00:04.7,-0.00195694,0.001029968,-0.002037048,0,
00:04.7,-0.001951218,0.001012802,-0.00204277,0,
00:04.7,-0.00195694,0.00100708,-0.002048492,0,
00:04.7,-0.001962662,0.000984192,-0.00204277,0,
00:04.7,-0.001962662,0.000955582,-0.002071381,0,
00:04.7,-0.001962662,0.001029968,-0.002077103,0,
00:04.7,-0.001951218,0.001047134,-0.002088547,0,
00:04.7,-0.001945496,0.000995636,-0.002099991,0,
00:04.7,-0.001968384,0.000995636,-0.002082825,0,
00:04.7,-0.001962662,0.001052856,-0.002065659,0,
00:04.7,-0.001962662,0.001047134,-0.002105713,0,
00:04.7,-0.001974106,0.001018524,-0.001979828,0,
00:04.7,-0.00198555,0.001047134,-0.002002716,0,
00:04.7,-0.00195694,0.000995636,-0.002071381,0,
00:04.7,-0.001979828,0.000989914,-0.002082825,0,
00:04.7,-0.002008438,0.00097847,-0.00204277,0,
00:04.7,-0.001979828,0.000972748,-0.002031326,0,
00:04.7,-0.00198555,0.00100708,-0.002071381,0,
00:04.7,-0.001979828,0.001001358,-0.002088547,0,
00:04.7,-0.001945496,0.001018524,-0.002065659,0,
00:04.7,-0.001951218,0.001041412,-0.002025604,0,
00:04.8,-0.001939774,0.001070023,-0.002031326,0,
00:04.8,-0.001968384,0.001052856,-0.00204277,0,
00:04.8,-0.002008438,0.000995636,-0.002059937,0,
00:04.8,-0.001979828,0.000967026,-0.002082825,0,
00:04.8,-0.001939774,0.000989914,-0.002094269,0,
00:04.8,-0.001951218,0.001024246,-0.002088547,0,
00:04.8,-0.001922607,0.001052856,-0.002082825,0,
00:04.8,-0.001945496,0.001018524,-0.00204277,0,
00:04.8,-0.001979828,0.001012802,-0.002105713,0,
00:04.8,-0.001974106,0.001018524,-0.002094269,0,
00:04.8,-0.001968384,0.001018524,-0.002088547,0,
00:04.8,-0.001945496,0.001075745,-0.002031326,0,
00:04.8,-0.001968384,0.00103569,-0.002048492,0,
00:04.8,-0.002031326,0.00097847,-0.002082825,0,
00:04.8,-0.001996994,0.000995636,-0.002088547,0,
00:04.8,-0.001951218,0.000989914,-0.002071381,0,
00:04.8,-0.001991272,0.000989914,-0.002048492,0,
00:04.8,-0.001991272,0.000984192,-0.002082825,0,
00:04.8,-0.001991272,0.001041412,-0.002088547,0,
00:04.8,-0.001968384,0.001041412,-0.002031326,0,
00:04.8,-0.001951218,0.001012802,-0.002048492,0,
00:04.8,-0.001945496,0.000995636,-0.002059937,0,
00:04.8,-0.00198555,0.00100708,-0.002048492,0,
00:04.8,-0.001974106,0.001070023,-0.002048492,0,
00:04.8,-0.001991272,0.001058578,-0.002128601,0,
00:04.9,-0.001979828,0.000961304,-0.002088547,0,
00:04.9,-0.00195694,0.001047134,-0.00201416,0,
00:04.9,-0.001934052,0.00100708,-0.002077103,0,
00:04.9,-0.001974106,0.000984192,-0.002128601,0,
00:04.9,-0.00198555,0.001012802,-0.002088547,0,
00:04.9,-0.00195694,0.001012802,-0.002077103,0,
00:04.9,-0.001951218,0.001029968,-0.002088547,0,
00:04.9,-0.00198555,0.00103569,-0.002088547,0,
00:04.9,-0.001962662,0.001024246,-0.002025604,0,
00:04.9,-0.001979828,0.001012802,-0.002037048,0,
00:04.9,-0.002008438,0.000989914,-0.002071381,0,
00:04.9,-0.001991272,0.00100708,-0.002094269,0,
00:04.9,-0.001962662,0.001018524,-0.002168655,0,
00:04.9,-0.001934052,0.001024246,-0.002128601,0,
00:04.9,-0.001979828,0.00100708,-0.002008438,0,
00:04.9,-0.001974106,0.001029968,-0.00204277,0,
00:04.9,-0.001951218,0.001024246,-0.002037048,0,
00:04.9,-0.00198555,0.00100708,-0.002077103,0,
00:04.9,-0.001945496,0.001047134,-0.002077103,0,
00:04.9,-0.001939774,0.001110077,-0.002077103,0,
00:04.9,-0.00195694,0.001012802,-0.002105713,0,
00:04.9,-0.001951218,0.001018524,-0.002037048,0,
00:04.9,-0.001968384,0.001001358,-0.00204277,0,
00:04.9,-0.00198555,0.001024246,-0.002059937,0,
00:04.9,-0.001951218,0.001058578,-0.002082825,0,
00:05.0,-0.001962662,0.001001358,-0.002105713,0,
00:05.0,-0.001968384,0.00097847,-0.002099991,0,
00:05.0,-0.00198555,0.00103569,-0.002140045,0,
00:05.0,-0.001974106,0.001047134,-0.002197266,0,
00:05.0,-0.001934052,0.001018524,-0.002099991,0,
00:05.0,-0.001945496,0.001018524,-0.002088547,0,
00:05.0,-0.00198555,0.001012802,-0.002071381,0,
00:05.0,-0.002008438,0.00100708,-0.002094269,0,
00:05.0,-0.00198555,0.00100708,-0.002134323,0,
00:05.0,-0.00195694,0.000989914,-0.002122879,0,
00:05.0,-0.001974106,0.001018524,-0.002122879,0,
00:05.0,-0.00195694,0.00103569,-0.002162933,0,
00:00:05,-0.001928329,0.001064301,-0.002099991,0,
00:05.0,-0.001945496,0.00103569,-0.002059937,0,
00:05.0,-0.001939774,0.00100708,-0.002117157,0,
00:05.0,-0.001962662,0.001018524,-0.002128601,0,
00:05.0,-0.00198555,0.001047134,-0.002151489,0,
00:05.0,-0.001968384,0.00103569,-0.002128601,0,
00:05.0,-0.001962662,0.001024246,-0.002111435,0,
00:05.0,-0.00195694,0.001047134,-0.002094269,0,
00:05.0,-0.001968384,0.00103569,-0.002077103,0,
00:05.0,-0.001974106,0.001001358,-0.002105713,0,
00:05.0,-0.001991272,0.001018524,-0.002128601,0,
00:05.0,-0.002002716,0.001052856,-0.002145767,0,
00:05.0,-0.001996994,0.001012802,-0.002094269,0,
00:05.1,-0.00195694,0.001018524,-0.002088547,0,
00:05.1,-0.001951218,0.001047134,-0.002128601,0,
00:05.1,-0.001974106,0.001052856,-0.002122879,0,
00:05.1,-0.00195694,0.00103569,-0.002094269,0,
00:05.1,-0.001968384,0.000995636,-0.002099991,0,
00:05.1,-0.001979828,0.001001358,-0.002105713,0,
00:05.1,-0.001991272,0.00103569,-0.002099991,0,
00:05.1,-0.001968384,0.001029968,-0.002105713,0,
00:05.1,-0.001968384,0.00100708,-0.002082825,0,
00:05.1,-0.001939774,0.00103569,-0.002111435,0,
00:05.1,-0.001962662,0.001081467,-0.002111435,0,
00:05.1,-0.001974106,0.001064301,-0.002128601,0,
00:05.1,-0.001968384,0.001070023,-0.002088547,0,
00:05.1,-0.001979828,0.001047134,-0.002077103,0,
00:05.1,-0.00195694,0.001001358,-0.002099991,0,
00:05.1,-0.001962662,0.001018524,-0.002134323,0,
00:05.1,-0.001951218,0.001029968,-0.002094269,0,
00:05.1,-0.00195694,0.001041412,-0.002117157,0,
00:05.1,-0.001974106,0.00103569,-0.002128601,0,
00:05.1,-0.001991272,0.001024246,-0.002128601,0,
00:05.1,-0.00201416,0.000989914,-0.002059937,0,
00:05.1,-0.00198555,0.001012802,-0.002065659,0,
00:05.1,-0.001968384,0.001058578,-0.002071381,0,
00:05.1,-0.001939774,0.001070023,-0.002071381,0,
00:05.1,-0.001962662,0.001024246,-0.002128601,0,
00:05.2,-0.002002716,0.001029968,-0.002094269,0,
00:05.2,-0.001991272,0.001029968,-0.002122879,0,
00:05.2,-0.001979828,0.001058578,-0.002145767,0,
00:05.2,-0.00198555,0.001092911,-0.002082825,0,
00:05.2,-0.001979828,0.001041412,-0.002140045,0,
00:05.2,-0.001962662,0.001058578,-0.00204277,0,
00:05.2,-0.001974106,0.001052856,-0.002031326,0,
00:05.2,-0.00195694,0.000989914,-0.002094269,0,
00:05.2,-0.001951218,0.00103569,-0.002151489,0,
00:05.2,-0.001962662,0.001018524,-0.002088547,0,
00:05.2,-0.00198555,0.001029968,-0.002071381,0,
00:05.2,-0.001974106,0.001024246,-0.002099991,0,
00:05.2,-0.001974106,0.001058578,-0.002099991,0,
00:05.2,-0.00198555,0.00100708,-0.002082825,0,
00:05.2,-0.001974106,0.000989914,-0.002082825,0,
00:05.2,-0.001974106,0.001047134,-0.002065659,0,
00:05.2,-0.001962662,0.001058578,-0.002168655,0,
00:05.2,-0.002002716,0.001070023,-0.002105713,0,
00:05.2,-0.001996994,0.001064301,-0.002059937,0,
00:05.2,-0.001951218,0.001081467,-0.002071381,0,
00:05.2,-0.001968384,0.000984192,-0.002105713,0,
00:05.2,-0.001934052,0.001018524,-0.002145767,0,
00:05.2,-0.00198555,0.001081467,-0.002082825,0,
00:05.2,-0.001979828,0.001070023,-0.00204277,0,
00:05.2,-0.00195694,0.001075745,-0.002071381,0,
00:05.3,-0.001974106,0.001018524,-0.002082825,0,
00:05.3,-0.002019882,0.00097847,-0.002099991,0,
00:05.3,-0.00198555,0.001024246,-0.002088547,0,
00:05.3,-0.00195694,0.001024246,-0.002071381,0,
00:05.3,-0.001968384,0.001018524,-0.002071381,0,
00:05.3,-0.001974106,0.001001358,-0.002054214,0,
00:05.3,-0.001968384,0.001001358,-0.002077103,0,
00:05.3,-0.002008438,0.001041412,-0.002094269,0,
00:05.3,-0.00195694,0.001047134,-0.002088547,0,
00:05.3,-0.001968384,0.001064301,-0.002048492,0,
00:05.3,-0.001991272,0.001047134,-0.002099991,0,
00:05.3,-0.001991272,0.000995636,-0.002111435,0,
00:05.3,-0.00198555,0.000984192,-0.002099991,0,
00:05.3,-0.001991272,0.001012802,-0.002077103,0,
00:05.3,-0.001962662,0.001041412,-0.002088547,0,
00:05.3,-0.001979828,0.001052856,-0.00204277,0,
00:05.3,-0.001991272,0.000989914,-0.002082825,0,
00:05.3,-0.001979828,0.001029968,-0.002111435,0,
00:05.3,-0.002008438,0.001018524,-0.002105713,0,
00:05.3,-0.00198555,0.001001358,-0.002054214,0,
00:05.3,-0.001934052,0.001070023,-0.002002716,0,
00:05.3,-0.001991272,0.001058578,-0.002031326,0,
00:05.3,-0.001996994,0.00100708,-0.002059937,0,
00:05.3,-0.001968384,0.001018524,-0.002094269,0,
00:05.3,-0.001968384,0.000995636,-0.002048492,0,
00:05.4,-0.00198555,0.000995636,-0.002037048,0,
00:05.4,-0.002002716,0.00103569,-0.002077103,0,
00:05.4,-0.001996994,0.000989914,-0.002077103,0,
00:05.4,-0.001974106,0.001052856,-0.002037048,0,
00:05.4,-0.001979828,0.001024246,-0.002088547,0,
00:05.4,-0.00198555,0.00097847,-0.002099991,0,
00:05.4,-0.00201416,0.001001358,-0.002088547,0,
00:05.4,-0.001991272,0.001024246,-0.002059937,0,
00:05.4,-0.001962662,0.001075745,-0.00204277,0,
00:05.4,-0.001968384,0.001012802,-0.002071381,0,
00:05.4,-0.001979828,0.001012802,-0.002094269,0,
00:05.4,-0.001991272,0.001052856,-0.002094269,0,
00:05.4,-0.001996994,0.001029968,-0.002019882,0,
00:05.4,-0.001991272,0.00103569,-0.002031326,0,
00:05.4,-0.001991272,0.00100708,-0.002054214,0,
00:05.4,-0.00198555,0.001029968,-0.002077103,0,
00:05.4,-0.001991272,0.001041412,-0.002122879,0,
00:05.4,-0.001968384,0.000995636,-0.002031326,0,
00:05.4,-0.001991272,0.001018524,-0.001979828,0,
00:05.4,-0.001991272,0.001018524,-0.002065659,0,
00:05.4,-0.001996994,0.001029968,-0.002019882,0,
00:05.4,-0.002002716,0.001018524,-0.002008438,0,
00:05.4,-0.001996994,0.001001358,-0.002037048,0,
00:05.4,-0.002037048,0.000989914,-0.002059937,0,
00:05.4,-0.00198555,0.001024246,-0.002065659,0,
00:05.5,-0.001939774,0.00103569,-0.002048492,0,
00:05.5,-0.001979828,0.001012802,-0.002094269,0,
00:05.5,-0.001962662,0.00100708,-0.002025604,0,
00:05.5,-0.00198555,0.001001358,-0.002002716,0,
00:05.5,-0.002002716,0.001070023,-0.002048492,0,
00:05.5,-0.001991272,0.001064301,-0.002128601,0,
00:05.5,-0.002025604,0.000972748,-0.002037048,0,
00:05.5,-0.002019882,0.000989914,-0.001968384,0,
00:05.5,-0.001962662,0.001029968,-0.001996994,0,
00:05.5,-0.002008438,0.001029968,-0.002048492,0,
00:05.5,-0.002019882,0.00100708,-0.002048492,0,
00:05.5,-0.001979828,0.00100708,-0.002048492,0,
00:05.5,-0.001974106,0.000995636,-0.00201416,0,
00:05.5,-0.001991272,0.001029968,-0.002037048,0,
00:05.5,-0.00201416,0.001018524,-0.002054214,0,
00:05.5,-0.00201416,0.001029968,-0.002002716,0,
00:05.5,-0.001996994,0.001012802,-0.001996994,0,
00:05.5,-0.001991272,0.000967026,-0.00201416,0,
00:05.5,-0.00198555,0.001041412,-0.00201416,0,
00:05.5,-0.001979828,0.001052856,-0.002048492,0,
00:05.5,-0.00198555,0.001012802,-0.002065659,0,
00:05.5,-0.00201416,0.000995636,-0.001996994,0,
00:05.5,-0.00201416,0.001018524,-0.001996994,0,
00:05.5,-0.001991272,0.001075745,-0.001996994,0,
00:05.5,-0.001991272,0.001041412,-0.002002716,0,
00:05.6,-0.001991272,0.000984192,-0.002037048,0,
00:05.6,-0.001991272,0.001012802,-0.002031326,0,
00:05.6,-0.002025604,0.00100708,-0.002025604,0,
00:05.6,-0.002031326,0.00097847,-0.00201416,0,
00:05.6,-0.001979828,0.001018524,-0.002031326,0,
00:05.6,-0.001974106,0.001024246,-0.002037048,0,
00:05.6,-0.001991272,0.001018524,-0.002008438,0,
00:05.6,-0.002002716,0.001012802,-0.002031326,0,
00:05.6,-0.00201416,0.00100708,-0.00198555,0,
00:05.6,-0.002002716,0.001001358,-0.001991272,0,
00:05.6,-0.001979828,0.001024246,-0.001974106,0,
00:05.6,-0.001968384,0.001041412,-0.002008438,0,
00:05.6,-0.00198555,0.001012802,-0.001996994,0,
00:05.6,-0.00201416,0.001018524,-0.00201416,0,
00:05.6,-0.001996994,0.001018524,-0.002037048,0,
00:05.6,-0.001996994,0.000972748,-0.002008438,0,
00:05.6,-0.001974106,0.001029968,-0.002025604,0,
00:05.6,-0.00198555,0.001070023,-0.00201416,0,
00:05.6,-0.001991272,0.00100708,-0.001951218,0,
00:05.6,-0.001996994,0.001001358,-0.001991272,0,
00:05.6,-0.002002716,0.001001358,-0.002008438,0,
00:05.6,-0.00201416,0.000995636,-0.001996994,0,
00:05.6,-0.002037048,0.000995636,-0.001991272,0,
00:05.6,-0.002031326,0.001024246,-0.002031326,0,
00:05.6,-0.001991272,0.001029968,-0.002002716,0,
00:05.7,-0.001996994,0.001029968,-0.001945496,0,
00:05.7,-0.00201416,0.000989914,-0.00198555,0,
00:05.7,-0.002008438,0.001024246,-0.001991272,0,
00:05.7,-0.001962662,0.001029968,-0.002008438,0,
00:05.7,-0.001991272,0.00097847,-0.001991272,0,
00:05.7,-0.002019882,0.00100708,-0.001945496,0,
00:05.7,-0.00198555,0.001018524,-0.001974106,0,
00:05.7,-0.001996994,0.001012802,-0.002002716,0,
00:05.7,-0.002019882,0.001029968,-0.001996994,0,
00:05.7,-0.002002716,0.000984192,-0.002008438,0,
00:05.7,-0.00198555,0.001018524,-0.001939774,0,
00:05.7,-0.00198555,0.001052856,-0.00195694,0,
00:05.7,-0.002002716,0.001018524,-0.00198555,0,
00:05.7,-0.002002716,0.001012802,-0.001979828,0,
00:05.7,-0.001974106,0.001018524,-0.00201416,0,
00:05.7,-0.002002716,0.000984192,-0.001934052,0,
00:05.7,-0.00201416,0.001001358,-0.002002716,0,
00:05.7,-0.002019882,0.001018524,-0.002002716,0,
00:05.7,-0.002037048,0.000989914,-0.001928329,0,
00:05.7,-0.00198555,0.000989914,-0.001951218,0,
00:05.7,-0.00198555,0.00103569,-0.001951218,0,
00:05.7,-0.002008438,0.001041412,-0.002002716,0,
00:05.7,-0.002002716,0.001029968,-0.001979828,0,
00:05.7,-0.001962662,0.001024246,-0.002008438,0,
00:05.7,-0.001991272,0.000984192,-0.00198555,0,
00:05.8,-0.002019882,0.00100708,-0.001888275,0,
00:05.8,-0.002031326,0.00100708,-0.00195694,0,
00:05.8,-0.002002716,0.001001358,-0.00198555,0,
00:05.8,-0.001979828,0.001047134,-0.00195694,0,
00:05.8,-0.002002716,0.001024246,-0.001962662,0,
00:05.8,-0.002002716,0.000972748,-0.00198555,0,
00:05.8,-0.002025604,0.001001358,-0.001922607,0,
00:05.8,-0.002019882,0.001029968,-0.001968384,0,
00:05.8,-0.002002716,0.001052856,-0.00198555,0,
00:05.8,-0.001996994,0.001075745,-0.002019882,0,
00:05.8,-0.002002716,0.000967026,-0.001928329,0,
00:05.8,-0.001996994,0.00097847,-0.001928329,0,
00:05.8,-0.002002716,0.000995636,-0.001968384,0,
00:05.8,-0.001996994,0.001001358,-0.00195694,0,
00:05.8,-0.002019882,0.000995636,-0.001911163,0,
00:05.8,-0.002031326,0.001001358,-0.001962662,0,
00:05.8,-0.00201416,0.001001358,-0.001951218,0,
00:05.8,-0.001996994,0.00100708,-0.001945496,0,
00:05.8,-0.001996994,0.00100708,-0.001922607,0,
00:05.8,-0.001979828,0.00100708,-0.001939774,0,
00:05.8,-0.002002716,0.001024246,-0.001951218,0,
00:05.8,-0.002025604,0.00103569,-0.001962662,0,
00:05.8,-0.002008438,0.001018524,-0.001922607,0,
00:05.8,-0.002025604,0.000984192,-0.001945496,0,
00:05.8,-0.001996994,0.000989914,-0.001934052,0,
00:05.9,-0.002002716,0.001029968,-0.001951218,0,
00:05.9,-0.002002716,0.001029968,-0.001905441,0,
00:05.9,-0.00204277,0.000972748,-0.00195694,0,
00:05.9,-0.001974106,0.001058578,-0.002025604,0,
00:05.9,-0.001996994,0.001047134,-0.001939774,0,
00:05.9,-0.002002716,0.000955582,-0.001893997,0,
00:05.9,-0.00198555,0.000972748,-0.001911163,0,
00:05.9,-0.001996994,0.00103569,-0.001928329,0,
00:05.9,-0.002025604,0.001075745,-0.001905441,0,
00:05.9,-0.002031326,0.000955582,-0.001899719,0,
00:05.9,-0.00201416,0.000995636,-0.001928329,0,
00:05.9,-0.002031326,0.00103569,-0.001962662,0,
00:05.9,-0.002019882,0.000984192,-0.001979828,0,
00:05.9,-0.002002716,0.000984192,-0.001882553,0,
00:05.9,-0.002008438,0.001012802,-0.001911163,0,
00:05.9,-0.00201416,0.001018524,-0.001945496,0,
00:05.9,-0.00201416,0.001018524,-0.001934052,0,
00:05.9,-0.002019882,0.001070023,-0.001945496,0,
00:05.9,-0.00201416,0.000989914,-0.001899719,0,
00:05.9,-0.002019882,0.000944138,-0.001922607,0,
00:05.9,-0.001974106,0.001024246,-0.001905441,0,
00:05.9,-0.00198555,0.00103569,-0.001934052,0,
00:05.9,-0.002008438,0.001052856,-0.001939774,0,
00:05.9,-0.002019882,0.000967026,-0.001911163,0,
00:05.9,-0.002002716,0.00097847,-0.001899719,0,
00:06.0,-0.002008438,0.001024246,-0.001888275,0,
00:06.0,-0.00204277,0.001012802,-0.001905441,0,
00:06.0,-0.002019882,0.001001358,-0.001888275,0,
00:06.0,-0.001996994,0.000995636,-0.001893997,0,
00:06.0,-0.002008438,0.000989914,-0.001916885,0,
00:06.0,-0.002025604,0.001012802,-0.001911163,0,
00:06.0,-0.00204277,0.001001358,-0.001893997,0,
00:06.0,-0.00204277,0.000989914,-0.001899719,0,
00:06.0,-0.002002716,0.001018524,-0.001899719,0,
00:06.0,-0.002002716,0.001001358,-0.001911163,0,
00:06.0,-0.00201416,0.001012802,-0.001922607,0,
00:06.0,-0.00201416,0.001012802,-0.00195694,0,
00:00:06,-0.002019882,0.001058578,-0.001951218,0,
00:06.0,-0.002025604,0.001058578,-0.001893997,0,
00:06.0,-0.002025604,0.00100708,-0.001911163,0,
00:06.0,-0.00198555,0.000961304,-0.001968384,0,
00:06.0,-0.001996994,0.000995636,-0.001876831,0,
00:06.0,-0.002008438,0.001024246,-0.001871109,0,
00:06.0,-0.00201416,0.00103569,-0.001934052,0,
00:06.0,-0.00201416,0.001052856,-0.001939774,0,
00:06.0,-0.002037048,0.000961304,-0.001922607,0,
00:06.0,-0.002025604,0.000989914,-0.001934052,0,
00:06.0,-0.002025604,0.001018524,-0.001888275,0,
00:06.0,-0.002025604,0.001001358,-0.001928329,0,
00:06.0,-0.002008438,0.001001358,-0.001928329,0,
00:06.1,-0.002025604,0.000989914,-0.001911163,0,
00:06.1,-0.002037048,0.000995636,-0.001916885,0,
00:06.1,-0.002037048,0.000989914,-0.00195694,0,
00:06.1,-0.002008438,0.001012802,-0.00198555,0,
00:06.1,-0.001979828,0.00103569,-0.001968384,0,
00:06.1,-0.002071381,0.001064301,-0.001916885,0,
00:06.1,-0.002037048,0.001029968,-0.001911163,0,
00:06.1,-0.002025604,0.000995636,-0.001916885,0,
00:06.1,-0.002037048,0.000972748,-0.001899719,0,
00:06.1,-0.002025604,0.000984192,-0.001934052,0,
00:06.1,-0.002059937,0.000995636,-0.001939774,0,
00:06.1,-0.002048492,0.001001358,-0.001916885,0,
00:06.1,-0.002048492,0.001012802,-0.00195694,0,
00:06.1,-0.002088547,0.001029968,-0.001974106,0,
00:06.1,-0.002077103,0.001012802,-0.001922607,0,
00:06.1,-0.002059937,0.001024246,-0.001905441,0,
00:06.1,-0.002071381,0.001052856,-0.001979828,0,
00:06.1,-0.002008438,0.001024246,-0.001934052,0,
00:06.1,-0.002037048,0.001041412,-0.001905441,0,
00:06.1,-0.002065659,0.000984192,-0.001911163,0,
00:06.1,-0.002065659,0.000967026,-0.001916885,0,
00:06.1,-0.002059937,0.001001358,-0.001871109,0,
00:06.1,-0.002059937,0.001001358,-0.001911163,0,
00:06.1,-0.002048492,0.000995636,-0.001893997,0,
00:06.1,-0.002031326,0.001012802,-0.001905441,0,
00:06.2,-0.002031326,0.001064301,-0.001974106,0,
00:06.2,-0.002059937,0.001047134,-0.001996994,0,
00:06.2,-0.002105713,0.00103569,-0.001893997,0,
00:06.2,-0.002065659,0.001064301,-0.001996994,0,
00:06.2,-0.002031326,0.001012802,-0.00195694,0,
00:06.2,-0.00204277,0.001001358,-0.001831055,0,
00:06.2,-0.002048492,0.000995636,-0.001848221,0,
00:06.2,-0.002065659,0.000989914,-0.001882553,0,
00:06.2,-0.002054214,0.00100708,-0.001905441,0,
00:06.2,-0.002048492,0.001029968,-0.001911163,0,
00:06.2,-0.002059937,0.001041412,-0.001911163,0,
00:06.2,-0.002088547,0.001001358,-0.001945496,0,
00:06.2,-0.002077103,0.001024246,-0.001974106,0,
00:06.2,-0.002031326,0.001047134,-0.001974106,0,
00:06.2,-0.002059937,0.001012802,-0.001911163,0,
00:06.2,-0.002048492,0.000989914,-0.001853943,0,
00:06.2,-0.002071381,0.001018524,-0.001876831,0,
00:06.2,-0.002048492,0.001121521,-0.001893997,0,
00:06.2,-0.00204277,0.001070023,-0.001893997,0,
00:06.2,-0.002059937,0.000961304,-0.001899719,0,
00:06.2,-0.002065659,0.00103569,-0.001928329,0,
00:06.2,-0.002082825,0.001024246,-0.00195694,0,
00:06.2,-0.002037048,0.001024246,-0.00195694,0,
00:06.2,-0.002037048,0.000984192,-0.001888275,0,
00:06.2,-0.002048492,0.001001358,-0.001865387,0,
00:06.3,-0.002048492,0.001018524,-0.001871109,0,
00:06.3,-0.002071381,0.001024246,-0.001888275,0,
00:06.3,-0.002065659,0.001029968,-0.001916885,0,
00:06.3,-0.002025604,0.001052856,-0.001922607,0,
00:06.3,-0.002025604,0.001018524,-0.001899719,0,
00:06.3,-0.00204277,0.001024246,-0.001974106,0,
00:06.3,-0.002059937,0.001029968,-0.002037048,0,
00:06.3,-0.002065659,0.00103569,-0.001882553,0,
00:06.3,-0.00204277,0.00103569,-0.001796722,0,
00:06.3,-0.002059937,0.000995636,-0.001871109,0,
00:06.3,-0.002071381,0.000984192,-0.001865387,0,
00:06.3,-0.002082825,0.001001358,-0.001865387,0,
00:06.3,-0.002048492,0.001018524,-0.001876831,0,
00:06.3,-0.002037048,0.00103569,-0.001888275,0,
00:06.3,-0.002031326,0.001052856,-0.001945496,0,
00:06.3,-0.00204277,0.001064301,-0.001928329,0,
00:06.3,-0.002077103,0.00097847,-0.001876831,0,
00:06.3,-0.002082825,0.00097847,-0.001853943,0,
00:06.3,-0.002071381,0.001029968,-0.001848221,0,
00:06.3,-0.002082825,0.001012802,-0.001871109,0,
00:06.3,-0.002008438,0.001029968,-0.001871109,0,
00:06.3,-0.00201416,0.001041412,-0.001888275,0,
00:06.3,-0.002054214,0.001075745,-0.001899719,0,
00:06.3,-0.002077103,0.001001358,-0.001882553,0,
00:06.3,-0.002082825,0.000984192,-0.001928329,0,
00:06.4,-0.002065659,0.001001358,-0.001899719,0,
00:06.4,-0.002065659,0.001001358,-0.001808167,0,
00:06.4,-0.002059937,0.001001358,-0.001876831,0,
00:06.4,-0.002071381,0.000995636,-0.001905441,0,
00:06.4,-0.002071381,0.001024246,-0.001865387,0,
00:06.4,-0.002065659,0.001052856,-0.001905441,0,
00:06.4,-0.002031326,0.001087189,-0.001922607,0,
00:06.4,-0.002025604,0.001047134,-0.001865387,0,
00:06.4,-0.00204277,0.001041412,-0.001825333,0,
00:06.4,-0.002054214,0.001047134,-0.001859665,0,
00:06.4,-0.002082825,0.000967026,-0.001871109,0,
00:06.4,-0.002094269,0.000967026,-0.001899719,0,
00:06.4,-0.002059937,0.001001358,-0.001916885,0,
00:06.4,-0.002037048,0.001029968,-0.001848221,0,
00:06.4,-0.00204277,0.001024246,-0.001853943,0,
00:06.4,-0.002048492,0.001052856,-0.001882553,0,
00:06.4,-0.002065659,0.001029968,-0.001882553,0,
00:06.4,-0.002082825,0.001001358,-0.001853943,0,
00:06.4,-0.002065659,0.001029968,-0.001853943,0,
00:06.4,-0.002077103,0.001052856,-0.001899719,0,
00:06.4,-0.002059937,0.000961304,-0.001876831,0,
00:06.4,-0.002059937,0.001029968,-0.001853943,0,
00:06.4,-0.002099991,0.001029968,-0.001876831,0,
00:06.4,-0.002077103,0.001001358,-0.001871109,0,
00:06.4,-0.002031326,0.00103569,-0.001865387,0,
00:06.5,-0.00204277,0.001029968,-0.001888275,0,
00:06.5,-0.002037048,0.001001358,-0.001888275,0,
00:06.5,-0.002054214,0.000995636,-0.001848221,0,
00:06.5,-0.002054214,0.001018524,-0.001865387,0,
00:06.5,-0.002037048,0.001070023,-0.001888275,0,
00:06.5,-0.002037048,0.001087189,-0.00195694,0,
00:06.5,-0.002059937,0.001041412,-0.001951218,0,
00:06.5,-0.002111435,0.000984192,-0.001819611,0,
00:06.5,-0.002088547,0.000984192,-0.001808167,0,
00:06.5,-0.002059937,0.000995636,-0.001876831,0,
00:06.5,-0.002059937,0.001001358,-0.001819611,0,
00:06.5,-0.002082825,0.001012802,-0.001825333,0,
00:06.5,-0.002048492,0.001024246,-0.001842499,0,
00:06.5,-0.002031326,0.001018524,-0.001865387,0,
00:06.5,-0.002059937,0.00100708,-0.001882553,0,
00:06.5,-0.00204277,0.001087189,-0.001871109,0,
00:06.5,-0.002054214,0.001041412,-0.001876831,0,
00:06.5,-0.002048492,0.000995636,-0.001882553,0,
00:06.5,-0.002105713,0.001047134,-0.001893997,0,
00:06.5,-0.002099991,0.000989914,-0.001853943,0,
00:06.5,-0.002037048,0.000995636,-0.001865387,0,
00:06.5,-0.002054214,0.001041412,-0.001853943,0,
00:06.5,-0.002059937,0.00100708,-0.001853943,0,
00:06.5,-0.00204277,0.000995636,-0.001882553,0,
00:06.5,-0.002048492,0.001001358,-0.001911163,0,
00:06.6,-0.002037048,0.00100708,-0.001819611,0,
00:06.6,-0.002019882,0.001064301,-0.001865387,0,
00:06.6,-0.002059937,0.001024246,-0.001899719,0,
00:06.6,-0.002059937,0.000995636,-0.001853943,0,
00:06.6,-0.002077103,0.00097847,-0.001819611,0,
00:06.6,-0.002082825,0.000984192,-0.001876831,0,
00:06.6,-0.002054214,0.001012802,-0.001899719,0,
00:06.6,-0.002059937,0.001041412,-0.001848221,0,
00:06.6,-0.002059937,0.001029968,-0.001836777,0,
00:06.6,-0.00204277,0.00100708,-0.001848221,0,
00:06.6,-0.002054214,0.001029968,-0.001911163,0,
00:06.6,-0.002088547,0.001047134,-0.001888275,0,
00:06.6,-0.002088547,0.001012802,-0.001848221,0,
00:06.6,-0.002048492,0.001012802,-0.001911163,0,
00:06.6,-0.002037048,0.000984192,-0.001831055,0,
00:06.6,-0.002019882,0.001024246,-0.001831055,0,
00:06.6,-0.002071381,0.001018524,-0.001848221,0,
00:06.6,-0.002088547,0.001024246,-0.001819611,0,
00:06.6,-0.002071381,0.000984192,-0.001859665,0,
00:06.6,-0.002077103,0.000984192,-0.001888275,0,
00:06.6,-0.00204277,0.00100708,-0.001853943,0,
00:06.6,-0.002048492,0.001024246,-0.001882553,0,
00:06.6,-0.002054214,0.001029968,-0.001905441,0,
00:06.6,-0.002059937,0.000989914,-0.001893997,0,
00:06.6,-0.002054214,0.00100708,-0.001813889,0,
00:06.7,-0.002059937,0.001029968,-0.001831055,0,
00:06.7,-0.002071381,0.001012802,-0.001836777,0,
00:06.7,-0.002077103,0.001018524,-0.001859665,0,
00:06.7,-0.002054214,0.00100708,-0.001853943,0,
00:06.7,-0.002037048,0.001081467,-0.001899719,0,
00:06.7,-0.002071381,0.001070023,-0.001876831,0,
00:06.7,-0.002094269,0.00094986,-0.001836777,0,
00:06.7,-0.002065659,0.000984192,-0.001848221,0,
00:06.7,-0.002048492,0.001001358,-0.001842499,0,
00:06.7,-0.002048492,0.001018524,-0.001831055,0,
00:06.7,-0.00204277,0.001070023,-0.001848221,0,
00:06.7,-0.002065659,0.00100708,-0.001899719,0,
00:06.7,-0.002077103,0.000984192,-0.001836777,0,
00:06.7,-0.002077103,0.001047134,-0.001802444,0,
00:06.7,-0.002082825,0.00097847,-0.001882553,0,
00:06.7,-0.00204277,0.000932693,-0.001876831,0,
00:06.7,-0.002059937,0.001075745,-0.001882553,0,
00:06.7,-0.002059937,0.001047134,-0.001848221,0,
00:06.7,-0.002065659,0.000995636,-0.001882553,0,
00:06.7,-0.002059937,0.001012802,-0.001871109,0,
00:06.7,-0.00204277,0.001070023,-0.001848221,0,
00:06.7,-0.002054214,0.001064301,-0.001882553,0,
00:06.7,-0.002088547,0.001018524,-0.001842499,0,
00:06.7,-0.002094269,0.000967026,-0.001876831,0,
00:06.7,-0.002048492,0.000984192,-0.001859665,0,
00:06.8,-0.002059937,0.00100708,-0.001848221,0,
00:06.8,-0.002082825,0.00103569,-0.001813889,0,
00:06.8,-0.002065659,0.001064301,-0.001859665,0,
00:06.8,-0.002037048,0.001012802,-0.001865387,0,
00:06.8,-0.002054214,0.00100708,-0.001853943,0,
00:06.8,-0.002059937,0.00100708,-0.001853943,0,
00:06.8,-0.002082825,0.001029968,-0.001865387,0,
00:06.8,-0.002082825,0.000984192,-0.001871109,0,
00:06.8,-0.002077103,0.000972748,-0.001842499,0,
00:06.8,-0.002088547,0.000984192,-0.001865387,0,
00:06.8,-0.002065659,0.001052856,-0.001893997,0,
00:06.8,-0.002031326,0.001070023,-0.001871109,0,
00:06.8,-0.002048492,0.00100708,-0.001871109,0,
00:06.8,-0.002037048,0.000995636,-0.001808167,0,
00:06.8,-0.002048492,0.001029968,-0.001808167,0,
00:06.8,-0.002054214,0.001052856,-0.001871109,0,
00:06.8,-0.00204277,0.001024246,-0.001865387,0,
00:06.8,-0.002054214,0.001029968,-0.001951218,0,
00:06.8,-0.002077103,0.001041412,-0.001836777,0,
00:06.8,-0.002099991,0.001012802,-0.001808167,0,
00:06.8,-0.002071381,0.001024246,-0.001865387,0,
00:06.8,-0.002037048,0.00100708,-0.001842499,0,
00:06.8,-0.002054214,0.000984192,-0.001825333,0,
00:06.8,-0.002048492,0.00100708,-0.001831055,0,
00:06.8,-0.002065659,0.00100708,-0.001842499,0,
00:06.9,-0.002065659,0.001018524,-0.001853943,0,
00:06.9,-0.002065659,0.00103569,-0.001916885,0,
00:06.9,-0.002059937,0.001029968,-0.001945496,0,
00:06.9,-0.002099991,0.001018524,-0.001842499,0,
00:06.9,-0.002065659,0.000995636,-0.001853943,0,
00:06.9,-0.002048492,0.000995636,-0.001831055,0,
00:06.9,-0.002037048,0.00103569,-0.001785278,0,
00:06.9,-0.002048492,0.001064301,-0.001876831,0,
00:06.9,-0.002065659,0.001024246,-0.001888275,0,
00:06.9,-0.002048492,0.00100708,-0.001876831,0,
00:06.9,-0.00204277,0.001041412,-0.001928329,0,
00:06.9,-0.002048492,0.001029968,-0.001836777,0,
00:06.9,-0.002065659,0.001024246,-0.001836777,0,
00:06.9,-0.002099991,0.00100708,-0.001836777,0,
00:06.9,-0.002088547,0.00100708,-0.001825333,0,
00:06.9,-0.002025604,0.001029968,-0.001825333,0,
00:06.9,-0.002054214,0.001012802,-0.001853943,0,
00:06.9,-0.002077103,0.000989914,-0.001905441,0,
00:06.9,-0.002071381,0.000972748,-0.001831055,0,
00:06.9,-0.002059937,0.001018524,-0.001836777,0,
00:06.9,-0.002059937,0.001058578,-0.001911163,0,
00:06.9,-0.002059937,0.00103569,-0.001871109,0,
00:06.9,-0.002088547,0.001012802,-0.001934052,0,
00:06.9,-0.00204277,0.00100708,-0.001865387,0,
00:06.9,-0.00204277,0.001001358,-0.001750946,0,
00:07.0,-0.002054214,0.001070023,-0.001802444,0,
00:07.0,-0.002071381,0.001075745,-0.001842499,0,
00:07.0,-0.002059937,0.001047134,-0.001853943,0,
00:07.0,-0.002077103,0.000955582,-0.001871109,0,
00:07.0,-0.002077103,0.000989914,-0.001922607,0,
00:07.0,-0.002059937,0.00103569,-0.001922607,0,
00:07.0,-0.002071381,0.001064301,-0.001848221,0,
00:07.0,-0.002059937,0.001041412,-0.001882553,0,
00:07.0,-0.002065659,0.000989914,-0.001865387,0,
00:07.0,-0.002048492,0.000972748,-0.001808167,0,
00:07.0,-0.002054214,0.000972748,-0.001831055,0,
00:07.0,-0.002065659,0.000984192,-0.001831055,0,
00:00:07,-0.002065659,0.001012802,-0.001848221,0,
00:07.0,-0.002037048,0.001018524,-0.001882553,0,
00:07.0,-0.002071381,0.001052856,-0.001871109,0,
00:07.0,-0.002037048,0.00103569,-0.001865387,0,
00:07.0,-0.002048492,0.000989914,-0.001871109,0,
00:07.0,-0.002071381,0.001041412,-0.001836777,0,
00:07.0,-0.002059937,0.001012802,-0.001876831,0,
00:07.0,-0.002082825,0.000961304,-0.001865387,0,
00:07.0,-0.002065659,0.001001358,-0.001905441,0,
00:07.0,-0.002025604,0.001087189,-0.001911163,0,
00:07.0,-0.002002716,0.00103569,-0.001836777,0,
00:07.0,-0.002037048,0.001047134,-0.001848221,0,
00:07.0,-0.002071381,0.000995636,-0.001876831,0,
00:07.1,-0.002059937,0.000944138,-0.001865387,0,
00:07.1,-0.002054214,0.001001358,-0.001865387,0,
00:07.1,-0.002059937,0.001001358,-0.001842499,0,
00:07.1,-0.002031326,0.001001358,-0.001888275,0,
00:07.1,-0.002025604,0.001024246,-0.001893997,0,
00:07.1,-0.002048492,0.001012802,-0.001848221,0,
00:07.1,-0.002059937,0.000984192,-0.001842499,0,
00:07.1,-0.002054214,0.001012802,-0.001831055,0,
00:07.1,-0.002059937,0.001018524,-0.001848221,0,
00:07.1,-0.002065659,0.00103569,-0.001859665,0,
00:07.1,-0.002065659,0.001018524,-0.001848221,0,
00:07.1,-0.002088547,0.001001358,-0.001865387,0,
00:07.1,-0.002082825,0.00100708,-0.001905441,0,
00:07.1,-0.002048492,0.00100708,-0.001876831,0,
00:07.1,-0.002037048,0.001024246,-0.001876831,0,
00:07.1,-0.002065659,0.001070023,-0.001859665,0,
00:07.1,-0.002059937,0.00103569,-0.001882553,0,
00:07.1,-0.002059937,0.00097847,-0.001905441,0,
00:07.1,-0.002065659,0.001018524,-0.001876831,0,
00:07.1,-0.002071381,0.001075745,-0.001911163,0,
00:07.1,-0.002054214,0.001018524,-0.001808167,0,
00:07.1,-0.002054214,0.000984192,-0.001848221,0,
00:07.1,-0.002071381,0.001001358,-0.001911163,0,
00:07.1,-0.002059937,0.001024246,-0.001899719,0,
00:07.1,-0.002059937,0.00103569,-0.001859665,0,
00:07.2,-0.002059937,0.001047134,-0.001836777,0,
00:07.2,-0.002048492,0.000984192,-0.001865387,0,
00:07.2,-0.002088547,0.001018524,-0.001871109,0,
00:07.2,-0.002105713,0.001029968,-0.001859665,0,
00:07.2,-0.002065659,0.001018524,-0.001842499,0,
00:07.2,-0.002048492,0.001024246,-0.001865387,0,
00:07.2,-0.002065659,0.001001358,-0.001871109,0,
00:07.2,-0.002065659,0.001041412,-0.001853943,0,
00:07.2,-0.002117157,0.001064301,-0.001882553,0,
00:07.2,-0.002082825,0.00100708,-0.001911163,0,
00:07.2,-0.002019882,0.001018524,-0.001871109,0,
00:07.2,-0.002071381,0.001029968,-0.001853943,0,
00:07.2,-0.002065659,0.00103569,-0.001853943,0,
00:07.2,-0.002054214,0.001018524,-0.001836777,0,
00:07.2,-0.002054214,0.000967026,-0.001882553,0,
00:07.2,-0.002077103,0.00097847,-0.001928329,0,
00:07.2,-0.002065659,0.001012802,-0.001893997,0,
00:07.2,-0.002082825,0.001012802,-0.001865387,0,
00:07.2,-0.002048492,0.00100708,-0.001876831,0,
00:07.2,-0.002065659,0.000995636,-0.001859665,0,
00:07.2,-0.002059937,0.001024246,-0.001876831,0,
00:07.2,-0.002065659,0.001012802,-0.001888275,0,
00:07.2,-0.002088547,0.001018524,-0.001848221,0,
00:07.2,-0.002071381,0.001047134,-0.001842499,0,
00:07.2,-0.002065659,0.001018524,-0.001865387,0,
00:07.3,-0.002117157,0.000984192,-0.001882553,0,
00:07.3,-0.002059937,0.001024246,-0.001831055,0,
00:07.3,-0.002059937,0.001058578,-0.001842499,0,
00:07.3,-0.002065659,0.001018524,-0.001848221,0,
00:07.3,-0.002065659,0.001018524,-0.001888275,0,
00:07.3,-0.002065659,0.001064301,-0.001882553,0,
00:07.3,-0.002054214,0.001098633,-0.001888275,0,
00:07.3,-0.002037048,0.000989914,-0.001893997,0,
00:07.3,-0.002088547,0.000932693,-0.001899719,0,
00:07.3,-0.002071381,0.000972748,-0.001922607,0,
00:07.3,-0.002059937,0.000972748,-0.001853943,0,
00:07.3,-0.002071381,0.001018524,-0.001859665,0,
00:07.3,-0.002065659,0.001018524,-0.001882553,0,
00:07.3,-0.002071381,0.00103569,-0.001911163,0,
00:07.3,-0.002094269,0.001018524,-0.00195694,0,
00:07.3,-0.002099991,0.000989914,-0.001853943,0,
00:07.3,-0.002082825,0.001001358,-0.001819611,0,
00:07.3,-0.002048492,0.00100708,-0.001865387,0,
00:07.3,-0.002037048,0.00103569,-0.001871109,0,
00:07.3,-0.002048492,0.00103569,-0.001871109,0,
00:07.3,-0.002065659,0.001052856,-0.001882553,0,
00:07.3,-0.002082825,0.001012802,-0.001893997,0,
00:07.3,-0.002054214,0.001012802,-0.001882553,0,
00:07.3,-0.002059937,0.00103569,-0.001882553,0,
00:07.3,-0.002088547,0.001029968,-0.001831055,0,
00:07.4,-0.002065659,0.001081467,-0.001876831,0,
00:07.4,-0.002048492,0.001012802,-0.001876831,0,
00:07.4,-0.002065659,0.00097847,-0.001888275,0,
00:07.4,-0.002082825,0.00097847,-0.001893997,0,
00:07.4,-0.002065659,0.000995636,-0.001876831,0,
00:07.4,-0.002071381,0.001001358,-0.001876831,0,
00:07.4,-0.002082825,0.001012802,-0.001876831,0,
00:07.4,-0.002082825,0.000995636,-0.001888275,0,
00:07.4,-0.002054214,0.001012802,-0.00195694,0,
00:07.4,-0.00204277,0.001052856,-0.001934052,0,
00:07.4,-0.002088547,0.001041412,-0.001939774,0,
00:07.4,-0.002117157,0.001018524,-0.001865387,0,
00:07.4,-0.002065659,0.001081467,-0.001859665,0,
00:07.4,-0.002071381,0.001121521,-0.001865387,0,
00:07.4,-0.00204277,0.001110077,-0.001842499,0,
00:07.4,-0.002031326,0.001110077,-0.001871109,0,
00:07.4,-0.002048492,0.001047134,-0.001893997,0,
00:07.4,-0.002082825,0.001029968,-0.001876831,0,
00:07.4,-0.002094269,0.00103569,-0.001865387,0,
00:07.4,-0.002065659,0.001058578,-0.001893997,0,
00:07.4,-0.002071381,0.001075745,-0.001876831,0,
00:07.4,-0.002077103,0.001064301,-0.001888275,0,
00:07.4,-0.002077103,0.001070023,-0.001905441,0,
00:07.4,-0.002077103,0.001104355,-0.001922607,0,
00:07.4,-0.002025604,0.001115799,-0.001934052,0,
00:07.5,-0.00201416,0.001173019,-0.001916885,0,
00:07.5,-0.002037048,0.001041412,-0.001893997,0,
00:07.5,-0.00204277,0.001029968,-0.001865387,0,
00:07.5,-0.002059937,0.001075745,-0.001865387,0,
00:07.5,-0.002059937,0.001115799,-0.001951218,0,
00:07.5,-0.002094269,0.001047134,-0.001882553,0,
00:07.5,-0.002088547,0.001029968,-0.001802444,0,
00:07.5,-0.002099991,0.001047134,-0.001871109,0,
00:07.5,-0.002082825,0.001064301,-0.001882553,0,
00:07.5,-0.002048492,0.001070023,-0.001893997,0,
00:07.5,-0.002054214,0.001087189,-0.00195694,0,
00:07.5,-0.002037048,0.001104355,-0.001939774,0,
00:07.5,-0.002054214,0.001041412,-0.001865387,0,
00:07.5,-0.002065659,0.00103569,-0.001848221,0,
00:07.5,-0.002054214,0.001104355,-0.001876831,0,
00:07.5,-0.00204277,0.001138687,-0.001922607,0,
00:07.5,-0.002082825,0.001052856,-0.001911163,0,
00:07.5,-0.002082825,0.001041412,-0.001859665,0,
00:07.5,-0.002094269,0.001041412,-0.001871109,0,
00:07.5,-0.002082825,0.001041412,-0.001911163,0,
00:07.5,-0.002054214,0.001081467,-0.001905441,0,
00:07.5,-0.002065659,0.001092911,-0.001922607,0,
00:07.5,-0.002037048,0.001138687,-0.001968384,0,
00:07.5,-0.002065659,0.001110077,-0.001893997,0,
00:07.5,-0.002111435,0.001127243,-0.001951218,0,
00:07.6,-0.002099991,0.001087189,-0.001871109,0,
00:07.6,-0.00204277,0.000995636,-0.001848221,0,
00:07.6,-0.002048492,0.001041412,-0.001831055,0,
00:07.6,-0.002054214,0.001058578,-0.001859665,0,
00:07.6,-0.002059937,0.001058578,-0.001882553,0,
00:07.6,-0.002071381,0.001064301,-0.001893997,0,
00:07.6,-0.002071381,0.001064301,-0.001905441,0,
00:07.6,-0.002077103,0.001070023,-0.001899719,0,
00:07.6,-0.002082825,0.001070023,-0.001893997,0,
00:07.6,-0.002088547,0.001070023,-0.001905441,0,
00:07.6,-0.002145767,0.001075745,-0.001911163,0,
00:07.6,-0.002077103,0.001115799,-0.001968384,0,
00:07.6,-0.001934052,0.001155853,-0.002151489,0,
00:07.6,-0.002031326,0.001167297,-0.002019882,0,
00:07.6,-0.002037048,0.001138687,-0.001796722,0,
00:07.6,-0.002048492,0.001052856,-0.001853943,0,
00:07.6,-0.002105713,0.001041412,-0.001842499,0,
00:07.6,-0.002094269,0.00103569,-0.001865387,0,
00:07.6,-0.002077103,0.001041412,-0.001888275,0,
00:07.6,-0.002077103,0.001047134,-0.001871109,0,
00:07.6,-0.002088547,0.001047134,-0.001893997,0,
00:07.6,-0.002077103,0.001058578,-0.001905441,0,
00:07.6,-0.002088547,0.001058578,-0.001911163,0,
00:07.6,-0.002077103,0.001064301,-0.001916885,0,
00:07.6,-0.002071381,0.001064301,-0.001922607,0,
00:07.7,-0.002071381,0.001058578,-0.001922607,0,
00:07.7,-0.002082825,0.001058578,-0.001928329,0,
00:07.7,-0.002105713,0.001058578,-0.001922607,0,
00:07.7,-0.002140045,0.001052856,-0.001928329,0,
00:07.7,-0.002185822,0.001041412,-0.001951218,0,
00:07.7,-0.002037048,0.001064301,-0.00195694,0,
00:07.7,-0.001974106,0.001087189,-0.001996994,0,
00:07.7,-0.002031326,0.001092911,-0.002031326,0,
00:07.7,-0.00198555,0.001161575,-0.001979828,0,
00:07.7,-0.002037048,0.001121521,-0.001899719,0,
00:07.7,-0.002082825,0.00103569,-0.001922607,0,
00:07.7,-0.002071381,0.001058578,-0.001865387,0,
00:07.7,-0.002071381,0.001081467,-0.001819611,0,
00:07.7,-0.002077103,0.00103569,-0.001882553,0,
00:07.7,-0.002065659,0.001070023,-0.001916885,0,
00:07.7,-0.002082825,0.001092911,-0.001916885,0,
00:07.7,-0.002071381,0.001104355,-0.001905441,0,
00:07.7,-0.002077103,0.001087189,-0.001911163,0,
00:07.7,-0.002094269,0.001052856,-0.001916885,0,
00:07.7,-0.002099991,0.001041412,-0.001951218,0,
00:07.7,-0.002094269,0.001070023,-0.001928329,0,
00:07.7,-0.002088547,0.001081467,-0.001922607,0,
00:07.7,-0.002082825,0.001029968,-0.001951218,0,
00:07.7,-0.002077103,0.001052856,-0.00195694,0,
00:07.7,-0.002065659,0.001081467,-0.00195694,0,
00:07.8,-0.002065659,0.001087189,-0.001974106,0,
00:07.8,-0.002065659,0.001081467,-0.00195694,0,
00:07.8,-0.002059937,0.001064301,-0.001882553,0,
00:07.8,-0.002037048,0.001064301,-0.001911163,0,
00:07.8,-0.00204277,0.001081467,-0.00195694,0,
00:07.8,-0.002054214,0.001081467,-0.00195694,0,
00:07.8,-0.002059937,0.001075745,-0.001934052,0,
00:07.8,-0.002077103,0.001064301,-0.001945496,0,
00:07.8,-0.002088547,0.001070023,-0.001911163,0,
00:07.8,-0.002082825,0.001098633,-0.001945496,0,
00:07.8,-0.002054214,0.001064301,-0.00195694,0,
00:07.8,-0.002077103,0.001075745,-0.001945496,0,
00:07.8,-0.002094269,0.001115799,-0.00198555,0,
00:07.8,-0.002094269,0.001058578,-0.001916885,0,
00:07.8,-0.002082825,0.001064301,-0.001905441,0,
00:07.8,-0.002088547,0.001098633,-0.001939774,0,
00:07.8,-0.002088547,0.001087189,-0.001911163,0,
00:07.8,-0.002099991,0.001041412,-0.001911163,0,
00:07.8,-0.002088547,0.001041412,-0.001939774,0,
00:07.8,-0.002082825,0.001058578,-0.001962662,0,
00:07.8,-0.002065659,0.001064301,-0.001951218,0,
00:07.8,-0.002037048,0.001115799,-0.001939774,0,
00:07.8,-0.002025604,0.001132965,-0.001945496,0,
00:07.8,-0.002077103,0.001070023,-0.002008438,0,
00:07.8,-0.002099991,0.001064301,-0.001962662,0,
00:07.9,-0.002082825,0.001047134,-0.001916885,0,
00:07.9,-0.002105713,0.001052856,-0.001899719,0,
00:07.9,-0.002059937,0.001075745,-0.001928329,0,
00:07.9,-0.002025604,0.001104355,-0.001968384,0,
00:07.9,-0.002031326,0.001138687,-0.001962662,0,
00:07.9,-0.002071381,0.001121521,-0.001911163,0,
00:07.9,-0.002077103,0.001087189,-0.001934052,0,
00:07.9,-0.002088547,0.001087189,-0.001934052,0,
00:07.9,-0.002088547,0.001024246,-0.001945496,0,
00:07.9,-0.002065659,0.001052856,-0.002037048,0,
00:07.9,-0.002059937,0.001070023,-0.001928329,0,
00:07.9,-0.002065659,0.001104355,-0.001888275,0,
00:07.9,-0.002071381,0.001081467,-0.001962662,0,
00:07.9,-0.002088547,0.001110077,-0.001951218,0,
00:07.9,-0.002099991,0.001070023,-0.001934052,0,
00:07.9,-0.00204277,0.001081467,-0.00198555,0,
00:07.9,-0.002065659,0.001121521,-0.001974106,0,
00:07.9,-0.002082825,0.001075745,-0.002054214,0,
00:07.9,-0.002077103,0.001092911,-0.001928329,0,
00:07.9,-0.002088547,0.001052856,-0.001865387,0,
00:07.9,-0.00204277,0.001070023,-0.001916885,0,
00:07.9,-0.002019882,0.001087189,-0.001945496,0,
00:07.9,-0.002031326,0.001075745,-0.001939774,0,
00:07.9,-0.002065659,0.001075745,-0.001945496,0,
00:07.9,-0.002077103,0.001081467,-0.001939774,0,
00:08.0,-0.002082825,0.001081467,-0.001979828,0,
00:08.0,-0.002065659,0.001092911,-0.001951218,0,
00:08.0,-0.00204277,0.001081467,-0.001962662,0,
00:08.0,-0.002019882,0.001052856,-0.00195694,0,
00:08.0,-0.002037048,0.001070023,-0.001951218,0,
00:08.0,-0.002065659,0.001087189,-0.001945496,0,
00:08.0,-0.00204277,0.001092911,-0.001905441,0,
00:08.0,-0.002054214,0.001098633,-0.001962662,0,
00:08.0,-0.002071381,0.001110077,-0.00198555,0,
00:08.0,-0.002059937,0.001098633,-0.001962662,0,
00:08.0,-0.002059937,0.001041412,-0.001934052,0,
00:08.0,-0.002071381,0.001058578,-0.001928329,0,
00:00:08,-0.00204277,0.001098633,-0.001974106,0,
00:08.0,-0.002019882,0.001132965,-0.001996994,0,
00:08.0,-0.002031326,0.001104355,-0.001951218,0,
00:08.0,-0.002054214,0.001058578,-0.001916885,0,
00:08.0,-0.002054214,0.001058578,-0.001968384,0,
00:08.0,-0.002065659,0.001058578,-0.001968384,0,
00:08.0,-0.002077103,0.001052856,-0.001934052,0,
00:08.0,-0.002054214,0.001070023,-0.001945496,0,
00:08.0,-0.00201416,0.001092911,-0.001939774,0,
00:08.0,-0.00198555,0.001121521,-0.002019882,0,
00:08.0,-0.002031326,0.001115799,-0.001996994,0,
00:08.0,-0.002054214,0.001087189,-0.001922607,0,
00:08.0,-0.002037048,0.001064301,-0.001934052,0,
00:08.1,-0.002048492,0.001041412,-0.001945496,0,
00:08.1,-0.002054214,0.001081467,-0.001974106,0,
00:08.1,-0.002054214,0.001087189,-0.001934052,0,
00:08.1,-0.002037048,0.001110077,-0.001968384,0,
00:08.1,-0.00204277,0.001127243,-0.001962662,0,
00:08.1,-0.002077103,0.001064301,-0.00195694,0,
00:08.1,-0.002082825,0.001058578,-0.001968384,0,
00:08.1,-0.002082825,0.001070023,-0.001922607,0,
00:08.1,-0.002031326,0.001098633,-0.001951218,0,
00:08.1,-0.002031326,0.001121521,-0.001968384,0,
00:08.1,-0.002065659,0.001098633,-0.001951218,0,
00:08.1,-0.002082825,0.001075745,-0.001934052,0,
00:08.1,-0.00201416,0.001064301,-0.00198555,0,
00:08.1,-0.00204277,0.001058578,-0.001968384,0,
00:08.1,-0.002048492,0.001047134,-0.001928329,0,
00:08.1,-0.002048492,0.001075745,-0.00195694,0,
00:08.1,-0.002048492,0.001081467,-0.001945496,0,
00:08.1,-0.002031326,0.001092911,-0.001991272,0,
00:08.1,-0.002008438,0.001195908,-0.002037048,0,
00:08.1,-0.002054214,0.001127243,-0.002054214,0,
00:08.1,-0.002071381,0.001081467,-0.001922607,0,
00:08.1,-0.002048492,0.001070023,-0.00198555,0,
00:08.1,-0.00204277,0.001041412,-0.002025604,0,
00:08.1,-0.002077103,0.001075745,-0.001882553,0,
00:08.1,-0.002054214,0.001058578,-0.001888275,0,
00:08.2,-0.002048492,0.001070023,-0.001905441,0,
00:08.2,-0.002048492,0.001064301,-0.001934052,0,
00:08.2,-0.002059937,0.001070023,-0.001945496,0,
00:08.2,-0.002082825,0.001070023,-0.001951218,0,
00:08.2,-0.002099991,0.001064301,-0.00195694,0,
00:08.2,-0.002128601,0.001058578,-0.001962662,0,
00:08.2,-0.002077103,0.001064301,-0.001962662,0,
00:08.2,-0.002025604,0.001075745,-0.001962662,0,
00:08.2,-0.002025604,0.001081467,-0.00195694,0,
00:08.2,-0.002002716,0.001104355,-0.001962662,0,
00:08.2,-0.002037048,0.001144409,-0.002025604,0,
00:08.2,-0.002019882,0.001127243,-0.002111435,0,
00:08.2,-0.001991272,0.001178741,-0.001939774,0,
00:08.2,-0.002054214,0.001115799,-0.001962662,0,
00:08.2,-0.002082825,0.001087189,-0.001979828,0,
00:08.2,-0.002048492,0.001052856,-0.001888275,0,
00:08.2,-0.00204277,0.001018524,-0.001939774,0,
00:08.2,-0.002065659,0.001047134,-0.001934052,0,
00:08.2,-0.002088547,0.001052856,-0.001951218,0,
00:08.2,-0.002054214,0.001064301,-0.001934052,0,
00:08.2,-0.002059937,0.001075745,-0.00195694,0,
00:08.2,-0.002082825,0.001070023,-0.001962662,0,
00:08.2,-0.002099991,0.001070023,-0.001968384,0,
00:08.2,-0.002059937,0.001075745,-0.001968384,0,
00:08.2,-0.002037048,0.001092911,-0.001996994,0,
00:08.3,-0.002037048,0.001098633,-0.002008438,0,
00:08.3,-0.002048492,0.001098633,-0.001922607,0,
00:08.3,-0.002077103,0.001075745,-0.001962662,0,
00:08.3,-0.002065659,0.001064301,-0.001962662,0,
00:08.3,-0.002054214,0.001070023,-0.001968384,0,
00:08.3,-0.002105713,0.00103569,-0.001996994,0,
00:08.3,-0.002077103,0.001047134,-0.001968384,0,
00:08.3,-0.002019882,0.001110077,-0.001945496,0,
00:08.3,-0.001996994,0.001161575,-0.002002716,0,
00:08.3,-0.00201416,0.001138687,-0.002105713,0,
00:08.3,-0.002025604,0.001110077,-0.001974106,0,
00:08.3,-0.002071381,0.001029968,-0.001945496,0,
00:08.3,-0.002082825,0.001029968,-0.001928329,0,
00:08.3,-0.002082825,0.001070023,-0.001974106,0,
00:08.3,-0.002077103,0.001081467,-0.001951218,0,
00:08.3,-0.002059937,0.001092911,-0.001962662,0,
00:08.3,-0.002065659,0.001075745,-0.001962662,0,
00:08.3,-0.002071381,0.001087189,-0.001951218,0,
00:08.3,-0.002088547,0.001047134,-0.00204277,0,
00:08.3,-0.002071381,0.001052856,-0.001951218,0,
00:08.3,-0.002059937,0.001092911,-0.001962662,0,
00:08.3,-0.002071381,0.001075745,-0.001962662,0,
00:08.3,-0.002031326,0.001081467,-0.001979828,0,
00:08.3,-0.002059937,0.001092911,-0.001991272,0,
00:08.3,-0.002059937,0.001127243,-0.001974106,0,
00:08.4,-0.00204277,0.001075745,-0.002031326,0,
00:08.4,-0.002059937,0.001041412,-0.001951218,0,
00:08.4,-0.002059937,0.001052856,-0.001962662,0,
00:08.4,-0.002059937,0.001087189,-0.00195694,0,
00:08.4,-0.002065659,0.001104355,-0.001991272,0,
00:08.4,-0.002065659,0.001064301,-0.00204277,0,
00:08.4,-0.002054214,0.001075745,-0.001979828,0,
00:08.4,-0.002054214,0.001070023,-0.001928329,0,
00:08.4,-0.002065659,0.001075745,-0.00195694,0,
00:08.4,-0.002077103,0.001075745,-0.001951218,0,
00:08.4,-0.002054214,0.001092911,-0.001962662,0,
00:08.4,-0.002054214,0.001041412,-0.001939774,0,
00:08.4,-0.002054214,0.001029968,-0.002031326,0,
00:08.4,-0.002077103,0.001052856,-0.00198555,0,
00:08.4,-0.002065659,0.001081467,-0.001951218,0,
00:08.4,-0.002054214,0.001167297,-0.002002716,0,
00:08.4,-0.002059937,0.001098633,-0.001939774,0,
00:08.4,-0.002082825,0.001024246,-0.00198555,0,
00:08.4,-0.002077103,0.001058578,-0.00195694,0,
00:08.4,-0.002048492,0.001081467,-0.00195694,0,
00:08.4,-0.002031326,0.001075745,-0.001979828,0,
00:08.4,-0.002077103,0.001064301,-0.001979828,0,
00:08.4,-0.002054214,0.001081467,-0.001974106,0,
00:08.4,-0.002054214,0.001058578,-0.001974106,0,
00:08.4,-0.002054214,0.001070023,-0.002054214,0,
00:08.5,-0.002065659,0.001081467,-0.002019882,0,
00:08.5,-0.002054214,0.001138687,-0.001968384,0,
00:08.5,-0.002048492,0.001070023,-0.001939774,0,
00:08.5,-0.002031326,0.001047134,-0.001974106,0,
00:08.5,-0.002031326,0.001150131,-0.002008438,0,
00:08.5,-0.00204277,0.001104355,-0.001945496,0,
00:08.5,-0.002059937,0.001047134,-0.001974106,0,
00:08.5,-0.002105713,0.00103569,-0.001996994,0,
00:08.5,-0.002088547,0.001047134,-0.001916885,0,
00:08.5,-0.002065659,0.001110077,-0.001962662,0,
00:08.5,-0.002048492,0.001087189,-0.00201416,0,
00:08.5,-0.002054214,0.001064301,-0.002008438,0,
00:08.5,-0.002082825,0.001041412,-0.00201416,0,
00:08.5,-0.002082825,0.001052856,-0.001928329,0,
00:08.5,-0.002065659,0.001081467,-0.00195694,0,
00:08.5,-0.002071381,0.001075745,-0.00195694,0,
00:08.5,-0.002065659,0.001070023,-0.001968384,0,
00:08.5,-0.002048492,0.001070023,-0.00198555,0,
00:08.5,-0.00204277,0.001087189,-0.001996994,0,
00:08.5,-0.00204277,0.001070023,-0.001979828,0,
00:08.5,-0.002059937,0.001058578,-0.002002716,0,
00:08.5,-0.002054214,0.001075745,-0.002008438,0,
00:08.5,-0.002048492,0.001081467,-0.001974106,0,
00:08.5,-0.002071381,0.001104355,-0.002008438,0,
00:08.5,-0.002059937,0.001081467,-0.001979828,0,
00:08.6,-0.002025604,0.001070023,-0.001962662,0,
00:08.6,-0.002031326,0.001070023,-0.001939774,0,
00:08.6,-0.002037048,0.001138687,-0.00201416,0,
00:08.6,-0.002054214,0.001161575,-0.00201416,0,
00:08.6,-0.002065659,0.001075745,-0.001962662,0,
00:08.6,-0.002059937,0.001058578,-0.002019882,0,
00:08.6,-0.002071381,0.001018524,-0.001991272,0,
00:08.6,-0.002077103,0.001029968,-0.001991272,0,
00:08.6,-0.002059937,0.001041412,-0.00195694,0,
00:08.6,-0.002059937,0.001047134,-0.001945496,0,
00:08.6,-0.002025604,0.001087189,-0.002002716,0,
00:08.6,-0.002037048,0.001087189,-0.002008438,0,
00:08.6,-0.002065659,0.001064301,-0.001962662,0,
00:08.6,-0.002088547,0.001075745,-0.001974106,0,
00:08.6,-0.002054214,0.001052856,-0.001968384,0,
00:08.6,-0.00204277,0.001075745,-0.001968384,0,
00:08.6,-0.002094269,0.001087189,-0.002008438,0,
00:08.6,-0.002077103,0.001115799,-0.001968384,0,
00:08.6,-0.002031326,0.001098633,-0.001974106,0,
00:08.6,-0.002054214,0.001064301,-0.001996994,0,
00:08.6,-0.00204277,0.001081467,-0.00198555,0,
00:08.6,-0.002054214,0.001070023,-0.002025604,0,
00:08.6,-0.002048492,0.001098633,-0.002059937,0,
00:08.6,-0.002019882,0.001144409,-0.002019882,0,
00:08.6,-0.002065659,0.001110077,-0.001962662,0,
00:08.7,-0.002099991,0.001092911,-0.001939774,0,
00:08.7,-0.002071381,0.001047134,-0.002019882,0,
00:08.7,-0.002025604,0.001075745,-0.002048492,0,
00:08.7,-0.002031326,0.001052856,-0.00198555,0,
00:08.7,-0.002048492,0.001041412,-0.001939774,0,
00:08.7,-0.002071381,0.001064301,-0.00195694,0,
00:08.7,-0.002099991,0.001058578,-0.001939774,0,
00:08.7,-0.002071381,0.001058578,-0.00198555,0,
00:08.7,-0.002054214,0.001075745,-0.001979828,0,
00:08.7,-0.002037048,0.001098633,-0.001951218,0,
00:08.7,-0.002054214,0.001081467,-0.002008438,0,
00:08.7,-0.002054214,0.001070023,-0.00201416,0,
00:08.7,-0.002054214,0.001058578,-0.00198555,0,
00:08.7,-0.002065659,0.001070023,-0.001939774,0,
00:08.7,-0.002077103,0.001104355,-0.001991272,0,
00:08.7,-0.002071381,0.001110077,-0.001996994,0,
00:08.7,-0.002037048,0.001064301,-0.001974106,0,
00:08.7,-0.002025604,0.001081467,-0.00198555,0,
00:08.7,-0.002048492,0.001155853,-0.001996994,0,
00:08.7,-0.00204277,0.001167297,-0.00201416,0,
00:08.7,-0.002088547,0.001070023,-0.002019882,0,
00:08.7,-0.002077103,0.001029968,-0.00195694,0,
00:08.7,-0.002048492,0.001029968,-0.001968384,0,
00:08.7,-0.002054214,0.00103569,-0.002037048,0,
00:08.7,-0.00204277,0.001058578,-0.002019882,0,
00:08.8,-0.002094269,0.001075745,-0.002008438,0,
00:08.8,-0.002059937,0.001087189,-0.001979828,0,
00:08.8,-0.00204277,0.001081467,-0.001962662,0,
00:08.8,-0.002054214,0.001087189,-0.00198555,0,
00:08.8,-0.002048492,0.001087189,-0.00195694,0,
00:08.8,-0.002054214,0.001070023,-0.00195694,0,
00:08.8,-0.002082825,0.001064301,-0.001991272,0,
00:08.8,-0.002117157,0.001052856,-0.002008438,0,
00:08.8,-0.002059937,0.001110077,-0.001996994,0,
00:08.8,-0.002025604,0.001110077,-0.001974106,0,
00:08.8,-0.002031326,0.001070023,-0.001991272,0,
00:08.8,-0.002054214,0.001075745,-0.001962662,0,
00:08.8,-0.002099991,0.001058578,-0.001991272,0,
00:08.8,-0.002082825,0.001075745,-0.001991272,0,
00:08.8,-0.002059937,0.001121521,-0.001991272,0,
00:08.8,-0.002031326,0.001104355,-0.002002716,0,
00:08.8,-0.002037048,0.001121521,-0.00204277,0,
00:08.8,-0.002048492,0.001098633,-0.001996994,0,
00:08.8,-0.002054214,0.001070023,-0.00201416,0,
00:08.8,-0.002077103,0.001052856,-0.00198555,0,
00:08.8,-0.002059937,0.001041412,-0.001916885,0,
00:08.8,-0.002059937,0.001047134,-0.00195694,0,
00:08.8,-0.002077103,0.001064301,-0.00198555,0,
00:08.8,-0.002054214,0.001081467,-0.001974106,0,
00:08.8,-0.002037048,0.001098633,-0.001991272,0,
00:08.9,-0.002054214,0.001087189,-0.002037048,0,
00:08.9,-0.002071381,0.001104355,-0.002048492,0,
00:08.9,-0.002082825,0.001081467,-0.00201416,0,
00:08.9,-0.002088547,0.001052856,-0.001991272,0,
00:08.9,-0.002077103,0.001070023,-0.001962662,0,
00:08.9,-0.002054214,0.001058578,-0.001945496,0,
00:08.9,-0.002037048,0.001098633,-0.001945496,0,
00:08.9,-0.002059937,0.001104355,-0.001974106,0,
00:08.9,-0.002065659,0.001058578,-0.001991272,0,
00:08.9,-0.002054214,0.001052856,-0.001991272,0,
00:08.9,-0.002048492,0.001110077,-0.002031326,0,
00:08.9,-0.002048492,0.001092911,-0.002008438,0,
00:08.9,-0.002054214,0.001064301,-0.001996994,0,
00:08.9,-0.002077103,0.001058578,-0.001934052,0,
00:08.9,-0.002065659,0.001110077,-0.002031326,0,
00:08.9,-0.002077103,0.001104355,-0.002059937,0,
00:08.9,-0.002088547,0.00103569,-0.001922607,0,
00:08.9,-0.002048492,0.001098633,-0.001934052,0,
00:08.9,-0.002088547,0.001104355,-0.002002716,0,
00:08.9,-0.002088547,0.001104355,-0.00201416,0,
00:08.9,-0.002082825,0.001087189,-0.001974106,0,
00:08.9,-0.002065659,0.001075745,-0.001974106,0,
00:08.9,-0.002054214,0.001081467,-0.00198555,0,
00:08.9,-0.002048492,0.001081467,-0.001979828,0,
00:08.9,-0.002099991,0.001070023,-0.002002716,0,
00:09.0,-0.002099991,0.001075745,-0.001951218,0,
00:09.0,-0.002059937,0.001104355,-0.001974106,0,
00:09.0,-0.002077103,0.001058578,-0.001996994,0,
00:09.0,-0.002071381,0.001058578,-0.002019882,0,
00:09.0,-0.002099991,0.001121521,-0.002019882,0,
00:09.0,-0.002082825,0.001087189,-0.001968384,0,
00:09.0,-0.002071381,0.001070023,-0.001962662,0,
00:09.0,-0.002059937,0.001087189,-0.00201416,0,
00:09.0,-0.002048492,0.001081467,-0.001991272,0,
00:09.0,-0.002048492,0.001075745,-0.001968384,0,
00:09.0,-0.002054214,0.001064301,-0.001979828,0,
00:09.0,-0.002094269,0.001087189,-0.002008438,0,
00:00:09,-0.002128601,0.001087189,-0.002008438,0,
00:09.0,-0.002094269,0.001075745,-0.001962662,0,
00:09.0,-0.002059937,0.001190186,-0.002025604,0,
00:09.0,-0.002077103,0.001150131,-0.002059937,0,
00:09.0,-0.002094269,0.00100708,-0.001979828,0,
00:09.0,-0.002071381,0.001070023,-0.001968384,0,
00:09.0,-0.002031326,0.001115799,-0.00198555,0,
00:09.0,-0.002077103,0.001081467,-0.001979828,0,
00:09.0,-0.002065659,0.001064301,-0.001945496,0,
00:09.0,-0.002054214,0.001047134,-0.001962662,0,
00:09.0,-0.002082825,0.001075745,-0.001979828,0,
00:09.0,-0.002105713,0.001081467,-0.001996994,0,
00:09.0,-0.002117157,0.001087189,-0.002002716,0,
00:09.1,-0.002071381,0.001104355,-0.002019882,0,
00:09.1,-0.002059937,0.001081467,-0.001996994,0,
00:09.1,-0.002071381,0.001058578,-0.002002716,0,
00:09.1,-0.002065659,0.001081467,-0.00198555,0,
00:09.1,-0.002048492,0.001098633,-0.001968384,0,
00:09.1,-0.002065659,0.001098633,-0.00198555,0,
00:09.1,-0.00204277,0.001092911,-0.00201416,0,
00:09.1,-0.002071381,0.001070023,-0.00198555,0,
00:09.1,-0.002094269,0.001070023,-0.001991272,0,
00:09.1,-0.002094269,0.001075745,-0.002002716,0,
00:09.1,-0.002105713,0.001075745,-0.001991272,0,
00:09.1,-0.002099991,0.001110077,-0.001968384,0,
00:09.1,-0.002111435,0.001167297,-0.002008438,0,
00:09.1,-0.002059937,0.001104355,-0.00204277,0,
00:09.1,-0.002025604,0.001047134,-0.002054214,0,
00:09.1,-0.002008438,0.001110077,-0.002008438,0,
00:09.1,-0.002059937,0.001115799,-0.001945496,0,
00:09.1,-0.002082825,0.001081467,-0.001962662,0,
00:09.1,-0.002088547,0.001075745,-0.00198555,0,
00:09.1,-0.002088547,0.001098633,-0.001996994,0,
00:09.1,-0.002105713,0.001081467,-0.002019882,0,
00:09.1,-0.002054214,0.001070023,-0.002031326,0,
00:09.1,-0.002071381,0.001052856,-0.002002716,0,
00:09.1,-0.002105713,0.001087189,-0.002031326,0,
00:09.1,-0.002077103,0.001098633,-0.001974106,0,
00:09.2,-0.002065659,0.001115799,-0.001974106,0,
00:09.2,-0.002054214,0.001098633,-0.001968384,0,
00:09.2,-0.002088547,0.001081467,-0.001974106,0,
00:09.2,-0.002088547,0.001098633,-0.002002716,0,
00:09.2,-0.002088547,0.001041412,-0.002008438,0,
00:09.2,-0.002099991,0.001064301,-0.002002716,0,
00:09.2,-0.002071381,0.001127243,-0.001991272,0,
00:09.2,-0.002065659,0.001104355,-0.00204277,0,
00:09.2,-0.002037048,0.001087189,-0.001951218,0,
00:09.2,-0.002025604,0.001098633,-0.00198555,0,
00:09.2,-0.00201416,0.001132965,-0.002019882,0,
00:09.2,-0.002059937,0.001110077,-0.00201416,0,
00:09.2,-0.002105713,0.001121521,-0.002008438,0,
00:09.2,-0.002117157,0.001081467,-0.001968384,0,
00:09.2,-0.002071381,0.001087189,-0.002008438,0,
00:09.2,-0.002077103,0.001092911,-0.002002716,0,
00:09.2,-0.002088547,0.001104355,-0.001991272,0,
00:09.2,-0.002099991,0.001075745,-0.001991272,0,
00:09.2,-0.002065659,0.001064301,-0.002019882,0,
00:09.2,-0.002054214,0.001087189,-0.002025604,0,
00:09.2,-0.002088547,0.001115799,-0.002008438,0,
00:09.2,-0.002071381,0.001081467,-0.002008438,0,
00:09.2,-0.002059937,0.001075745,-0.001962662,0,
00:09.2,-0.002094269,0.001150131,-0.001996994,0,
00:09.2,-0.002099991,0.001127243,-0.002031326,0,
00:09.3,-0.002065659,0.001052856,-0.001979828,0,
00:09.3,-0.002077103,0.001087189,-0.001996994,0,
00:09.3,-0.002054214,0.001098633,-0.002048492,0,
00:09.3,-0.002065659,0.001098633,-0.00195694,0,
00:09.3,-0.002065659,0.001087189,-0.001962662,0,
00:09.3,-0.002071381,0.001104355,-0.002002716,0,
00:09.3,-0.002077103,0.001127243,-0.00198555,0,
00:09.3,-0.002099991,0.001104355,-0.002019882,0,
00:09.3,-0.002077103,0.001115799,-0.002031326,0,
00:09.3,-0.002054214,0.001110077,-0.002002716,0,
00:09.3,-0.002088547,0.001150131,-0.00201416,0,
00:09.3,-0.002145767,0.001064301,-0.002019882,0,
00:09.3,-0.002065659,0.001070023,-0.001996994,0,
00:09.3,-0.002059937,0.001092911,-0.001996994,0,
00:09.3,-0.002065659,0.001087189,-0.002008438,0,
00:09.3,-0.002071381,0.001081467,-0.00198555,0,
00:09.3,-0.002088547,0.001092911,-0.001979828,0,
00:09.3,-0.002099991,0.001098633,-0.001979828,0,
00:09.3,-0.002117157,0.001104355,-0.001991272,0,
00:09.3,-0.002111435,0.001150131,-0.002008438,0,
00:09.3,-0.00204277,0.001235962,-0.002031326,0,
00:09.3,-0.002025604,0.001155853,-0.002117157,0,
00:09.3,-0.002099991,0.001058578,-0.001991272,0,
00:09.3,-0.002088547,0.001087189,-0.001951218,0,
00:09.3,-0.002088547,0.001104355,-0.00201416,0,
00:09.4,-0.002105713,0.001092911,-0.002002716,0,
00:09.4,-0.002094269,0.001087189,-0.001996994,0,
00:09.4,-0.00204277,0.001115799,-0.002019882,0,
00:09.4,-0.002077103,0.001104355,-0.001968384,0,
00:09.4,-0.002094269,0.001098633,-0.001979828,0,
00:09.4,-0.002094269,0.001098633,-0.002002716,0,
00:09.4,-0.002099991,0.001098633,-0.002002716,0,
00:09.4,-0.002128601,0.001092911,-0.002008438,0,
00:09.4,-0.002140045,0.001104355,-0.00201416,0,
00:09.4,-0.002099991,0.001127243,-0.002019882,0,
00:09.4,-0.002111435,0.001121521,-0.002059937,0,
00:09.4,-0.001979828,0.001190186,-0.002071381,0,
00:09.4,-0.001991272,0.001218796,-0.002099991,0,
00:09.4,-0.002065659,0.001161575,-0.00204277,0,
00:09.4,-0.002088547,0.001115799,-0.001968384,0,
00:09.4,-0.002071381,0.001064301,-0.001979828,0,
00:09.4,-0.002099991,0.001081467,-0.001962662,0,
00:09.4,-0.002117157,0.001087189,-0.002019882,0,
00:09.4,-0.002128601,0.001087189,-0.00198555,0,
00:09.4,-0.002117157,0.001098633,-0.001974106,0,
00:09.4,-0.002094269,0.001098633,-0.00198555,0,
00:09.4,-0.002099991,0.001104355,-0.001996994,0,
00:09.4,-0.002099991,0.001110077,-0.00201416,0,
00:09.4,-0.002094269,0.001110077,-0.002037048,0,
00:09.4,-0.002065659,0.001121521,-0.002002716,0,
00:09.5,-0.002059937,0.001138687,-0.002059937,0,
00:09.5,-0.002071381,0.001132965,-0.002054214,0,
00:09.5,-0.002088547,0.001115799,-0.002037048,0,
00:09.5,-0.002117157,0.001104355,-0.002031326,0,
00:09.5,-0.002105713,0.001098633,-0.00198555,0,
00:09.5,-0.002077103,0.001110077,-0.00195694,0,
00:09.5,-0.002048492,0.001087189,-0.00198555,0,
00:09.5,-0.002059937,0.001144409,-0.00201416,0,
00:09.5,-0.002071381,0.001184464,-0.002037048,0,
00:09.5,-0.002071381,0.001138687,-0.002088547,0,
00:09.5,-0.002077103,0.001110077,-0.002031326,0,
00:09.5,-0.002117157,0.001104355,-0.001928329,0,
00:09.5,-0.002099991,0.001110077,-0.001979828,0,
00:09.5,-0.002082825,0.001092911,-0.002025604,0,
00:09.5,-0.002077103,0.001087189,-0.002025604,0,
00:09.5,-0.002094269,0.001098633,-0.001991272,0,
00:09.5,-0.002099991,0.001104355,-0.002008438,0,
00:09.5,-0.002088547,0.001115799,-0.002037048,0,
00:09.5,-0.002088547,0.001115799,-0.002019882,0,
00:09.5,-0.002082825,0.001110077,-0.001991272,0,
00:09.5,-0.002094269,0.001104355,-0.002037048,0,
00:09.5,-0.002088547,0.001104355,-0.002059937,0,
00:09.5,-0.002094269,0.001104355,-0.002048492,0,
00:09.5,-0.002099991,0.001121521,-0.001979828,0,
00:09.5,-0.002088547,0.001115799,-0.002008438,0,
00:09.6,-0.002082825,0.001098633,-0.002025604,0,
00:09.6,-0.002088547,0.001098633,-0.001996994,0,
00:09.6,-0.002099991,0.001115799,-0.002025604,0,
00:09.6,-0.002099991,0.001138687,-0.002077103,0,
00:09.6,-0.002094269,0.001155853,-0.002025604,0,
00:09.6,-0.002082825,0.001167297,-0.002031326,0,
00:09.6,-0.002059937,0.001132965,-0.00204277,0,
00:09.6,-0.002077103,0.001184464,-0.002054214,0,
00:09.6,-0.002077103,0.001161575,-0.002008438,0,
00:09.6,-0.002099991,0.001075745,-0.00195694,0,
00:09.6,-0.002088547,0.001064301,-0.00198555,0,
00:09.6,-0.002077103,0.001098633,-0.00198555,0,
00:09.6,-0.002099991,0.001104355,-0.00201416,0,
00:09.6,-0.002105713,0.001104355,-0.00201416,0,
00:09.6,-0.002077103,0.001104355,-0.002025604,0,
00:09.6,-0.002099991,0.001121521,-0.002019882,0,
00:09.6,-0.002099991,0.001127243,-0.002002716,0,
00:09.6,-0.002094269,0.001161575,-0.002002716,0,
00:09.6,-0.002099991,0.001121521,-0.002025604,0,
00:09.6,-0.002099991,0.001098633,-0.002019882,0,
00:09.6,-0.002088547,0.001092911,-0.002019882,0,
00:09.6,-0.002048492,0.001104355,-0.00204277,0,
00:09.6,-0.002019882,0.001184464,-0.002077103,0,
00:09.6,-0.002105713,0.001190186,-0.002105713,0,
00:09.6,-0.002145767,0.001092911,-0.00195694,0,
00:09.7,-0.002088547,0.001115799,-0.002048492,0,
00:09.7,-0.002054214,0.001104355,-0.002054214,0,
00:09.7,-0.002077103,0.001127243,-0.001996994,0,
00:09.7,-0.002088547,0.001138687,-0.001962662,0,
00:09.7,-0.002077103,0.001115799,-0.001979828,0,
00:09.7,-0.002088547,0.001092911,-0.00198555,0,
00:09.7,-0.002117157,0.001104355,-0.002054214,0,
00:09.7,-0.002077103,0.001104355,-0.002037048,0,
00:09.7,-0.002048492,0.001087189,-0.001996994,0,
00:09.7,-0.002077103,0.001115799,-0.00201416,0,
00:09.7,-0.002094269,0.001104355,-0.002037048,0,
00:09.7,-0.002088547,0.001110077,-0.002008438,0,
00:09.7,-0.002088547,0.001121521,-0.002008438,0,
00:09.7,-0.002099991,0.001110077,-0.002002716,0,
00:09.7,-0.002077103,0.001110077,-0.00201416,0,
00:09.7,-0.002099991,0.001115799,-0.002031326,0,
00:09.7,-0.002099991,0.001110077,-0.002037048,0,
00:09.7,-0.002099991,0.001098633,-0.002059937,0,
00:09.7,-0.002082825,0.001138687,-0.002019882,0,
00:09.7,-0.002099991,0.001270294,-0.002059937,0,
00:09.7,-0.002048492,0.001167297,-0.002185822,0,
00:09.7,-0.002048492,0.001064301,-0.002019882,0,
00:09.7,-0.002094269,0.001070023,-0.001962662,0,
00:09.7,-0.002094269,0.001132965,-0.001945496,0,
00:09.7,-0.002111435,0.001087189,-0.001979828,0,
00:09.8,-0.002105713,0.001081467,-0.00201416,0,
00:09.8,-0.002099991,0.001098633,-0.001996994,0,
00:09.8,-0.002105713,0.001110077,-0.00201416,0,
00:09.8,-0.002094269,0.001092911,-0.002019882,0,
00:09.8,-0.002088547,0.001104355,-0.002031326,0,
00:09.8,-0.002082825,0.001110077,-0.00204277,0,
00:09.8,-0.002082825,0.001121521,-0.002059937,0,
00:09.8,-0.002105713,0.001138687,-0.00204277,0,
00:09.8,-0.002099991,0.001110077,-0.002099991,0,
00:09.8,-0.00204277,0.001098633,-0.002048492,0,
00:09.8,-0.002031326,0.001184464,-0.002105713,0,
00:09.8,-0.002059937,0.001184464,-0.002082825,0,
00:09.8,-0.002094269,0.001173019,-0.00201416,0,
00:09.8,-0.002082825,0.001104355,-0.001974106,0,
00:09.8,-0.002088547,0.001104355,-0.001968384,0,
00:09.8,-0.002105713,0.001092911,-0.001991272,0,
00:09.8,-0.002105713,0.001075745,-0.002019882,0,
00:09.8,-0.002088547,0.001098633,-0.001991272,0,
00:09.8,-0.002088547,0.001104355,-0.002019882,0,
00:09.8,-0.002088547,0.001104355,-0.002037048,0,
00:09.8,-0.002111435,0.001098633,-0.002025604,0,
00:09.8,-0.002140045,0.001087189,-0.002037048,0,
00:09.8,-0.002065659,0.001110077,-0.00204277,0,
00:09.8,-0.002054214,0.001144409,-0.002031326,0,
00:09.8,-0.002054214,0.001161575,-0.002065659,0,
00:09.9,-0.002059937,0.001190186,-0.002134323,0,
