Elapsed_Time,EMG1,EMG2,EMG3,BioRadio Event,Unnamed: 5
00:00:00,-0.002832413,0.001996994,-0.00352478,0,
00:00.0,-0.002832413,0.001991272,-0.00352478,0,
00:00.0,-0.002855301,0.001979828,-0.003519058,0,
00:00.0,-0.002861023,0.001979828,-0.00352478,0,
00:00.0,-0.002872467,0.001979828,-0.003513336,0,
00:00.0,-0.002866745,0.00198555,-0.00349617,0,
00:00.0,-0.002855301,0.001979828,-0.003507614,0,
00:00.0,-0.002872467,0.001974106,-0.003513336,0,
00:00.0,-0.002883911,0.001974106,-0.003519058,0,
00:00.0,-0.002878189,0.00198555,-0.003519058,0,
00:00.0,-0.002866745,0.001991272,-0.003513336,0,
00:00.0,-0.002838135,0.001991272,-0.003513336,0,
00:00.0,-0.002838135,0.001979828,-0.003519058,0,
00:00.1,-0.002872467,0.001974106,-0.003507614,0,
00:00.1,-0.002878189,0.001979828,-0.003507614,0,
00:00.1,-0.002866745,0.00198555,-0.003501892,0,
00:00.1,-0.002861023,0.001979828,-0.003507614,0,
00:00.1,-0.002878189,0.001974106,-0.003507614,0,
00:00.1,-0.002878189,0.00198555,-0.003513336,0,
00:00.1,-0.002849579,0.001991272,-0.003513336,0,
00:00.1,-0.002843857,0.00198555,-0.003507614,0,
00:00.1,-0.002855301,0.001979828,-0.003519058,0,
00:00.1,-0.002866745,0.001979828,-0.003507614,0,
00:00.1,-0.002872467,0.001979828,-0.003501892,0,
00:00.1,-0.002872467,0.001979828,-0.003490448,0,
00:00.1,-0.002878189,0.001979828,-0.00349617,0,
00:00.1,-0.002878189,0.001974106,-0.00349617,0,
00:00.1,-0.002895355,0.001974106,-0.003490448,0,
00:00.1,-0.002901077,0.001979828,-0.003501892,0,
00:00.1,-0.002878189,0.00198555,-0.003513336,0,
00:00.1,-0.002883911,0.001979828,-0.003507614,0,
00:00.1,-0.002872467,0.001979828,-0.003513336,0,
00:00.1,-0.002866745,0.00198555,-0.003507614,0,
00:00.1,-0.002872467,0.001979828,-0.003490448,0,
00:00.1,-0.002872467,0.001979828,-0.003479004,0,
00:00.1,-0.002866745,0.001979828,-0.003484726,0,
00:00.1,-0.002866745,0.001979828,-0.003479004,0,
00:00.1,-0.002872467,0.001979828,-0.003490448,0,
00:00.2,-0.002889633,0.001979828,-0.00349617,0,
00:00.2,-0.002889633,0.001991272,-0.00349617,0,
00:00.2,-0.002861023,0.001991272,-0.003501892,0,
00:00.2,-0.002855301,0.001979828,-0.003507614,0,
00:00.2,-0.002866745,0.001979828,-0.00349617,0,
00:00.2,-0.002872467,0.00198555,-0.003490448,0,
00:00.2,-0.002872467,0.001979828,-0.003484726,0,
00:00.2,-0.002883911,0.001974106,-0.003484726,0,
00:00.2,-0.002883911,0.00198555,-0.003484726,0,
00:00.2,-0.002872467,0.00198555,-0.003490448,0,
00:00.2,-0.002889633,0.001979828,-0.003490448,0,
00:00.2,-0.002901077,0.001979828,-0.003490448,0,
00:00.2,-0.002883911,0.001979828,-0.003490448,0,
00:00.2,-0.002878189,0.001979828,-0.003490448,0,
00:00.2,-0.002878189,0.00198555,-0.00349617,0,
00:00.2,-0.002878189,0.00198555,-0.00349617,0,
00:00.2,-0.002883911,0.001974106,-0.003479004,0,
00:00.2,-0.002901077,0.001974106,-0.003479004,0,
00:00.2,-0.002883911,0.001979828,-0.003490448,0,
00:00.2,-0.002866745,0.001974106,-0.003479004,0,
00:00.2,-0.002901077,0.001968384,-0.003473282,0,
00:00.2,-0.002923965,0.001968384,-0.003473282,0,
00:00.2,-0.002918243,0.00198555,-0.003479004,0,
00:00.2,-0.002861023,0.001991272,-0.003484726,0,
00:00.2,-0.002843857,0.00198555,-0.003484726,0,
00:00.3,-0.002872467,0.00198555,-0.003484726,0,
00:00.3,-0.002883911,0.00198555,-0.00349617,0,
00:00.3,-0.002872467,0.00198555,-0.00349617,0,
00:00.3,-0.002843857,0.001979828,-0.003484726,0,
00:00.3,-0.002866745,0.001974106,-0.00346756,0,
00:00.3,-0.002895355,0.001968384,-0.003473282,0,
00:00.3,-0.002906799,0.001974106,-0.003461838,0,
00:00.3,-0.002895355,0.001974106,-0.003473282,0,
00:00.3,-0.002895355,0.001968384,-0.003473282,0,
00:00.3,-0.002895355,0.001974106,-0.003461838,0,
00:00.3,-0.002906799,0.001979828,-0.003473282,0,
00:00.3,-0.002895355,0.001979828,-0.003473282,0,
00:00.3,-0.002878189,0.001979828,-0.003473282,0,
00:00.3,-0.002883911,0.001974106,-0.00346756,0,
00:00.3,-0.002883911,0.001968384,-0.00346756,0,
00:00.3,-0.002889633,0.001974106,-0.003473282,0,
00:00.3,-0.002895355,0.001968384,-0.00346756,0,
00:00.3,-0.002901077,0.001968384,-0.00346756,0,
00:00.3,-0.002889633,0.001979828,-0.003473282,0,
00:00.3,-0.002878189,0.001979828,-0.003479004,0,
00:00.3,-0.002883911,0.001974106,-0.003473282,0,
00:00.3,-0.002912521,0.001974106,-0.00346756,0,
00:00.3,-0.002901077,0.001979828,-0.003461838,0,
00:00.3,-0.002889633,0.001968384,-0.003456116,0,
00:00.3,-0.002923965,0.001968384,-0.003461838,0,
00:00.4,-0.002906799,0.001974106,-0.003461838,0,
00:00.4,-0.002883911,0.00198555,-0.003461838,0,
00:00.4,-0.002872467,0.001979828,-0.00346756,0,
00:00.4,-0.002883911,0.001968384,-0.003456116,0,
00:00.4,-0.002895355,0.001974106,-0.003450394,0,
00:00.4,-0.002895355,0.001974106,-0.003456116,0,
00:00.4,-0.002895355,0.001974106,-0.003461838,0,
00:00.4,-0.002889633,0.001974106,-0.003461838,0,
00:00.4,-0.002895355,0.001974106,-0.003461838,0,
00:00.4,-0.002895355,0.001974106,-0.00346756,0,
00:00.4,-0.002895355,0.001968384,-0.003473282,0,
00:00.4,-0.002941132,0.00195694,-0.003479004,0,
00:00.4,-0.002946854,0.001968384,-0.003461838,0,
00:00.4,-0.002889633,0.00198555,-0.003456116,0,
00:00.4,-0.002849579,0.001979828,-0.003456116,0,
00:00.4,-0.002866745,0.001974106,-0.003444672,0,
00:00.4,-0.002895355,0.001974106,-0.003444672,0,
00:00.4,-0.002889633,0.001974106,-0.003456116,0,
00:00.4,-0.002895355,0.001968384,-0.003461838,0,
00:00.4,-0.002906799,0.001968384,-0.003461838,0,
00:00.4,-0.002906799,0.001968384,-0.00346756,0,
00:00.4,-0.002918243,0.001968384,-0.00346756,0,
00:00.4,-0.002923965,0.001968384,-0.003473282,0,
00:00.4,-0.002889633,0.001968384,-0.003461838,0,
00:00.4,-0.002872467,0.001968384,-0.003450394,0,
00:00.5,-0.002906799,0.001968384,-0.003450394,0,
00:00.5,-0.002912521,0.001968384,-0.003444672,0,
00:00.5,-0.002895355,0.001968384,-0.003444672,0,
00:00.5,-0.002889633,0.001968384,-0.003450394,0,
00:00.5,-0.002901077,0.00195694,-0.003450394,0,
00:00.5,-0.00293541,0.00195694,-0.003461838,0,
00:00.5,-0.002946854,0.001974106,-0.003461838,0,
00:00.5,-0.002883911,0.00198555,-0.003456116,0,
00:00.5,-0.002861023,0.001974106,-0.003456116,0,
00:00.5,-0.002895355,0.00195694,-0.00343895,0,
00:00.5,-0.002912521,0.001968384,-0.00343895,0,
00:00.5,-0.002895355,0.001968384,-0.003450394,0,
00:00.5,-0.002889633,0.001962662,-0.003450394,0,
00:00.5,-0.002895355,0.001962662,-0.00343895,0,
00:00.5,-0.002912521,0.001962662,-0.003444672,0,
00:00.5,-0.002929688,0.001962662,-0.003444672,0,
00:00.5,-0.002929688,0.001968384,-0.003444672,0,
00:00.5,-0.002912521,0.001968384,-0.003450394,0,
00:00.5,-0.002878189,0.001974106,-0.003456116,0,
00:00.5,-0.002872467,0.001968384,-0.003456116,0,
00:00.5,-0.002883911,0.001962662,-0.003450394,0,
00:00.5,-0.002912521,0.001962662,-0.003450394,0,
00:00.5,-0.002906799,0.00195694,-0.003456116,0,
00:00.5,-0.002906799,0.00195694,-0.003450394,0,
00:00.5,-0.002912521,0.001962662,-0.00343895,0,
00:00.6,-0.002895355,0.001962662,-0.003444672,0,
00:00.6,-0.002895355,0.001962662,-0.003433228,0,
00:00.6,-0.002906799,0.001962662,-0.003427505,0,
00:00.6,-0.002906799,0.001968384,-0.003433228,0,
00:00.6,-0.002889633,0.001974106,-0.00343895,0,
00:00.6,-0.002883911,0.001968384,-0.00343895,0,
00:00.6,-0.002895355,0.00195694,-0.003450394,0,
00:00.6,-0.002912521,0.001962662,-0.003450394,0,
00:00.6,-0.002901077,0.001974106,-0.003444672,0,
00:00.6,-0.002883911,0.001968384,-0.003450394,0,
00:00.6,-0.002895355,0.001968384,-0.00343895,0,
00:00.6,-0.002912521,0.00195694,-0.00343895,0,
00:00.6,-0.002906799,0.00195694,-0.00343895,0,
00:00.6,-0.002901077,0.001962662,-0.003427505,0,
00:00.6,-0.002901077,0.001962662,-0.00343895,0,
00:00.6,-0.002883911,0.001962662,-0.003444672,0,
00:00.6,-0.002883911,0.001962662,-0.003416061,0,
00:00.6,-0.002901077,0.00195694,-0.003421783,0,
00:00.6,-0.002912521,0.001968384,-0.003427505,0,
00:00.6,-0.002889633,0.001962662,-0.003427505,0,
00:00.6,-0.002895355,0.001962662,-0.003427505,0,
00:00.6,-0.002912521,0.001962662,-0.003433228,0,
00:00.6,-0.002895355,0.001968384,-0.003433228,0,
00:00.6,-0.002883911,0.001962662,-0.003433228,0,
00:00.6,-0.002895355,0.001968384,-0.00343895,0,
00:00.7,-0.002883911,0.001968384,-0.00343895,0,
00:00.7,-0.002889633,0.001951218,-0.00343895,0,
00:00.7,-0.002912521,0.001945496,-0.00343895,0,
00:00.7,-0.002912521,0.00195694,-0.003427505,0,
00:00.7,-0.002895355,0.001962662,-0.003433228,0,
00:00.7,-0.002901077,0.00195694,-0.003433228,0,
00:00.7,-0.002912521,0.00195694,-0.00343895,0,
00:00.7,-0.002918243,0.00195694,-0.003444672,0,
00:00.7,-0.002906799,0.00195694,-0.003427505,0,
00:00.7,-0.002895355,0.001951218,-0.003433228,0,
00:00.7,-0.002901077,0.001945496,-0.003433228,0,
00:00.7,-0.002918243,0.001951218,-0.003427505,0,
00:00.7,-0.002906799,0.00195694,-0.00343895,0,
00:00.7,-0.002895355,0.00195694,-0.003427505,0,
00:00.7,-0.002912521,0.001962662,-0.003427505,0,
00:00.7,-0.002901077,0.001968384,-0.003427505,0,
00:00.7,-0.002878189,0.001962662,-0.003427505,0,
00:00.7,-0.002889633,0.00195694,-0.003427505,0,
00:00.7,-0.002889633,0.00195694,-0.00343895,0,
00:00.7,-0.002906799,0.001962662,-0.00343895,0,
00:00.7,-0.002901077,0.001962662,-0.003433228,0,
00:00.7,-0.002878189,0.00195694,-0.003427505,0,
00:00.7,-0.002895355,0.001945496,-0.003416061,0,
00:00.7,-0.002918243,0.001945496,-0.003421783,0,
00:00.7,-0.002918243,0.001951218,-0.003421783,0,
00:00.8,-0.002912521,0.001951218,-0.003427505,0,
00:00.8,-0.002923965,0.001951218,-0.003421783,0,
00:00.8,-0.002923965,0.00195694,-0.003427505,0,
00:00.8,-0.002895355,0.00195694,-0.003433228,0,
00:00.8,-0.002895355,0.00195694,-0.003433228,0,
00:00.8,-0.002912521,0.00195694,-0.003444672,0,
00:00.8,-0.002912521,0.001962662,-0.00343895,0,
00:00.8,-0.002889633,0.00195694,-0.003433228,0,
00:00.8,-0.002889633,0.001945496,-0.003416061,0,
00:00.8,-0.002918243,0.001951218,-0.003421783,0,
00:00.8,-0.002912521,0.00195694,-0.003410339,0,
00:00.8,-0.002901077,0.00195694,-0.003416061,0,
00:00.8,-0.002906799,0.001951218,-0.003421783,0,
00:00.8,-0.002923965,0.001945496,-0.003427505,0,
00:00.8,-0.002929688,0.001945496,-0.003427505,0,
00:00.8,-0.002923965,0.001962662,-0.003433228,0,
00:00.8,-0.002906799,0.001962662,-0.003433228,0,
00:00.8,-0.002901077,0.001962662,-0.00343895,0,
00:00.8,-0.002901077,0.00195694,-0.003450394,0,
00:00.8,-0.002878189,0.001951218,-0.003427505,0,
00:00.8,-0.002895355,0.001951218,-0.003421783,0,
00:00.8,-0.002923965,0.00195694,-0.003421783,0,
00:00.8,-0.002918243,0.00195694,-0.003416061,0,
00:00.8,-0.002901077,0.001951218,-0.003416061,0,
00:00.8,-0.002918243,0.001951218,-0.003421783,0,
00:00.9,-0.002929688,0.001951218,-0.003421783,0,
00:00.9,-0.002929688,0.001962662,-0.003427505,0,
00:00.9,-0.002901077,0.001962662,-0.003427505,0,
00:00.9,-0.002889633,0.00195694,-0.003433228,0,
00:00.9,-0.002912521,0.00195694,-0.00343895,0,
00:00.9,-0.002923965,0.001962662,-0.00343895,0,
00:00.9,-0.002923965,0.00195694,-0.003433228,0,
00:00.9,-0.002912521,0.001945496,-0.003433228,0,
00:00.9,-0.002901077,0.00195694,-0.003421783,0,
00:00.9,-0.002883911,0.001962662,-0.003433228,0,
00:00.9,-0.002889633,0.00195694,-0.003433228,0,
00:00.9,-0.002901077,0.001945496,-0.003433228,0,
00:00.9,-0.002912521,0.001945496,-0.003416061,0,
00:00.9,-0.002918243,0.001951218,-0.003410339,0,
00:00.9,-0.00293541,0.001951218,-0.003410339,0,
00:00.9,-0.002918243,0.00195694,-0.003410339,0,
00:00.9,-0.002901077,0.001951218,-0.003410339,0,
00:00.9,-0.002895355,0.001945496,-0.003416061,0,
00:00.9,-0.002901077,0.001945496,-0.003421783,0,
00:00.9,-0.002906799,0.001951218,-0.003427505,0,
00:00.9,-0.002918243,0.001951218,-0.003433228,0,
00:00.9,-0.002923965,0.001951218,-0.003433228,0,
00:00.9,-0.002918243,0.001945496,-0.003427505,0,
00:00.9,-0.002918243,0.001945496,-0.003433228,0,
00:00.9,-0.002918243,0.00195694,-0.003433228,0,
00:01.0,-0.002889633,0.001962662,-0.003433228,0,
00:01.0,-0.002895355,0.001951218,-0.003433228,0,
00:01.0,-0.002906799,0.00195694,-0.003433228,0,
00:01.0,-0.002901077,0.001945496,-0.003444672,0,
00:01.0,-0.002906799,0.001951218,-0.003421783,0,
00:01.0,-0.002906799,0.001951218,-0.003416061,0,
00:01.0,-0.002906799,0.001951218,-0.003416061,0,
00:01.0,-0.002906799,0.001945496,-0.003410339,0,
00:01.0,-0.002906799,0.001951218,-0.003410339,0,
00:01.0,-0.002901077,0.001945496,-0.003416061,0,
00:01.0,-0.002918243,0.001945496,-0.003416061,0,
00:01.0,-0.00293541,0.001945496,-0.003427505,0,
00:00:01,-0.002952576,0.001945496,-0.003427505,0,
00:01.0,-0.002929688,0.001945496,-0.003427505,0,
00:01.0,-0.002866745,0.00195694,-0.003427505,0,
00:01.0,-0.002883911,0.001968384,-0.003427505,0,
00:01.0,-0.002901077,0.00195694,-0.003433228,0,
00:01.0,-0.002901077,0.001939774,-0.003427505,0,
00:01.0,-0.002906799,0.001934052,-0.003427505,0,
00:01.0,-0.002923965,0.001934052,-0.003421783,0,
00:01.0,-0.002941132,0.001945496,-0.003416061,0,
00:01.0,-0.002918243,0.001951218,-0.003416061,0,
00:01.0,-0.002901077,0.001951218,-0.003421783,0,
00:01.0,-0.002901077,0.001951218,-0.003416061,0,
00:01.0,-0.002901077,0.001945496,-0.003410339,0,
00:01.1,-0.002918243,0.001939774,-0.003404617,0,
00:01.1,-0.002929688,0.001945496,-0.003410339,0,
00:01.1,-0.002918243,0.001939774,-0.003421783,0,
00:01.1,-0.002906799,0.001945496,-0.003421783,0,
00:01.1,-0.002906799,0.001939774,-0.003421783,0,
00:01.1,-0.002912521,0.001945496,-0.003421783,0,
00:01.1,-0.002918243,0.001945496,-0.003421783,0,
00:01.1,-0.002923965,0.001945496,-0.003427505,0,
00:01.1,-0.002918243,0.001945496,-0.003416061,0,
00:01.1,-0.002929688,0.001945496,-0.003421783,0,
00:01.1,-0.002923965,0.001945496,-0.003427505,0,
00:01.1,-0.002918243,0.001945496,-0.003427505,0,
00:01.1,-0.00293541,0.001939774,-0.003421783,0,
00:01.1,-0.00293541,0.001945496,-0.003416061,0,
00:01.1,-0.002918243,0.001951218,-0.003416061,0,
00:01.1,-0.002901077,0.001945496,-0.003421783,0,
00:01.1,-0.002923965,0.001951218,-0.003421783,0,
00:01.1,-0.002912521,0.00195694,-0.003421783,0,
00:01.1,-0.002901077,0.001945496,-0.003416061,0,
00:01.1,-0.002912521,0.001945496,-0.003416061,0,
00:01.1,-0.002923965,0.001945496,-0.003421783,0,
00:01.1,-0.00293541,0.001939774,-0.003416061,0,
00:01.1,-0.002952576,0.001934052,-0.003421783,0,
00:01.1,-0.002941132,0.001945496,-0.003427505,0,
00:01.1,-0.002912521,0.001951218,-0.003416061,0,
00:01.2,-0.002906799,0.001951218,-0.003421783,0,
00:01.2,-0.002918243,0.001945496,-0.003427505,0,
00:01.2,-0.002912521,0.001939774,-0.003410339,0,
00:01.2,-0.002918243,0.001939774,-0.003410339,0,
00:01.2,-0.002929688,0.001939774,-0.003416061,0,
00:01.2,-0.002929688,0.001945496,-0.003410339,0,
00:01.2,-0.002929688,0.001945496,-0.003416061,0,
00:01.2,-0.002918243,0.001951218,-0.003421783,0,
00:01.2,-0.002906799,0.001945496,-0.003421783,0,
00:01.2,-0.002929688,0.001934052,-0.003421783,0,
00:01.2,-0.002958298,0.001934052,-0.003416061,0,
00:01.2,-0.002941132,0.001934052,-0.003421783,0,
00:01.2,-0.002941132,0.001939774,-0.003421783,0,
00:01.2,-0.00293541,0.001945496,-0.003421783,0,
00:01.2,-0.002929688,0.001945496,-0.003416061,0,
00:01.2,-0.00293541,0.001945496,-0.003416061,0,
00:01.2,-0.002912521,0.001939774,-0.003410339,0,
00:01.2,-0.002929688,0.001934052,-0.003416061,0,
00:01.2,-0.002941132,0.001934052,-0.003416061,0,
00:01.2,-0.00293541,0.001939774,-0.003416061,0,
00:01.2,-0.00293541,0.001939774,-0.003421783,0,
00:01.2,-0.002929688,0.001945496,-0.003421783,0,
00:01.2,-0.002918243,0.001945496,-0.003404617,0,
00:01.2,-0.002929688,0.001939774,-0.003410339,0,
00:01.2,-0.002941132,0.001934052,-0.003404617,0,
00:01.3,-0.002958298,0.001934052,-0.003410339,0,
00:01.3,-0.002952576,0.001934052,-0.003416061,0,
00:01.3,-0.002941132,0.001934052,-0.003416061,0,
00:01.3,-0.002941132,0.001951218,-0.003427505,0,
00:01.3,-0.002912521,0.001945496,-0.003427505,0,
00:01.3,-0.002929688,0.001939774,-0.003416061,0,
00:01.3,-0.002952576,0.001945496,-0.003410339,0,
00:01.3,-0.002946854,0.001945496,-0.003404617,0,
00:01.3,-0.002929688,0.001945496,-0.003404617,0,
00:01.3,-0.002946854,0.001945496,-0.003410339,0,
00:01.3,-0.002946854,0.001945496,-0.003398895,0,
00:01.3,-0.00293541,0.001945496,-0.003404617,0,
00:01.3,-0.002958298,0.001939774,-0.003410339,0,
00:01.3,-0.00296402,0.001951218,-0.003416061,0,
00:01.3,-0.00293541,0.001962662,-0.003421783,0,
00:01.3,-0.002923965,0.00195694,-0.003421783,0,
00:01.3,-0.002941132,0.001939774,-0.003421783,0,
00:01.3,-0.002952576,0.001939774,-0.003398895,0,
00:01.3,-0.002952576,0.001939774,-0.003398895,0,
00:01.3,-0.002952576,0.001939774,-0.003398895,0,
00:01.3,-0.002981186,0.001939774,-0.003398895,0,
00:01.3,-0.002975464,0.00195694,-0.003404617,0,
00:01.3,-0.002946854,0.001951218,-0.003410339,0,
00:01.3,-0.002941132,0.001951218,-0.003404617,0,
00:01.3,-0.002941132,0.001951218,-0.003398895,0,
00:01.4,-0.002946854,0.001951218,-0.003398895,0,
00:01.4,-0.002958298,0.001945496,-0.003387451,0,
00:01.4,-0.002981186,0.001945496,-0.003387451,0,
00:01.4,-0.002975464,0.001945496,-0.003387451,0,
00:01.4,-0.002969742,0.00195694,-0.003398895,0,
00:01.4,-0.002969742,0.001962662,-0.003398895,0,
00:01.4,-0.002958298,0.00195694,-0.003398895,0,
00:01.4,-0.002946854,0.00195694,-0.003404617,0,
00:01.4,-0.002946854,0.001962662,-0.003404617,0,
00:01.4,-0.002952576,0.00195694,-0.003404617,0,
00:01.4,-0.002981186,0.00195694,-0.003404617,0,
00:01.4,-0.002975464,0.00195694,-0.003404617,0,
00:01.4,-0.002952576,0.001962662,-0.003393173,0,
00:01.4,-0.002958298,0.001962662,-0.003398895,0,
00:01.4,-0.002969742,0.00195694,-0.003404617,0,
00:01.4,-0.002975464,0.001962662,-0.003404617,0,
00:01.4,-0.002969742,0.001962662,-0.003398895,0,
00:01.4,-0.002969742,0.001962662,-0.003398895,0,
00:01.4,-0.002969742,0.001962662,-0.003381729,0,
00:01.4,-0.002975464,0.001962662,-0.003387451,0,
00:01.4,-0.002975464,0.001968384,-0.003398895,0,
00:01.4,-0.002969742,0.001962662,-0.003393173,0,
00:01.4,-0.002981186,0.001951218,-0.003393173,0,
00:01.4,-0.002998352,0.001951218,-0.003381729,0,
00:01.4,-0.002998352,0.001962662,-0.003387451,0,
00:01.5,-0.002981186,0.001974106,-0.003381729,0,
00:01.5,-0.00296402,0.001962662,-0.003376007,0,
00:01.5,-0.002986908,0.00195694,-0.003381729,0,
00:01.5,-0.00299263,0.001962662,-0.003387451,0,
00:01.5,-0.002975464,0.001968384,-0.003387451,0,
00:01.5,-0.002986908,0.001968384,-0.003376007,0,
00:01.5,-0.00299263,0.001974106,-0.003381729,0,
00:01.5,-0.002986908,0.001974106,-0.003387451,0,
00:01.5,-0.002969742,0.001974106,-0.003393173,0,
00:01.5,-0.002952576,0.001974106,-0.003387451,0,
00:01.5,-0.002975464,0.001968384,-0.003381729,0,
00:01.5,-0.002998352,0.001968384,-0.003376007,0,
00:01.5,-0.002986908,0.001974106,-0.003387451,0,
00:01.5,-0.002952576,0.001974106,-0.003376007,0,
00:01.5,-0.002975464,0.001979828,-0.003376007,0,
00:01.5,-0.00299263,0.001974106,-0.003370285,0,
00:01.5,-0.002998352,0.001968384,-0.003364563,0,
00:01.5,-0.002998352,0.001974106,-0.003364563,0,
00:01.5,-0.002986908,0.001974106,-0.003370285,0,
00:01.5,-0.002998352,0.001974106,-0.003370285,0,
00:01.5,-0.003004074,0.001979828,-0.003364563,0,
00:01.5,-0.00299263,0.00198555,-0.003364563,0,
00:01.5,-0.002986908,0.001979828,-0.003370285,0,
00:01.5,-0.00299263,0.001979828,-0.003370285,0,
00:01.5,-0.003004074,0.001979828,-0.003370285,0,
00:01.6,-0.00302124,0.001979828,-0.003370285,0,
00:01.6,-0.00302124,0.00198555,-0.003364563,0,
00:01.6,-0.003009796,0.00198555,-0.003358841,0,
00:01.6,-0.003004074,0.001991272,-0.003353119,0,
00:01.6,-0.00299263,0.001991272,-0.003358841,0,
00:01.6,-0.003015518,0.001979828,-0.003358841,0,
00:01.6,-0.003032684,0.00198555,-0.003364563,0,
00:01.6,-0.002998352,0.001996994,-0.003358841,0,
00:01.6,-0.002981186,0.002002716,-0.003358841,0,
00:01.6,-0.002975464,0.001996994,-0.003364563,0,
00:01.6,-0.00299263,0.001996994,-0.003364563,0,
00:01.6,-0.003004074,0.001991272,-0.003364563,0,
00:01.6,-0.003004074,0.00198555,-0.003353119,0,
00:01.6,-0.00302124,0.001991272,-0.003358841,0,
00:01.6,-0.003038406,0.00198555,-0.003358841,0,
00:01.6,-0.00304985,0.001991272,-0.003353119,0,
00:01.6,-0.003004074,0.002002716,-0.003347397,0,
00:01.6,-0.002969742,0.002008438,-0.003347397,0,
00:01.6,-0.002986908,0.002002716,-0.003347397,0,
00:01.6,-0.003004074,0.002002716,-0.003353119,0,
00:01.6,-0.003004074,0.002008438,-0.003341675,0,
00:01.6,-0.003004074,0.002008438,-0.003335953,0,
00:01.6,-0.003009796,0.002002716,-0.003335953,0,
00:01.6,-0.003015518,0.002002716,-0.003330231,0,
00:01.6,-0.003026962,0.002002716,-0.003335953,0,
00:01.7,-0.003044128,0.002008438,-0.003330231,0,
00:01.7,-0.003032684,0.00201416,-0.003330231,0,
00:01.7,-0.003009796,0.00201416,-0.003335953,0,
00:01.7,-0.003009796,0.002008438,-0.003341675,0,
00:01.7,-0.00302124,0.00201416,-0.003335953,0,
00:01.7,-0.00302124,0.002019882,-0.003335953,0,
00:01.7,-0.00302124,0.00201416,-0.003335953,0,
00:01.7,-0.003032684,0.002008438,-0.003335953,0,
00:01.7,-0.003044128,0.002019882,-0.003330231,0,
00:01.7,-0.003032684,0.002025604,-0.003330231,0,
00:01.7,-0.00302124,0.002031326,-0.003330231,0,
00:01.7,-0.00302124,0.002025604,-0.003330231,0,
00:01.7,-0.003026962,0.00201416,-0.003318787,0,
00:01.7,-0.003026962,0.002019882,-0.003324509,0,
00:01.7,-0.003026962,0.002031326,-0.003335953,0,
00:01.7,-0.003015518,0.002031326,-0.003324509,0,
00:01.7,-0.003009796,0.002025604,-0.003307343,0,
00:01.7,-0.003044128,0.002025604,-0.003313065,0,
00:01.7,-0.003032684,0.002031326,-0.003318787,0,
00:01.7,-0.00302124,0.002031326,-0.003318787,0,
00:01.7,-0.003026962,0.002025604,-0.003324509,0,
00:01.7,-0.003032684,0.002031326,-0.003318787,0,
00:01.7,-0.003038406,0.002031326,-0.003313065,0,
00:01.7,-0.003055573,0.002031326,-0.003318787,0,
00:01.7,-0.003038406,0.002031326,-0.003318787,0,
00:01.8,-0.00302124,0.00204277,-0.003313065,0,
00:01.8,-0.003026962,0.002037048,-0.003318787,0,
00:01.8,-0.003038406,0.002037048,-0.003318787,0,
00:01.8,-0.003038406,0.002037048,-0.003313065,0,
00:01.8,-0.003032684,0.002037048,-0.003313065,0,
00:01.8,-0.003055573,0.002037048,-0.003313065,0,
00:01.8,-0.003067017,0.002048492,-0.003307343,0,
00:01.8,-0.003032684,0.002048492,-0.003307343,0,
00:01.8,-0.003015518,0.002048492,-0.003307343,0,
00:01.8,-0.003032684,0.002048492,-0.003307343,0,
00:01.8,-0.00304985,0.00204277,-0.00330162,0,
00:01.8,-0.003061295,0.002048492,-0.003307343,0,
00:01.8,-0.00304985,0.002054214,-0.003307343,0,
00:01.8,-0.003038406,0.002048492,-0.00330162,0,
00:01.8,-0.003055573,0.002048492,-0.003307343,0,
00:01.8,-0.003072739,0.002048492,-0.003313065,0,
00:01.8,-0.003061295,0.002054214,-0.00330162,0,
00:01.8,-0.00304985,0.002059937,-0.003295898,0,
00:01.8,-0.003055573,0.002054214,-0.003307343,0,
00:01.8,-0.003055573,0.002054214,-0.00330162,0,
00:01.8,-0.003061295,0.002065659,-0.003295898,0,
00:01.8,-0.003055573,0.002059937,-0.00330162,0,
00:01.8,-0.003055573,0.002048492,-0.003307343,0,
00:01.8,-0.003055573,0.002059937,-0.003290176,0,
00:01.8,-0.003044128,0.002065659,-0.003295898,0,
00:01.9,-0.003044128,0.002059937,-0.003284454,0,
00:01.9,-0.003061295,0.002059937,-0.003290176,0,
00:01.9,-0.003061295,0.002071381,-0.00330162,0,
00:01.9,-0.003044128,0.002071381,-0.00330162,0,
00:01.9,-0.003044128,0.002065659,-0.00330162,0,
00:01.9,-0.003061295,0.002059937,-0.003290176,0,
00:01.9,-0.003084183,0.002065659,-0.003284454,0,
00:01.9,-0.003078461,0.002071381,-0.003284454,0,
00:01.9,-0.003061295,0.002071381,-0.003278732,0,
00:01.9,-0.003078461,0.002071381,-0.003284454,0,
00:01.9,-0.003072739,0.002088547,-0.003290176,0,
00:01.9,-0.003038406,0.002082825,-0.003284454,0,
00:01.9,-0.003044128,0.002077103,-0.003284454,0,
00:01.9,-0.003061295,0.002077103,-0.003278732,0,
00:01.9,-0.003072739,0.002077103,-0.003290176,0,
00:01.9,-0.003072739,0.002082825,-0.003278732,0,
00:01.9,-0.003061295,0.002088547,-0.00327301,0,
00:01.9,-0.003061295,0.002082825,-0.003278732,0,
00:01.9,-0.003072739,0.002082825,-0.003290176,0,
00:01.9,-0.003089905,0.002082825,-0.003290176,0,
00:01.9,-0.003078461,0.002082825,-0.003284454,0,
00:01.9,-0.003055573,0.002088547,-0.003278732,0,
00:01.9,-0.003067017,0.002088547,-0.003278732,0,
00:01.9,-0.003089905,0.002082825,-0.003284454,0,
00:01.9,-0.003095627,0.002094269,-0.003284454,0,
00:02.0,-0.003072739,0.002094269,-0.00327301,0,
00:02.0,-0.003072739,0.002088547,-0.003278732,0,
00:02.0,-0.003084183,0.002088547,-0.003278732,0,
00:02.0,-0.003078461,0.002094269,-0.003278732,0,
00:02.0,-0.003061295,0.002099991,-0.003278732,0,
00:02.0,-0.003061295,0.002099991,-0.003278732,0,
00:02.0,-0.003072739,0.002088547,-0.003284454,0,
00:02.0,-0.003084183,0.002094269,-0.00327301,0,
00:02.0,-0.003095627,0.002094269,-0.003278732,0,
00:02.0,-0.003095627,0.002105713,-0.00327301,0,
00:02.0,-0.003084183,0.002105713,-0.003267288,0,
00:02.0,-0.003084183,0.002099991,-0.003267288,0,
00:00:02,-0.003095627,0.002099991,-0.003267288,0,
00:02.0,-0.003089905,0.002111435,-0.003267288,0,
00:02.0,-0.003061295,0.002111435,-0.00327301,0,
00:02.0,-0.003072739,0.002111435,-0.003278732,0,
00:02.0,-0.003072739,0.002117157,-0.003261566,0,
00:02.0,-0.003072739,0.002117157,-0.003261566,0,
00:02.0,-0.003084183,0.002105713,-0.00327301,0,
00:02.0,-0.003095627,0.002105713,-0.003267288,0,
00:02.0,-0.003107071,0.002105713,-0.003267288,0,
00:02.0,-0.003112793,0.002105713,-0.003267288,0,
00:02.0,-0.003095627,0.002117157,-0.00327301,0,
00:02.0,-0.003084183,0.002122879,-0.003278732,0,
00:02.0,-0.003084183,0.002122879,-0.003290176,0,
00:02.1,-0.003078461,0.002122879,-0.003278732,0,
00:02.1,-0.003072739,0.002122879,-0.00327301,0,
00:02.1,-0.003095627,0.002117157,-0.003261566,0,
00:02.1,-0.003112793,0.002117157,-0.003267288,0,
00:02.1,-0.003107071,0.002122879,-0.003278732,0,
00:02.1,-0.003089905,0.002128601,-0.003267288,0,
00:02.1,-0.003101349,0.002122879,-0.003267288,0,
00:02.1,-0.003112793,0.002128601,-0.003267288,0,
00:02.1,-0.003078461,0.002122879,-0.003261566,0,
00:02.1,-0.003095627,0.002122879,-0.003267288,0,
00:02.1,-0.003124237,0.002134323,-0.003261566,0,
00:02.1,-0.003095627,0.002134323,-0.003267288,0,
00:02.1,-0.003061295,0.002134323,-0.003267288,0,
00:02.1,-0.003067017,0.002134323,-0.003261566,0,
00:02.1,-0.003089905,0.002128601,-0.003250122,0,
00:02.1,-0.003101349,0.002134323,-0.003255844,0,
00:02.1,-0.003101349,0.002128601,-0.003261566,0,
00:02.1,-0.003112793,0.002134323,-0.003267288,0,
00:02.1,-0.003107071,0.002134323,-0.003261566,0,
00:02.1,-0.003095627,0.002145767,-0.003255844,0,
00:02.1,-0.003084183,0.002145767,-0.003261566,0,
00:02.1,-0.003095627,0.002128601,-0.003267288,0,
00:02.1,-0.003107071,0.002128601,-0.003267288,0,
00:02.1,-0.003112793,0.002140045,-0.003267288,0,
00:02.1,-0.003101349,0.002157211,-0.003267288,0,
00:02.2,-0.003078461,0.002151489,-0.003255844,0,
00:02.2,-0.003089905,0.002157211,-0.003261566,0,
00:02.2,-0.003084183,0.002157211,-0.003267288,0,
00:02.2,-0.003089905,0.002157211,-0.003278732,0,
00:02.2,-0.003095627,0.002151489,-0.00327301,0,
00:02.2,-0.003101349,0.002151489,-0.003255844,0,
00:02.2,-0.003107071,0.002145767,-0.003267288,0,
00:02.2,-0.003112793,0.002145767,-0.003261566,0,
00:02.2,-0.003112793,0.002151489,-0.003261566,0,
00:02.2,-0.003101349,0.002162933,-0.003267288,0,
00:02.2,-0.003089905,0.002157211,-0.003261566,0,
00:02.2,-0.003107071,0.002151489,-0.003261566,0,
00:02.2,-0.003107071,0.002151489,-0.003261566,0,
00:02.2,-0.003095627,0.002157211,-0.003267288,0,
00:02.2,-0.003095627,0.002157211,-0.003267288,0,
00:02.2,-0.003095627,0.002157211,-0.003261566,0,
00:02.2,-0.003101349,0.002157211,-0.003267288,0,
00:02.2,-0.003095627,0.002162933,-0.00327301,0,
00:02.2,-0.003101349,0.002157211,-0.003267288,0,
00:02.2,-0.003129959,0.002162933,-0.003261566,0,
00:02.2,-0.003129959,0.002162933,-0.003267288,0,
00:02.2,-0.003112793,0.002168655,-0.003261566,0,
00:02.2,-0.003078461,0.002168655,-0.003267288,0,
00:02.2,-0.003084183,0.002162933,-0.003261566,0,
00:02.2,-0.003107071,0.002162933,-0.003267288,0,
00:02.3,-0.003112793,0.002162933,-0.00327301,0,
00:02.3,-0.003112793,0.002168655,-0.003267288,0,
00:02.3,-0.003101349,0.002174377,-0.003267288,0,
00:02.3,-0.003084183,0.002168655,-0.00327301,0,
00:02.3,-0.003095627,0.002168655,-0.003278732,0,
00:02.3,-0.003112793,0.002168655,-0.003261566,0,
00:02.3,-0.003124237,0.002168655,-0.003261566,0,
00:02.3,-0.003112793,0.002174377,-0.00327301,0,
00:02.3,-0.003101349,0.002174377,-0.003261566,0,
00:02.3,-0.003107071,0.002180099,-0.003261566,0,
00:02.3,-0.003112793,0.002174377,-0.003255844,0,
00:02.3,-0.003107071,0.002180099,-0.003250122,0,
00:02.3,-0.003089905,0.002185822,-0.003255844,0,
00:02.3,-0.003089905,0.002180099,-0.003261566,0,
00:02.3,-0.003112793,0.002174377,-0.003267288,0,
00:02.3,-0.003124237,0.002180099,-0.003267288,0,
00:02.3,-0.003107071,0.002180099,-0.003267288,0,
00:02.3,-0.003112793,0.002180099,-0.003267288,0,
00:02.3,-0.003118515,0.002180099,-0.003267288,0,
00:02.3,-0.003107071,0.002180099,-0.003261566,0,
00:02.3,-0.003118515,0.002185822,-0.003267288,0,
00:02.3,-0.003101349,0.002191544,-0.003267288,0,
00:02.3,-0.003089905,0.002185822,-0.003267288,0,
00:02.3,-0.003107071,0.002185822,-0.00327301,0,
00:02.3,-0.003107071,0.002191544,-0.003267288,0,
00:02.4,-0.003095627,0.002191544,-0.003267288,0,
00:02.4,-0.003101349,0.002180099,-0.00327301,0,
00:02.4,-0.003129959,0.002180099,-0.003267288,0,
00:02.4,-0.003124237,0.002191544,-0.003267288,0,
00:02.4,-0.003101349,0.002191544,-0.00327301,0,
00:02.4,-0.003101349,0.002185822,-0.00327301,0,
00:02.4,-0.003107071,0.002191544,-0.00327301,0,
00:02.4,-0.003101349,0.002191544,-0.003261566,0,
00:02.4,-0.003112793,0.002197266,-0.003261566,0,
00:02.4,-0.003107071,0.002202988,-0.003278732,0,
00:02.4,-0.003095627,0.002202988,-0.003261566,0,
00:02.4,-0.003101349,0.002197266,-0.003255844,0,
00:02.4,-0.003107071,0.002191544,-0.003267288,0,
00:02.4,-0.003107071,0.002197266,-0.003267288,0,
00:02.4,-0.003124237,0.002191544,-0.003261566,0,
00:02.4,-0.003129959,0.002191544,-0.003267288,0,
00:02.4,-0.003107071,0.002202988,-0.00327301,0,
00:02.4,-0.003089905,0.002202988,-0.003267288,0,
00:02.4,-0.003101349,0.002197266,-0.003267288,0,
00:02.4,-0.003112793,0.002197266,-0.00327301,0,
00:02.4,-0.003112793,0.002202988,-0.00327301,0,
00:02.4,-0.003107071,0.002202988,-0.003267288,0,
00:02.4,-0.003112793,0.002197266,-0.003278732,0,
00:02.4,-0.003118515,0.002202988,-0.00327301,0,
00:02.4,-0.003118515,0.002214432,-0.00327301,0,
00:02.5,-0.003101349,0.00220871,-0.003278732,0,
00:02.5,-0.003101349,0.00220871,-0.003278732,0,
00:02.5,-0.003101349,0.00220871,-0.003278732,0,
00:02.5,-0.003101349,0.00220871,-0.003278732,0,
00:02.5,-0.003095627,0.00220871,-0.003267288,0,
00:02.5,-0.003112793,0.00220871,-0.00327301,0,
00:02.5,-0.003112793,0.002202988,-0.003284454,0,
00:02.5,-0.003107071,0.002202988,-0.00327301,0,
00:02.5,-0.003112793,0.00220871,-0.00327301,0,
00:02.5,-0.003107071,0.002214432,-0.003284454,0,
00:02.5,-0.003089905,0.00220871,-0.003284454,0,
00:02.5,-0.003112793,0.002202988,-0.00327301,0,
00:02.5,-0.003118515,0.002214432,-0.00327301,0,
00:02.5,-0.003089905,0.002214432,-0.003284454,0,
00:02.5,-0.003095627,0.002214432,-0.003290176,0,
00:02.5,-0.003118515,0.00220871,-0.003284454,0,
00:02.5,-0.003135681,0.00220871,-0.003284454,0,
00:02.5,-0.003112793,0.00220871,-0.003284454,0,
00:02.5,-0.003089905,0.00220871,-0.003284454,0,
00:02.5,-0.003107071,0.00220871,-0.003290176,0,
00:02.5,-0.003112793,0.002214432,-0.003284454,0,
00:02.5,-0.003107071,0.002220154,-0.003284454,0,
00:02.5,-0.003089905,0.002225876,-0.003290176,0,
00:02.5,-0.003084183,0.002225876,-0.003295898,0,
00:02.5,-0.003101349,0.002214432,-0.003290176,0,
00:02.6,-0.003112793,0.002220154,-0.003284454,0,
00:02.6,-0.003095627,0.002220154,-0.003284454,0,
00:02.6,-0.003095627,0.002220154,-0.003290176,0,
00:02.6,-0.003095627,0.002220154,-0.00330162,0,
00:02.6,-0.003101349,0.002220154,-0.003284454,0,
00:02.6,-0.003112793,0.00220871,-0.003284454,0,
00:02.6,-0.003135681,0.002214432,-0.003284454,0,
00:02.6,-0.003118515,0.002225876,-0.003295898,0,
00:02.6,-0.003084183,0.002220154,-0.003295898,0,
00:02.6,-0.003084183,0.002220154,-0.003284454,0,
00:02.6,-0.003107071,0.002220154,-0.003290176,0,
00:02.6,-0.003107071,0.002220154,-0.003284454,0,
00:02.6,-0.003089905,0.002225876,-0.003295898,0,
00:02.6,-0.003095627,0.002220154,-0.003295898,0,
00:02.6,-0.003118515,0.002220154,-0.003290176,0,
00:02.6,-0.003118515,0.002225876,-0.003295898,0,
00:02.6,-0.003101349,0.002225876,-0.003295898,0,
00:02.6,-0.003095627,0.002225876,-0.00330162,0,
00:02.6,-0.003089905,0.002225876,-0.003290176,0,
00:02.6,-0.003101349,0.002220154,-0.003290176,0,
00:02.6,-0.003124237,0.002220154,-0.003284454,0,
00:02.6,-0.003112793,0.002220154,-0.003290176,0,
00:02.6,-0.003089905,0.002231598,-0.003295898,0,
00:02.6,-0.003089905,0.002231598,-0.003295898,0,
00:02.6,-0.003112793,0.002231598,-0.003295898,0,
00:02.7,-0.003107071,0.002225876,-0.003295898,0,
00:02.7,-0.003101349,0.002214432,-0.003307343,0,
00:02.7,-0.003101349,0.002220154,-0.00330162,0,
00:02.7,-0.003101349,0.002225876,-0.00330162,0,
00:02.7,-0.003101349,0.002225876,-0.003295898,0,
00:02.7,-0.003101349,0.002225876,-0.003295898,0,
00:02.7,-0.003101349,0.002231598,-0.00330162,0,
00:02.7,-0.003101349,0.002220154,-0.003307343,0,
00:02.7,-0.003101349,0.002225876,-0.003295898,0,
00:02.7,-0.003107071,0.002225876,-0.00330162,0,
00:02.7,-0.003112793,0.002225876,-0.003295898,0,
00:02.7,-0.003107071,0.002225876,-0.00330162,0,
00:02.7,-0.003101349,0.002225876,-0.003307343,0,
00:02.7,-0.003107071,0.002220154,-0.00330162,0,
00:02.7,-0.003112793,0.002231598,-0.00330162,0,
00:02.7,-0.003112793,0.002231598,-0.003307343,0,
00:02.7,-0.003112793,0.002225876,-0.00330162,0,
00:02.7,-0.003118515,0.002225876,-0.003307343,0,
00:02.7,-0.003107071,0.00223732,-0.00330162,0,
00:02.7,-0.003078461,0.002231598,-0.00330162,0,
00:02.7,-0.003084183,0.002231598,-0.00330162,0,
00:02.7,-0.003107071,0.00223732,-0.003307343,0,
00:02.7,-0.003095627,0.002231598,-0.003313065,0,
00:02.7,-0.003101349,0.002220154,-0.003318787,0,
00:02.7,-0.003124237,0.002220154,-0.003307343,0,
00:02.8,-0.003118515,0.002231598,-0.003313065,0,
00:02.8,-0.003089905,0.00223732,-0.00330162,0,
00:02.8,-0.003084183,0.002231598,-0.00330162,0,
00:02.8,-0.003089905,0.002225876,-0.003307343,0,
00:02.8,-0.003107071,0.002231598,-0.00330162,0,
00:02.8,-0.003124237,0.002231598,-0.003313065,0,
00:02.8,-0.003107071,0.002243042,-0.003307343,0,
00:02.8,-0.003089905,0.002243042,-0.003318787,0,
00:02.8,-0.003084183,0.00223732,-0.003318787,0,
00:02.8,-0.003089905,0.002231598,-0.003313065,0,
00:02.8,-0.003107071,0.002225876,-0.003307343,0,
00:02.8,-0.003124237,0.002225876,-0.003307343,0,
00:02.8,-0.003112793,0.00223732,-0.003307343,0,
00:02.8,-0.003095627,0.002231598,-0.003313065,0,
00:02.8,-0.003112793,0.002225876,-0.003313065,0,
00:02.8,-0.003124237,0.002231598,-0.003313065,0,
00:02.8,-0.003095627,0.002243042,-0.003318787,0,
00:02.8,-0.003084183,0.00223732,-0.003330231,0,
00:02.8,-0.003095627,0.002243042,-0.003335953,0,
00:02.8,-0.003095627,0.002243042,-0.003341675,0,
00:02.8,-0.003095627,0.00223732,-0.003335953,0,
00:02.8,-0.003095627,0.002231598,-0.003313065,0,
00:02.8,-0.003084183,0.00223732,-0.00330162,0,
00:02.8,-0.003089905,0.002231598,-0.00330162,0,
00:02.8,-0.003107071,0.002231598,-0.00330162,0,
00:02.9,-0.003124237,0.002231598,-0.003307343,0,
00:02.9,-0.003118515,0.00223732,-0.003313065,0,
00:02.9,-0.003095627,0.002243042,-0.003318787,0,
00:02.9,-0.003089905,0.002243042,-0.003318787,0,
00:02.9,-0.003089905,0.002231598,-0.003318787,0,
00:02.9,-0.003107071,0.002231598,-0.003324509,0,
00:02.9,-0.003107071,0.002243042,-0.003324509,0,
00:02.9,-0.003089905,0.002243042,-0.003330231,0,
00:02.9,-0.003084183,0.002243042,-0.003335953,0,
00:02.9,-0.003089905,0.002243042,-0.003335953,0,
00:02.9,-0.003101349,0.00223732,-0.003330231,0,
00:02.9,-0.003101349,0.00223732,-0.003324509,0,
00:02.9,-0.003101349,0.002243042,-0.003324509,0,
00:02.9,-0.003095627,0.00223732,-0.003330231,0,
00:02.9,-0.003095627,0.00223732,-0.003318787,0,
00:02.9,-0.003118515,0.002231598,-0.003324509,0,
00:02.9,-0.003135681,0.002231598,-0.003324509,0,
00:02.9,-0.003112793,0.002243042,-0.003318787,0,
00:02.9,-0.003078461,0.00223732,-0.003318787,0,
00:02.9,-0.003095627,0.00223732,-0.003324509,0,
00:02.9,-0.003107071,0.00223732,-0.003324509,0,
00:02.9,-0.003112793,0.00223732,-0.003318787,0,
00:02.9,-0.003118515,0.00223732,-0.003318787,0,
00:02.9,-0.003107071,0.00223732,-0.003330231,0,
00:02.9,-0.003084183,0.002243042,-0.003341675,0,
00:03.0,-0.003084183,0.00223732,-0.003318787,0,
00:03.0,-0.003095627,0.002231598,-0.003324509,0,
00:03.0,-0.003107071,0.00223732,-0.003330231,0,
00:03.0,-0.003107071,0.00223732,-0.003330231,0,
00:03.0,-0.003107071,0.002225876,-0.003330231,0,
00:03.0,-0.003118515,0.002231598,-0.003330231,0,
00:03.0,-0.003107071,0.002231598,-0.003324509,0,
00:03.0,-0.003095627,0.002243042,-0.003318787,0,
00:03.0,-0.003084183,0.002243042,-0.003335953,0,
00:03.0,-0.003084183,0.002231598,-0.003335953,0,
00:03.0,-0.003107071,0.00223732,-0.003330231,0,
00:03.0,-0.003089905,0.002243042,-0.003324509,0,
00:00:03,-0.003072739,0.00223732,-0.003330231,0,
00:03.0,-0.003084183,0.00223732,-0.003324509,0,
00:03.0,-0.003084183,0.00223732,-0.003330231,0,
00:03.0,-0.003095627,0.00223732,-0.003324509,0,
00:03.0,-0.003089905,0.00223732,-0.003324509,0,
00:03.0,-0.003084183,0.002231598,-0.003330231,0,
00:03.0,-0.003095627,0.002231598,-0.003335953,0,
00:03.0,-0.003107071,0.002231598,-0.003330231,0,
00:03.0,-0.003107071,0.00223732,-0.003335953,0,
00:03.0,-0.003089905,0.002243042,-0.003330231,0,
00:03.0,-0.003084183,0.00223732,-0.003330231,0,
00:03.0,-0.003089905,0.002231598,-0.003324509,0,
00:03.0,-0.003101349,0.002231598,-0.003324509,0,
00:03.1,-0.003095627,0.00223732,-0.003335953,0,
00:03.1,-0.003084183,0.00223732,-0.003335953,0,
00:03.1,-0.003078461,0.00223732,-0.003335953,0,
00:03.1,-0.003078461,0.002231598,-0.003330231,0,
00:03.1,-0.003089905,0.00223732,-0.003324509,0,
00:03.1,-0.003089905,0.002231598,-0.003330231,0,
00:03.1,-0.003101349,0.00223732,-0.003335953,0,
00:03.1,-0.003084183,0.002231598,-0.003324509,0,
00:03.1,-0.003089905,0.002231598,-0.003335953,0,
00:03.1,-0.003101349,0.002231598,-0.003330231,0,
00:03.1,-0.003095627,0.00223732,-0.003330231,0,
00:03.1,-0.003089905,0.00223732,-0.003335953,0,
00:03.1,-0.003095627,0.002231598,-0.003347397,0,
00:03.1,-0.003107071,0.002231598,-0.003330231,0,
00:03.1,-0.003118515,0.002231598,-0.003335953,0,
00:03.1,-0.003095627,0.002243042,-0.003324509,0,
00:03.1,-0.003067017,0.00223732,-0.003330231,0,
00:03.1,-0.003067017,0.00223732,-0.003324509,0,
00:03.1,-0.003078461,0.00223732,-0.003330231,0,
00:03.1,-0.003095627,0.002225876,-0.003324509,0,
00:03.1,-0.003112793,0.002225876,-0.003330231,0,
00:03.1,-0.003107071,0.002243042,-0.003330231,0,
00:03.1,-0.003067017,0.002243042,-0.003335953,0,
00:03.1,-0.003067017,0.002231598,-0.003335953,0,
00:03.1,-0.003084183,0.002231598,-0.003335953,0,
00:03.2,-0.003089905,0.002231598,-0.003335953,0,
00:03.2,-0.003089905,0.00223732,-0.003335953,0,
00:03.2,-0.003072739,0.002231598,-0.003330231,0,
00:03.2,-0.003089905,0.002231598,-0.003335953,0,
00:03.2,-0.003089905,0.002231598,-0.003341675,0,
00:03.2,-0.003067017,0.002231598,-0.003341675,0,
00:03.2,-0.003067017,0.002231598,-0.003330231,0,
00:03.2,-0.003084183,0.002231598,-0.003341675,0,
00:03.2,-0.003101349,0.002225876,-0.003347397,0,
00:03.2,-0.003101349,0.002231598,-0.003330231,0,
00:03.2,-0.003084183,0.002231598,-0.003330231,0,
00:03.2,-0.003061295,0.002225876,-0.003335953,0,
00:03.2,-0.003072739,0.002225876,-0.003341675,0,
00:03.2,-0.003072739,0.002231598,-0.003341675,0,
00:03.2,-0.003072739,0.002231598,-0.003330231,0,
00:03.2,-0.003072739,0.002231598,-0.003330231,0,
00:03.2,-0.003072739,0.002225876,-0.003335953,0,
00:03.2,-0.003078461,0.002220154,-0.003341675,0,
00:03.2,-0.003084183,0.002225876,-0.003341675,0,
00:03.2,-0.003084183,0.002231598,-0.003330231,0,
00:03.2,-0.003078461,0.002225876,-0.003324509,0,
00:03.2,-0.003084183,0.002220154,-0.003330231,0,
00:03.2,-0.003089905,0.002225876,-0.003335953,0,
00:03.2,-0.003084183,0.002225876,-0.003341675,0,
00:03.2,-0.003078461,0.002225876,-0.003335953,0,
00:03.3,-0.003078461,0.002225876,-0.003341675,0,
00:03.3,-0.003072739,0.002225876,-0.003335953,0,
00:03.3,-0.003061295,0.002220154,-0.003335953,0,
00:03.3,-0.003084183,0.002220154,-0.003330231,0,
00:03.3,-0.003084183,0.002231598,-0.003330231,0,
00:03.3,-0.003061295,0.002231598,-0.003341675,0,
00:03.3,-0.003067017,0.002225876,-0.003347397,0,
00:03.3,-0.003072739,0.002225876,-0.003341675,0,
00:03.3,-0.003061295,0.002231598,-0.003341675,0,
00:03.3,-0.003067017,0.002231598,-0.003341675,0,
00:03.3,-0.003055573,0.002231598,-0.003335953,0,
00:03.3,-0.00304985,0.002231598,-0.003335953,0,
00:03.3,-0.003055573,0.002225876,-0.003330231,0,
00:03.3,-0.003055573,0.002220154,-0.003341675,0,
00:03.3,-0.003078461,0.002214432,-0.003341675,0,
00:03.3,-0.003089905,0.002220154,-0.003335953,0,
00:03.3,-0.003061295,0.002225876,-0.003330231,0,
00:03.3,-0.00304985,0.002220154,-0.003330231,0,
00:03.3,-0.003067017,0.002220154,-0.003330231,0,
00:03.3,-0.003072739,0.002220154,-0.003335953,0,
00:03.3,-0.003072739,0.002220154,-0.003347397,0,
00:03.3,-0.003061295,0.002220154,-0.003335953,0,
00:03.3,-0.003061295,0.002220154,-0.003330231,0,
00:03.3,-0.003061295,0.002214432,-0.003335953,0,
00:03.3,-0.003067017,0.002220154,-0.003341675,0,
00:03.4,-0.003067017,0.002220154,-0.003341675,0,
00:03.4,-0.003067017,0.002220154,-0.003335953,0,
00:03.4,-0.003067017,0.002220154,-0.003335953,0,
00:03.4,-0.003061295,0.002220154,-0.003335953,0,
00:03.4,-0.003061295,0.002225876,-0.003341675,0,
00:03.4,-0.003055573,0.002225876,-0.003335953,0,
00:03.4,-0.003055573,0.002214432,-0.003330231,0,
00:03.4,-0.003055573,0.002220154,-0.003335953,0,
00:03.4,-0.00304985,0.002220154,-0.003335953,0,
00:03.4,-0.003061295,0.002225876,-0.003324509,0,
00:03.4,-0.003067017,0.002225876,-0.003324509,0,
00:03.4,-0.003055573,0.002220154,-0.003324509,0,
00:03.4,-0.003055573,0.002220154,-0.003330231,0,
00:03.4,-0.003072739,0.002225876,-0.003324509,0,
00:03.4,-0.003061295,0.002220154,-0.003313065,0,
00:03.4,-0.003061295,0.002220154,-0.003318787,0,
00:03.4,-0.003061295,0.002220154,-0.003324509,0,
00:03.4,-0.003044128,0.002220154,-0.003318787,0,
00:03.4,-0.00304985,0.002220154,-0.003318787,0,
00:03.4,-0.003061295,0.002220154,-0.003330231,0,
00:03.4,-0.003061295,0.002220154,-0.003330231,0,
00:03.4,-0.00304985,0.002225876,-0.003324509,0,
00:03.4,-0.003044128,0.002220154,-0.003330231,0,
00:03.4,-0.003055573,0.002225876,-0.003335953,0,
00:03.4,-0.003044128,0.002214432,-0.003341675,0,
00:03.5,-0.003061295,0.00220871,-0.003330231,0,
00:03.5,-0.003072739,0.002214432,-0.003324509,0,
00:03.5,-0.003072739,0.002220154,-0.003330231,0,
00:03.5,-0.00304985,0.002220154,-0.003330231,0,
00:03.5,-0.003044128,0.002220154,-0.003318787,0,
00:03.5,-0.003038406,0.002220154,-0.003324509,0,
00:03.5,-0.00304985,0.00220871,-0.003330231,0,
00:03.5,-0.003061295,0.002214432,-0.003324509,0,
00:03.5,-0.003061295,0.002214432,-0.003324509,0,
00:03.5,-0.003055573,0.002214432,-0.003324509,0,
00:03.5,-0.00304985,0.002214432,-0.003318787,0,
00:03.5,-0.003055573,0.002214432,-0.003324509,0,
00:03.5,-0.003044128,0.002220154,-0.003330231,0,
00:03.5,-0.003026962,0.002214432,-0.003324509,0,
00:03.5,-0.003055573,0.002202988,-0.003318787,0,
00:03.5,-0.003067017,0.00220871,-0.003324509,0,
00:03.5,-0.003061295,0.002214432,-0.003324509,0,
00:03.5,-0.003038406,0.002220154,-0.003318787,0,
00:03.5,-0.003038406,0.002220154,-0.003330231,0,
00:03.5,-0.00304985,0.00220871,-0.003330231,0,
00:03.5,-0.003072739,0.00220871,-0.003318787,0,
00:03.5,-0.003061295,0.00220871,-0.003324509,0,
00:03.5,-0.003026962,0.002214432,-0.003324509,0,
00:03.5,-0.003038406,0.002220154,-0.003324509,0,
00:03.5,-0.003032684,0.002220154,-0.003324509,0,
00:03.6,-0.003038406,0.00220871,-0.003324509,0,
00:03.6,-0.003055573,0.002202988,-0.003324509,0,
00:03.6,-0.003061295,0.002214432,-0.003330231,0,
00:03.6,-0.003061295,0.002214432,-0.003318787,0,
00:03.6,-0.003055573,0.002214432,-0.003324509,0,
00:03.6,-0.003038406,0.00220871,-0.003341675,0,
00:03.6,-0.003026962,0.002214432,-0.003324509,0,
00:03.6,-0.003032684,0.00220871,-0.003313065,0,
00:03.6,-0.003044128,0.00220871,-0.003324509,0,
00:03.6,-0.003044128,0.00220871,-0.003330231,0,
00:03.6,-0.003044128,0.00220871,-0.003324509,0,
00:03.6,-0.003038406,0.00220871,-0.003330231,0,
00:03.6,-0.003038406,0.002214432,-0.003330231,0,
00:03.6,-0.003055573,0.00220871,-0.003330231,0,
00:03.6,-0.00304985,0.00220871,-0.003324509,0,
00:03.6,-0.003032684,0.002202988,-0.003330231,0,
00:03.6,-0.003032684,0.002214432,-0.003324509,0,
00:03.6,-0.003026962,0.002220154,-0.003318787,0,
00:03.6,-0.00302124,0.00220871,-0.003318787,0,
00:03.6,-0.003032684,0.002202988,-0.003324509,0,
00:03.6,-0.003038406,0.00220871,-0.003324509,0,
00:03.6,-0.003038406,0.00220871,-0.003330231,0,
00:03.6,-0.003044128,0.002202988,-0.003330231,0,
00:03.6,-0.003055573,0.002202988,-0.003324509,0,
00:03.6,-0.00304985,0.002214432,-0.003324509,0,
00:03.7,-0.003032684,0.00220871,-0.003324509,0,
00:03.7,-0.003044128,0.002202988,-0.003324509,0,
00:03.7,-0.003044128,0.00220871,-0.003324509,0,
00:03.7,-0.003026962,0.002220154,-0.003324509,0,
00:03.7,-0.003026962,0.00220871,-0.003330231,0,
00:03.7,-0.003038406,0.002202988,-0.003330231,0,
00:03.7,-0.003044128,0.002202988,-0.003324509,0,
00:03.7,-0.003044128,0.002202988,-0.003330231,0,
00:03.7,-0.003044128,0.002202988,-0.003330231,0,
00:03.7,-0.00304985,0.00220871,-0.003324509,0,
00:03.7,-0.003038406,0.00220871,-0.003330231,0,
00:03.7,-0.003032684,0.002202988,-0.003330231,0,
00:03.7,-0.003026962,0.002202988,-0.003324509,0,
00:03.7,-0.003038406,0.002202988,-0.003330231,0,
00:03.7,-0.003044128,0.00220871,-0.003324509,0,
00:03.7,-0.003044128,0.00220871,-0.003324509,0,
00:03.7,-0.003032684,0.00220871,-0.003330231,0,
00:03.7,-0.00302124,0.002202988,-0.003335953,0,
00:03.7,-0.003032684,0.002202988,-0.003335953,0,
00:03.7,-0.003032684,0.002202988,-0.003335953,0,
00:03.7,-0.003026962,0.002202988,-0.003335953,0,
00:03.7,-0.003032684,0.00220871,-0.003330231,0,
00:03.7,-0.00302124,0.00220871,-0.003330231,0,
00:03.7,-0.003026962,0.00220871,-0.003335953,0,
00:03.7,-0.003032684,0.00220871,-0.003330231,0,
00:03.8,-0.003032684,0.002202988,-0.003324509,0,
00:03.8,-0.003032684,0.002202988,-0.003324509,0,
00:03.8,-0.003032684,0.002202988,-0.003330231,0,
00:03.8,-0.003032684,0.002197266,-0.003330231,0,
00:03.8,-0.003038406,0.002197266,-0.003330231,0,
00:03.8,-0.00304985,0.002191544,-0.003330231,0,
00:03.8,-0.003044128,0.002202988,-0.003330231,0,
00:03.8,-0.00302124,0.00220871,-0.003335953,0,
00:03.8,-0.003026962,0.002202988,-0.003335953,0,
00:03.8,-0.003044128,0.002197266,-0.003335953,0,
00:03.8,-0.003032684,0.002202988,-0.003324509,0,
00:03.8,-0.003009796,0.002197266,-0.003330231,0,
00:03.8,-0.003026962,0.002197266,-0.003330231,0,
00:03.8,-0.003032684,0.002202988,-0.003330231,0,
00:03.8,-0.003026962,0.002202988,-0.003324509,0,
00:03.8,-0.003038406,0.002191544,-0.003330231,0,
00:03.8,-0.003044128,0.002185822,-0.003324509,0,
00:03.8,-0.003044128,0.002185822,-0.003330231,0,
00:03.8,-0.003044128,0.002197266,-0.003330231,0,
00:03.8,-0.003026962,0.002197266,-0.003335953,0,
00:03.8,-0.003026962,0.002202988,-0.003347397,0,
00:03.8,-0.00302124,0.002202988,-0.003341675,0,
00:03.8,-0.003009796,0.002197266,-0.003330231,0,
00:03.8,-0.00302124,0.002191544,-0.003335953,0,
00:03.8,-0.003026962,0.002202988,-0.003324509,0,
00:03.9,-0.00302124,0.002197266,-0.003324509,0,
00:03.9,-0.003015518,0.002197266,-0.003335953,0,
00:03.9,-0.00302124,0.002191544,-0.003335953,0,
00:03.9,-0.003026962,0.002197266,-0.003330231,0,
00:03.9,-0.003032684,0.002197266,-0.003330231,0,
00:03.9,-0.00302124,0.002185822,-0.003335953,0,
00:03.9,-0.003026962,0.002185822,-0.003335953,0,
00:03.9,-0.003026962,0.002191544,-0.003335953,0,
00:03.9,-0.003015518,0.002202988,-0.003330231,0,
00:03.9,-0.003015518,0.002197266,-0.003330231,0,
00:03.9,-0.003026962,0.002191544,-0.003330231,0,
00:03.9,-0.00302124,0.002185822,-0.003330231,0,
00:03.9,-0.00302124,0.002185822,-0.003335953,0,
00:03.9,-0.00302124,0.002191544,-0.003341675,0,
00:03.9,-0.00302124,0.002197266,-0.003335953,0,
00:03.9,-0.00302124,0.002197266,-0.003335953,0,
00:03.9,-0.003015518,0.002191544,-0.003330231,0,
00:03.9,-0.00302124,0.002185822,-0.003330231,0,
00:03.9,-0.003032684,0.002185822,-0.003330231,0,
00:03.9,-0.003038406,0.002185822,-0.003324509,0,
00:03.9,-0.003032684,0.002191544,-0.003324509,0,
00:03.9,-0.003015518,0.002185822,-0.003335953,0,
00:03.9,-0.003015518,0.002191544,-0.003335953,0,
00:03.9,-0.003015518,0.002185822,-0.003335953,0,
00:03.9,-0.003026962,0.002185822,-0.003335953,0,
00:04.0,-0.003026962,0.002180099,-0.003341675,0,
00:04.0,-0.003026962,0.002180099,-0.003335953,0,
00:04.0,-0.00302124,0.002185822,-0.003330231,0,
00:04.0,-0.003015518,0.002185822,-0.003335953,0,
00:04.0,-0.003015518,0.002191544,-0.003335953,0,
00:04.0,-0.003015518,0.002180099,-0.003330231,0,
00:04.0,-0.00302124,0.002180099,-0.003335953,0,
00:04.0,-0.003015518,0.002180099,-0.003341675,0,
00:04.0,-0.003009796,0.002180099,-0.003341675,0,
00:04.0,-0.003026962,0.002185822,-0.003335953,0,
00:04.0,-0.003032684,0.002185822,-0.003330231,0,
00:04.0,-0.00302124,0.002180099,-0.003335953,0,
00:00:04,-0.003009796,0.002185822,-0.003335953,0,
00:04.0,-0.003004074,0.002191544,-0.003330231,0,
00:04.0,-0.003004074,0.002191544,-0.003330231,0,
00:04.0,-0.003015518,0.002180099,-0.003330231,0,
00:04.0,-0.00302124,0.002180099,-0.003330231,0,
00:04.0,-0.003032684,0.002174377,-0.003341675,0,
00:04.0,-0.003044128,0.002174377,-0.003341675,0,
00:04.0,-0.003032684,0.002185822,-0.003330231,0,
00:04.0,-0.003015518,0.002191544,-0.003335953,0,
00:04.0,-0.003009796,0.002180099,-0.003341675,0,
00:04.0,-0.003004074,0.002185822,-0.003341675,0,
00:04.0,-0.003009796,0.002180099,-0.003335953,0,
00:04.0,-0.00302124,0.002180099,-0.003341675,0,
00:04.1,-0.003026962,0.002180099,-0.003347397,0,
00:04.1,-0.00302124,0.002180099,-0.003347397,0,
00:04.1,-0.003004074,0.002180099,-0.003341675,0,
00:04.1,-0.003004074,0.002185822,-0.003341675,0,
00:04.1,-0.003009796,0.002185822,-0.003335953,0,
00:04.1,-0.003009796,0.002180099,-0.003335953,0,
00:04.1,-0.003009796,0.002174377,-0.003341675,0,
00:04.1,-0.002998352,0.002174377,-0.003341675,0,
00:04.1,-0.003004074,0.002180099,-0.003341675,0,
00:04.1,-0.003009796,0.002174377,-0.003347397,0,
00:04.1,-0.00302124,0.002180099,-0.003341675,0,
00:04.1,-0.003009796,0.002174377,-0.003335953,0,
00:04.1,-0.003015518,0.002180099,-0.003335953,0,
00:04.1,-0.003015518,0.002174377,-0.003335953,0,
00:04.1,-0.003015518,0.002174377,-0.003353119,0,
00:04.1,-0.003009796,0.002174377,-0.003341675,0,
00:04.1,-0.003009796,0.002168655,-0.003330231,0,
00:04.1,-0.00302124,0.002168655,-0.003335953,0,
00:04.1,-0.00302124,0.002174377,-0.003335953,0,
00:04.1,-0.003009796,0.002174377,-0.003347397,0,
00:04.1,-0.003015518,0.002180099,-0.003341675,0,
00:04.1,-0.003004074,0.002180099,-0.003347397,0,
00:04.1,-0.003004074,0.002174377,-0.003364563,0,
00:04.1,-0.003015518,0.002168655,-0.003341675,0,
00:04.1,-0.003026962,0.002174377,-0.003335953,0,
00:04.2,-0.003009796,0.002174377,-0.003347397,0,
00:04.2,-0.003004074,0.002168655,-0.003341675,0,
00:04.2,-0.003004074,0.002174377,-0.003347397,0,
00:04.2,-0.003009796,0.002174377,-0.003353119,0,
00:04.2,-0.003015518,0.002180099,-0.003347397,0,
00:04.2,-0.003004074,0.002174377,-0.003347397,0,
00:04.2,-0.003009796,0.002168655,-0.003353119,0,
00:04.2,-0.003004074,0.002168655,-0.003353119,0,
00:04.2,-0.002998352,0.002180099,-0.003353119,0,
00:04.2,-0.00299263,0.002174377,-0.003341675,0,
00:04.2,-0.00299263,0.002168655,-0.003341675,0,
00:04.2,-0.003009796,0.002168655,-0.003341675,0,
00:04.2,-0.00302124,0.002174377,-0.003347397,0,
00:04.2,-0.003004074,0.002174377,-0.003358841,0,
00:04.2,-0.002998352,0.002174377,-0.003358841,0,
00:04.2,-0.003004074,0.002174377,-0.003347397,0,
00:04.2,-0.003004074,0.002174377,-0.003347397,0,
00:04.2,-0.002998352,0.002174377,-0.003353119,0,
00:04.2,-0.003009796,0.002168655,-0.003353119,0,
00:04.2,-0.003015518,0.002168655,-0.003347397,0,
00:04.2,-0.003004074,0.002174377,-0.003353119,0,
00:04.2,-0.00299263,0.002168655,-0.003347397,0,
00:04.2,-0.002998352,0.002168655,-0.003347397,0,
00:04.2,-0.003015518,0.002168655,-0.003353119,0,
00:04.2,-0.003009796,0.002168655,-0.003353119,0,
00:04.3,-0.003004074,0.002168655,-0.003347397,0,
00:04.3,-0.003009796,0.002168655,-0.003353119,0,
00:04.3,-0.003004074,0.002168655,-0.003347397,0,
00:04.3,-0.003004074,0.002162933,-0.003358841,0,
00:04.3,-0.003009796,0.002174377,-0.003358841,0,
00:04.3,-0.003004074,0.002168655,-0.003358841,0,
00:04.3,-0.003004074,0.002162933,-0.003353119,0,
00:04.3,-0.003004074,0.002162933,-0.003353119,0,
00:04.3,-0.003004074,0.002162933,-0.003358841,0,
00:04.3,-0.003009796,0.002168655,-0.003358841,0,
00:04.3,-0.003004074,0.002174377,-0.003347397,0,
00:04.3,-0.00299263,0.002168655,-0.003358841,0,
00:04.3,-0.00299263,0.002162933,-0.003376007,0,
00:04.3,-0.002998352,0.002168655,-0.003364563,0,
00:04.3,-0.00299263,0.002168655,-0.003353119,0,
00:04.3,-0.002998352,0.002162933,-0.003353119,0,
00:04.3,-0.002998352,0.002162933,-0.003347397,0,
00:04.3,-0.00299263,0.002168655,-0.003353119,0,
00:04.3,-0.00299263,0.002162933,-0.003358841,0,
00:04.3,-0.003004074,0.002157211,-0.003364563,0,
00:04.3,-0.003009796,0.002157211,-0.003370285,0,
00:04.3,-0.002998352,0.002162933,-0.003364563,0,
00:04.3,-0.00299263,0.002162933,-0.003364563,0,
00:04.3,-0.00299263,0.002168655,-0.003376007,0,
00:04.3,-0.00299263,0.002157211,-0.003364563,0,
00:04.4,-0.003004074,0.002151489,-0.003358841,0,
00:04.4,-0.003009796,0.002151489,-0.003370285,0,
00:04.4,-0.003004074,0.002157211,-0.003376007,0,
00:04.4,-0.002998352,0.002157211,-0.003364563,0,
00:04.4,-0.00299263,0.002162933,-0.003364563,0,
00:04.4,-0.002986908,0.002157211,-0.003358841,0,
00:04.4,-0.002986908,0.002151489,-0.003358841,0,
00:04.4,-0.002998352,0.002145767,-0.003370285,0,
00:04.4,-0.003009796,0.002145767,-0.003358841,0,
00:04.4,-0.003026962,0.002151489,-0.003364563,0,
00:04.4,-0.002998352,0.002162933,-0.003364563,0,
00:04.4,-0.002975464,0.002162933,-0.003358841,0,
00:04.4,-0.002969742,0.002157211,-0.003364563,0,
00:04.4,-0.002986908,0.002157211,-0.003364563,0,
00:04.4,-0.002986908,0.002157211,-0.003364563,0,
00:04.4,-0.002981186,0.002157211,-0.003353119,0,
00:04.4,-0.00299263,0.002151489,-0.003358841,0,
00:04.4,-0.003009796,0.002151489,-0.003370285,0,
00:04.4,-0.003009796,0.002151489,-0.003370285,0,
00:04.4,-0.002998352,0.002145767,-0.003364563,0,
00:04.4,-0.002998352,0.002145767,-0.003370285,0,
00:04.4,-0.002986908,0.002157211,-0.003370285,0,
00:04.4,-0.002981186,0.002157211,-0.003381729,0,
00:04.4,-0.002981186,0.002157211,-0.003376007,0,
00:04.4,-0.002986908,0.002151489,-0.003370285,0,
00:04.5,-0.002986908,0.002145767,-0.003364563,0,
00:04.5,-0.002981186,0.002145767,-0.003370285,0,
00:04.5,-0.00299263,0.002145767,-0.003376007,0,
00:04.5,-0.003004074,0.002151489,-0.003370285,0,
00:04.5,-0.002998352,0.002145767,-0.003370285,0,
00:04.5,-0.002998352,0.002145767,-0.003364563,0,
00:04.5,-0.00299263,0.002151489,-0.003364563,0,
00:04.5,-0.00299263,0.002151489,-0.003376007,0,
00:04.5,-0.002986908,0.002151489,-0.003376007,0,
00:04.5,-0.002986908,0.002151489,-0.003376007,0,
00:04.5,-0.002986908,0.002151489,-0.003376007,0,
00:04.5,-0.002981186,0.002145767,-0.003370285,0,
00:04.5,-0.002981186,0.002145767,-0.003364563,0,
00:04.5,-0.00299263,0.002145767,-0.003370285,0,
00:04.5,-0.002998352,0.002145767,-0.003370285,0,
00:04.5,-0.002998352,0.002145767,-0.003376007,0,
00:04.5,-0.002981186,0.002151489,-0.003376007,0,
00:04.5,-0.002981186,0.002145767,-0.003381729,0,
00:04.5,-0.00299263,0.002145767,-0.003370285,0,
00:04.5,-0.003004074,0.002134323,-0.003376007,0,
00:04.5,-0.002998352,0.002145767,-0.003376007,0,
00:04.5,-0.002975464,0.002151489,-0.003381729,0,
00:04.5,-0.00296402,0.002145767,-0.003387451,0,
00:04.5,-0.002981186,0.002145767,-0.003381729,0,
00:04.5,-0.00299263,0.002151489,-0.003370285,0,
00:04.6,-0.002981186,0.002145767,-0.003376007,0,
00:04.6,-0.002986908,0.002140045,-0.003381729,0,
00:04.6,-0.002998352,0.002134323,-0.003381729,0,
00:04.6,-0.003009796,0.002145767,-0.003387451,0,
00:04.6,-0.002986908,0.002157211,-0.003381729,0,
00:04.6,-0.00296402,0.002140045,-0.003370285,0,
00:04.6,-0.002981186,0.002134323,-0.003370285,0,
00:04.6,-0.00299263,0.002134323,-0.003381729,0,
00:04.6,-0.003004074,0.002145767,-0.003376007,0,
00:04.6,-0.002986908,0.002140045,-0.003376007,0,
00:04.6,-0.002975464,0.002140045,-0.003376007,0,
00:04.6,-0.002981186,0.002140045,-0.003381729,0,
00:04.6,-0.002986908,0.002140045,-0.003381729,0,
00:04.6,-0.002986908,0.002140045,-0.003387451,0,
00:04.6,-0.002986908,0.002140045,-0.003381729,0,
00:04.6,-0.002981186,0.002134323,-0.003381729,0,
00:04.6,-0.002981186,0.002140045,-0.003387451,0,
00:04.6,-0.002981186,0.002140045,-0.003387451,0,
00:04.6,-0.002986908,0.002140045,-0.003381729,0,
00:04.6,-0.002975464,0.002140045,-0.003376007,0,
00:04.6,-0.002975464,0.002140045,-0.003387451,0,
00:04.6,-0.002981186,0.002134323,-0.003398895,0,
00:04.6,-0.002986908,0.002134323,-0.003387451,0,
00:04.6,-0.002981186,0.002134323,-0.003381729,0,
00:04.6,-0.002981186,0.002128601,-0.003381729,0,
00:04.7,-0.002986908,0.002134323,-0.003393173,0,
00:04.7,-0.002975464,0.002134323,-0.003381729,0,
00:04.7,-0.002975464,0.002140045,-0.003381729,0,
00:04.7,-0.002981186,0.002134323,-0.003387451,0,
00:04.7,-0.002981186,0.002134323,-0.003393173,0,
00:04.7,-0.002981186,0.002140045,-0.003393173,0,
00:04.7,-0.002981186,0.002128601,-0.003393173,0,
00:04.7,-0.002986908,0.002128601,-0.003387451,0,
00:04.7,-0.002986908,0.002134323,-0.003398895,0,
00:04.7,-0.002986908,0.002140045,-0.003387451,0,
00:04.7,-0.002986908,0.002134323,-0.003376007,0,
00:04.7,-0.002981186,0.002128601,-0.003381729,0,
00:04.7,-0.002969742,0.002128601,-0.003387451,0,
00:04.7,-0.002981186,0.002134323,-0.003393173,0,
00:04.7,-0.002986908,0.002134323,-0.003387451,0,
00:04.7,-0.002986908,0.002128601,-0.003398895,0,
00:04.7,-0.002986908,0.002128601,-0.003404617,0,
00:04.7,-0.002981186,0.002128601,-0.003410339,0,
00:04.7,-0.002986908,0.002122879,-0.003398895,0,
00:04.7,-0.002986908,0.002128601,-0.003398895,0,
00:04.7,-0.002969742,0.002122879,-0.003393173,0,
00:04.7,-0.002975464,0.002122879,-0.003393173,0,
00:04.7,-0.002986908,0.002122879,-0.003393173,0,
00:04.7,-0.00299263,0.002122879,-0.003393173,0,
00:04.7,-0.002981186,0.002128601,-0.003398895,0,
00:04.8,-0.002969742,0.002134323,-0.003416061,0,
00:04.8,-0.00296402,0.002134323,-0.003416061,0,
00:04.8,-0.002969742,0.002122879,-0.003398895,0,
00:04.8,-0.00299263,0.002117157,-0.003398895,0,
00:04.8,-0.002998352,0.002122879,-0.003393173,0,
00:04.8,-0.002986908,0.002122879,-0.003381729,0,
00:04.8,-0.002981186,0.002128601,-0.003387451,0,
00:04.8,-0.002975464,0.002122879,-0.003387451,0,
00:04.8,-0.002986908,0.002117157,-0.003393173,0,
00:04.8,-0.002975464,0.002122879,-0.003404617,0,
00:04.8,-0.00296402,0.002128601,-0.003404617,0,
00:04.8,-0.00296402,0.002128601,-0.003410339,0,
00:04.8,-0.002969742,0.002122879,-0.003410339,0,
00:04.8,-0.002975464,0.002117157,-0.003410339,0,
00:04.8,-0.002975464,0.002111435,-0.003410339,0,
00:04.8,-0.002975464,0.002117157,-0.003404617,0,
00:04.8,-0.002969742,0.002117157,-0.003410339,0,
00:04.8,-0.002969742,0.002117157,-0.003410339,0,
00:04.8,-0.002981186,0.002117157,-0.003410339,0,
00:04.8,-0.00299263,0.002111435,-0.003416061,0,
00:04.8,-0.003004074,0.002111435,-0.003421783,0,
00:04.8,-0.002975464,0.002111435,-0.003427505,0,
00:04.8,-0.00296402,0.002117157,-0.003421783,0,
00:04.8,-0.00296402,0.002117157,-0.003410339,0,
00:04.8,-0.002958298,0.002117157,-0.003410339,0,
00:04.9,-0.00296402,0.002117157,-0.003398895,0,
00:04.9,-0.002975464,0.002111435,-0.003410339,0,
00:04.9,-0.002975464,0.002111435,-0.003416061,0,
00:04.9,-0.002969742,0.002117157,-0.003404617,0,
00:04.9,-0.002975464,0.002111435,-0.003398895,0,
00:04.9,-0.002981186,0.002105713,-0.003404617,0,
00:04.9,-0.002975464,0.002105713,-0.003416061,0,
00:04.9,-0.002975464,0.002105713,-0.003416061,0,
00:04.9,-0.002981186,0.002099991,-0.003410339,0,
00:04.9,-0.002986908,0.002117157,-0.003410339,0,
00:04.9,-0.00296402,0.002117157,-0.003416061,0,
00:04.9,-0.002946854,0.002111435,-0.003416061,0,
00:04.9,-0.002958298,0.002111435,-0.003416061,0,
00:04.9,-0.00296402,0.002105713,-0.003427505,0,
00:04.9,-0.002975464,0.002105713,-0.003427505,0,
00:04.9,-0.002975464,0.002099991,-0.003421783,0,
00:04.9,-0.002975464,0.002105713,-0.003416061,0,
00:04.9,-0.002975464,0.002111435,-0.003410339,0,
00:04.9,-0.002969742,0.002105713,-0.003410339,0,
00:04.9,-0.002969742,0.002105713,-0.003416061,0,
00:04.9,-0.00296402,0.002111435,-0.003421783,0,
00:04.9,-0.002952576,0.002111435,-0.003427505,0,
00:04.9,-0.002958298,0.002105713,-0.003433228,0,
00:04.9,-0.002969742,0.002105713,-0.003433228,0,
00:04.9,-0.00296402,0.002111435,-0.003416061,0,
00:05.0,-0.00296402,0.002105713,-0.003416061,0,
00:05.0,-0.002969742,0.002105713,-0.003427505,0,
00:05.0,-0.002981186,0.002105713,-0.003433228,0,
00:05.0,-0.002975464,0.002105713,-0.003416061,0,
00:05.0,-0.00296402,0.002105713,-0.003416061,0,
00:05.0,-0.00296402,0.002105713,-0.003421783,0,
00:05.0,-0.00296402,0.002099991,-0.003433228,0,
00:05.0,-0.002986908,0.002099991,-0.003433228,0,
00:05.0,-0.002981186,0.002111435,-0.003421783,0,
00:05.0,-0.002958298,0.002105713,-0.003427505,0,
00:05.0,-0.00296402,0.002099991,-0.003416061,0,
00:05.0,-0.002975464,0.002099991,-0.003421783,0,
00:00:05,-0.002975464,0.002099991,-0.003416061,0,
00:05.0,-0.002969742,0.002105713,-0.003427505,0,
00:05.0,-0.00296402,0.002111435,-0.003433228,0,
00:05.0,-0.002958298,0.002099991,-0.003433228,0,
00:05.0,-0.00296402,0.002105713,-0.003433228,0,
00:05.0,-0.00296402,0.002094269,-0.003444672,0,
00:05.0,-0.002981186,0.002094269,-0.003433228,0,
00:05.0,-0.002986908,0.002099991,-0.003433228,0,
00:05.0,-0.002975464,0.002099991,-0.003433228,0,
00:05.0,-0.002969742,0.002099991,-0.003427505,0,
00:05.0,-0.002969742,0.002099991,-0.003427505,0,
00:05.0,-0.002969742,0.002099991,-0.003433228,0,
00:05.0,-0.002969742,0.002105713,-0.003433228,0,
00:05.1,-0.00296402,0.002094269,-0.003444672,0,
00:05.1,-0.002981186,0.002094269,-0.003433228,0,
00:05.1,-0.002981186,0.002099991,-0.003444672,0,
00:05.1,-0.00296402,0.002105713,-0.003450394,0,
00:05.1,-0.002958298,0.002088547,-0.003444672,0,
00:05.1,-0.002986908,0.002077103,-0.003444672,0,
00:05.1,-0.002998352,0.002099991,-0.003421783,0,
00:05.1,-0.002952576,0.002099991,-0.003421783,0,
00:05.1,-0.002946854,0.002094269,-0.003421783,0,
00:05.1,-0.002975464,0.002094269,-0.003427505,0,
00:05.1,-0.002975464,0.002094269,-0.003433228,0,
00:05.1,-0.002969742,0.002094269,-0.00343895,0,
00:05.1,-0.002975464,0.002099991,-0.00343895,0,
00:05.1,-0.00296402,0.002105713,-0.00343895,0,
00:05.1,-0.002952576,0.002105713,-0.003444672,0,
00:05.1,-0.002952576,0.002099991,-0.003444672,0,
00:05.1,-0.002958298,0.002088547,-0.003450394,0,
00:05.1,-0.002975464,0.002094269,-0.003450394,0,
00:05.1,-0.002975464,0.002099991,-0.003444672,0,
00:05.1,-0.002958298,0.002094269,-0.003444672,0,
00:05.1,-0.00296402,0.002094269,-0.00343895,0,
00:05.1,-0.002969742,0.002088547,-0.003444672,0,
00:05.1,-0.002975464,0.002088547,-0.003444672,0,
00:05.1,-0.002969742,0.002094269,-0.003456116,0,
00:05.1,-0.00296402,0.002094269,-0.003450394,0,
00:05.2,-0.002969742,0.002094269,-0.003444672,0,
00:05.2,-0.00296402,0.002099991,-0.003456116,0,
00:05.2,-0.002941132,0.002099991,-0.003456116,0,
00:05.2,-0.002952576,0.002082825,-0.003444672,0,
00:05.2,-0.002981186,0.002082825,-0.003427505,0,
00:05.2,-0.002986908,0.002082825,-0.003444672,0,
00:05.2,-0.002969742,0.002088547,-0.003450394,0,
00:05.2,-0.00296402,0.002088547,-0.003456116,0,
00:05.2,-0.00296402,0.002094269,-0.003450394,0,
00:05.2,-0.002952576,0.002094269,-0.003450394,0,
00:05.2,-0.002946854,0.002088547,-0.003444672,0,
00:05.2,-0.002952576,0.002094269,-0.003444672,0,
00:05.2,-0.002946854,0.002094269,-0.003444672,0,
00:05.2,-0.00296402,0.002088547,-0.003444672,0,
00:05.2,-0.002981186,0.002082825,-0.003450394,0,
00:05.2,-0.002975464,0.002088547,-0.003456116,0,
00:05.2,-0.002946854,0.002088547,-0.003456116,0,
00:05.2,-0.002946854,0.002088547,-0.003450394,0,
00:05.2,-0.002958298,0.002088547,-0.003456116,0,
00:05.2,-0.00296402,0.002088547,-0.003456116,0,
00:05.2,-0.002969742,0.002088547,-0.003456116,0,
00:05.2,-0.002958298,0.002082825,-0.003450394,0,
00:05.2,-0.002946854,0.002082825,-0.003444672,0,
00:05.2,-0.002958298,0.002082825,-0.003444672,0,
00:05.2,-0.002969742,0.002071381,-0.003444672,0,
00:05.3,-0.002986908,0.002077103,-0.003444672,0,
00:05.3,-0.002969742,0.002088547,-0.003456116,0,
00:05.3,-0.002946854,0.002088547,-0.003456116,0,
00:05.3,-0.002946854,0.002082825,-0.003456116,0,
00:05.3,-0.00296402,0.002082825,-0.003461838,0,
00:05.3,-0.002958298,0.002088547,-0.003461838,0,
00:05.3,-0.002946854,0.002082825,-0.003461838,0,
00:05.3,-0.002952576,0.002088547,-0.00346756,0,
00:05.3,-0.00293541,0.002082825,-0.003479004,0,
00:05.3,-0.002946854,0.002071381,-0.003461838,0,
00:05.3,-0.00296402,0.002077103,-0.003450394,0,
00:05.3,-0.002958298,0.002082825,-0.003444672,0,
00:05.3,-0.002958298,0.002077103,-0.003456116,0,
00:05.3,-0.00296402,0.002071381,-0.003461838,0,
00:05.3,-0.002975464,0.002077103,-0.003461838,0,
00:05.3,-0.002958298,0.002077103,-0.00346756,0,
00:05.3,-0.002946854,0.002077103,-0.00346756,0,
00:05.3,-0.002946854,0.002082825,-0.003473282,0,
00:05.3,-0.002952576,0.002082825,-0.00346756,0,
00:05.3,-0.002958298,0.002071381,-0.003473282,0,
00:05.3,-0.002969742,0.002071381,-0.00346756,0,
00:05.3,-0.002958298,0.002071381,-0.003461838,0,
00:05.3,-0.002958298,0.002071381,-0.003461838,0,
00:05.3,-0.00296402,0.002077103,-0.003456116,0,
00:05.3,-0.002952576,0.002077103,-0.003461838,0,
00:05.4,-0.002952576,0.002071381,-0.00346756,0,
00:05.4,-0.002958298,0.002071381,-0.00346756,0,
00:05.4,-0.002946854,0.002077103,-0.00346756,0,
00:05.4,-0.002952576,0.002077103,-0.003461838,0,
00:05.4,-0.002952576,0.002077103,-0.003461838,0,
00:05.4,-0.002952576,0.002071381,-0.003461838,0,
00:05.4,-0.002952576,0.002077103,-0.003461838,0,
00:05.4,-0.002952576,0.002071381,-0.003461838,0,
00:05.4,-0.00296402,0.002071381,-0.00346756,0,
00:05.4,-0.002958298,0.002071381,-0.003473282,0,
00:05.4,-0.002952576,0.002065659,-0.003473282,0,
00:05.4,-0.002958298,0.002077103,-0.003473282,0,
00:05.4,-0.002946854,0.002077103,-0.00346756,0,
00:05.4,-0.002946854,0.002065659,-0.00346756,0,
00:05.4,-0.00296402,0.002065659,-0.003473282,0,
00:05.4,-0.002969742,0.002065659,-0.00346756,0,
00:05.4,-0.00296402,0.002071381,-0.00346756,0,
00:05.4,-0.002958298,0.002065659,-0.003473282,0,
00:05.4,-0.002958298,0.002071381,-0.003479004,0,
00:05.4,-0.002952576,0.002077103,-0.003473282,0,
00:05.4,-0.002941132,0.002077103,-0.003473282,0,
00:05.4,-0.00293541,0.002071381,-0.003484726,0,
00:05.4,-0.00293541,0.002071381,-0.003473282,0,
00:05.4,-0.002941132,0.002065659,-0.003479004,0,
00:05.4,-0.002952576,0.002065659,-0.003473282,0,
00:05.5,-0.002946854,0.002065659,-0.00346756,0,
00:05.5,-0.002941132,0.002065659,-0.003479004,0,
00:05.5,-0.002952576,0.002059937,-0.003473282,0,
00:05.5,-0.002969742,0.002059937,-0.003473282,0,
00:05.5,-0.00296402,0.002059937,-0.003479004,0,
00:05.5,-0.002958298,0.002059937,-0.003484726,0,
00:05.5,-0.002946854,0.002059937,-0.003479004,0,
00:05.5,-0.002946854,0.002065659,-0.003479004,0,
00:05.5,-0.002952576,0.002065659,-0.003479004,0,
00:05.5,-0.002952576,0.002065659,-0.003479004,0,
00:05.5,-0.002941132,0.002065659,-0.003479004,0,
00:05.5,-0.002952576,0.002054214,-0.003484726,0,
00:05.5,-0.00296402,0.002071381,-0.003484726,0,
00:05.5,-0.002923965,0.002071381,-0.003490448,0,
00:05.5,-0.00293541,0.002065659,-0.003479004,0,
00:05.5,-0.002946854,0.002065659,-0.003473282,0,
00:05.5,-0.00293541,0.002059937,-0.003473282,0,
00:05.5,-0.002946854,0.002054214,-0.003479004,0,
00:05.5,-0.002952576,0.002059937,-0.003479004,0,
00:05.5,-0.002946854,0.002065659,-0.003479004,0,
00:05.5,-0.002941132,0.002065659,-0.00349617,0,
00:05.5,-0.00293541,0.002065659,-0.003490448,0,
00:05.5,-0.00293541,0.002065659,-0.003479004,0,
00:05.5,-0.002946854,0.002059937,-0.003479004,0,
00:05.5,-0.002952576,0.002065659,-0.003479004,0,
00:05.6,-0.002941132,0.002065659,-0.003484726,0,
00:05.6,-0.002941132,0.002059937,-0.00349617,0,
00:05.6,-0.002946854,0.002054214,-0.003490448,0,
00:05.6,-0.002958298,0.002054214,-0.003490448,0,
00:05.6,-0.002952576,0.002054214,-0.003490448,0,
00:05.6,-0.002946854,0.002059937,-0.003484726,0,
00:05.6,-0.002941132,0.002059937,-0.003479004,0,
00:05.6,-0.00293541,0.002059937,-0.003484726,0,
00:05.6,-0.002946854,0.002059937,-0.003484726,0,
00:05.6,-0.002952576,0.002059937,-0.003479004,0,
00:05.6,-0.002946854,0.002059937,-0.003484726,0,
00:05.6,-0.002946854,0.002054214,-0.003490448,0,
00:05.6,-0.002952576,0.002054214,-0.003490448,0,
00:05.6,-0.002958298,0.002059937,-0.003484726,0,
00:05.6,-0.002952576,0.002059937,-0.00349617,0,
00:05.6,-0.002941132,0.002059937,-0.003501892,0,
00:05.6,-0.002941132,0.002054214,-0.003490448,0,
00:05.6,-0.002952576,0.002054214,-0.003490448,0,
00:05.6,-0.002952576,0.002054214,-0.003484726,0,
00:05.6,-0.002952576,0.002054214,-0.003484726,0,
00:05.6,-0.002952576,0.002054214,-0.003484726,0,
00:05.6,-0.002941132,0.00204277,-0.003490448,0,
00:05.6,-0.00296402,0.002048492,-0.00349617,0,
00:05.6,-0.002981186,0.002059937,-0.00349617,0,
00:05.6,-0.002958298,0.002059937,-0.00349617,0,
00:05.7,-0.002941132,0.002048492,-0.003501892,0,
00:05.7,-0.002946854,0.002054214,-0.00349617,0,
00:05.7,-0.002958298,0.002059937,-0.00349617,0,
00:05.7,-0.002941132,0.002065659,-0.003490448,0,
00:05.7,-0.002929688,0.002059937,-0.00349617,0,
00:05.7,-0.002929688,0.002059937,-0.003490448,0,
00:05.7,-0.002929688,0.002054214,-0.00349617,0,
00:05.7,-0.00293541,0.002054214,-0.003490448,0,
00:05.7,-0.00293541,0.002054214,-0.003490448,0,
00:05.7,-0.00293541,0.002054214,-0.003501892,0,
00:05.7,-0.00293541,0.002048492,-0.00349617,0,
00:05.7,-0.002941132,0.002048492,-0.00349617,0,
00:05.7,-0.002941132,0.002054214,-0.003501892,0,
00:05.7,-0.002941132,0.002048492,-0.00349617,0,
00:05.7,-0.002946854,0.002054214,-0.00349617,0,
00:05.7,-0.00293541,0.002054214,-0.003507614,0,
00:05.7,-0.002929688,0.002048492,-0.003507614,0,
00:05.7,-0.00293541,0.002048492,-0.003507614,0,
00:05.7,-0.002946854,0.002054214,-0.003507614,0,
00:05.7,-0.002946854,0.00204277,-0.003501892,0,
00:05.7,-0.002952576,0.002048492,-0.003501892,0,
00:05.7,-0.002946854,0.002048492,-0.003501892,0,
00:05.7,-0.002946854,0.002048492,-0.00349617,0,
00:05.7,-0.002946854,0.002054214,-0.00349617,0,
00:05.7,-0.002946854,0.002048492,-0.003501892,0,
00:05.8,-0.002941132,0.002048492,-0.00349617,0,
00:05.8,-0.00293541,0.002054214,-0.00349617,0,
00:05.8,-0.002929688,0.002054214,-0.003501892,0,
00:05.8,-0.002941132,0.002054214,-0.003513336,0,
00:05.8,-0.002946854,0.002048492,-0.003513336,0,
00:05.8,-0.002946854,0.00204277,-0.003501892,0,
00:05.8,-0.002946854,0.002048492,-0.003501892,0,
00:05.8,-0.00293541,0.00204277,-0.003501892,0,
00:05.8,-0.00293541,0.00204277,-0.003507614,0,
00:05.8,-0.002941132,0.002048492,-0.003507614,0,
00:05.8,-0.002923965,0.002048492,-0.003513336,0,
00:05.8,-0.002923965,0.002048492,-0.003513336,0,
00:05.8,-0.00293541,0.002048492,-0.003519058,0,
00:05.8,-0.00293541,0.002048492,-0.00352478,0,
00:05.8,-0.002929688,0.002048492,-0.00352478,0,
00:05.8,-0.00293541,0.00204277,-0.003513336,0,
00:05.8,-0.002941132,0.002048492,-0.003501892,0,
00:05.8,-0.002941132,0.002037048,-0.003507614,0,
00:05.8,-0.002952576,0.00204277,-0.00349617,0,
00:05.8,-0.002946854,0.00204277,-0.00349617,0,
00:05.8,-0.002946854,0.00204277,-0.00349617,0,
00:05.8,-0.002952576,0.002037048,-0.003501892,0,
00:05.8,-0.00296402,0.00204277,-0.003507614,0,
00:05.8,-0.002941132,0.002048492,-0.003513336,0,
00:05.8,-0.002929688,0.00204277,-0.003519058,0,
00:05.9,-0.00293541,0.00204277,-0.003513336,0,
00:05.9,-0.00293541,0.00204277,-0.003513336,0,
00:05.9,-0.002946854,0.00204277,-0.003507614,0,
00:05.9,-0.002946854,0.00204277,-0.003513336,0,
00:05.9,-0.002941132,0.002048492,-0.003513336,0,
00:05.9,-0.002923965,0.002048492,-0.003513336,0,
00:05.9,-0.002918243,0.002048492,-0.003513336,0,
00:05.9,-0.002923965,0.00204277,-0.003519058,0,
00:05.9,-0.002929688,0.002048492,-0.003513336,0,
00:05.9,-0.002929688,0.00204277,-0.003513336,0,
00:05.9,-0.00293541,0.002037048,-0.00352478,0,
00:05.9,-0.002946854,0.002037048,-0.003530502,0,
00:05.9,-0.002946854,0.002048492,-0.003519058,0,
00:05.9,-0.00293541,0.00204277,-0.003507614,0,
00:05.9,-0.002946854,0.00204277,-0.003513336,0,
00:05.9,-0.002946854,0.002048492,-0.003513336,0,
00:05.9,-0.002929688,0.00204277,-0.003501892,0,
00:05.9,-0.002918243,0.00204277,-0.003513336,0,
00:05.9,-0.002923965,0.00204277,-0.003513336,0,
00:05.9,-0.002929688,0.00204277,-0.003513336,0,
00:05.9,-0.002941132,0.002037048,-0.003519058,0,
00:05.9,-0.002946854,0.00204277,-0.003519058,0,
00:05.9,-0.002929688,0.002048492,-0.00352478,0,
00:05.9,-0.002918243,0.00204277,-0.003530502,0,
00:05.9,-0.002918243,0.002037048,-0.003519058,0,
00:06.0,-0.00293541,0.002037048,-0.003513336,0,
00:06.0,-0.002941132,0.00204277,-0.003519058,0,
00:06.0,-0.00293541,0.002037048,-0.003519058,0,
00:06.0,-0.002929688,0.002048492,-0.003507614,0,
00:06.0,-0.002923965,0.00204277,-0.003513336,0,
00:06.0,-0.002923965,0.00204277,-0.003519058,0,
00:06.0,-0.002929688,0.00204277,-0.00352478,0,
00:06.0,-0.002929688,0.002037048,-0.00352478,0,
00:06.0,-0.00293541,0.002037048,-0.003519058,0,
00:06.0,-0.00293541,0.002037048,-0.003519058,0,
00:06.0,-0.00293541,0.002037048,-0.00352478,0,
00:06.0,-0.002929688,0.002037048,-0.00352478,0,
00:00:06,-0.002929688,0.002037048,-0.00352478,0,
00:06.0,-0.00293541,0.00204277,-0.00352478,0,
00:06.0,-0.002929688,0.00204277,-0.003530502,0,
00:06.0,-0.002923965,0.002031326,-0.003536224,0,
00:06.0,-0.00293541,0.002031326,-0.003530502,0,
00:06.0,-0.002946854,0.00204277,-0.003530502,0,
00:06.0,-0.00293541,0.00204277,-0.00352478,0,
00:06.0,-0.002929688,0.002031326,-0.003519058,0,
00:06.0,-0.00293541,0.002025604,-0.003513336,0,
00:06.0,-0.00293541,0.002037048,-0.003519058,0,
00:06.0,-0.002912521,0.002037048,-0.00352478,0,
00:06.0,-0.002923965,0.002037048,-0.00352478,0,
00:06.0,-0.002923965,0.00204277,-0.00352478,0,
00:06.1,-0.002918243,0.00204277,-0.003530502,0,
00:06.1,-0.002912521,0.002037048,-0.003536224,0,
00:06.1,-0.002912521,0.002037048,-0.003536224,0,
00:06.1,-0.002923965,0.00204277,-0.003530502,0,
00:06.1,-0.002929688,0.002037048,-0.003530502,0,
00:06.1,-0.002929688,0.002031326,-0.003530502,0,
00:06.1,-0.002941132,0.002031326,-0.00352478,0,
00:06.1,-0.002929688,0.002031326,-0.003530502,0,
00:06.1,-0.002929688,0.002031326,-0.003536224,0,
00:06.1,-0.002918243,0.00204277,-0.003536224,0,
00:06.1,-0.002901077,0.002037048,-0.003530502,0,
00:06.1,-0.002906799,0.002037048,-0.003530502,0,
00:06.1,-0.002912521,0.002031326,-0.003530502,0,
00:06.1,-0.002923965,0.002031326,-0.003530502,0,
00:06.1,-0.002929688,0.002031326,-0.003530502,0,
00:06.1,-0.00293541,0.002025604,-0.00352478,0,
00:06.1,-0.00293541,0.002025604,-0.003530502,0,
00:06.1,-0.002923965,0.002031326,-0.003530502,0,
00:06.1,-0.002923965,0.002031326,-0.00352478,0,
00:06.1,-0.002923965,0.002025604,-0.00352478,0,
00:06.1,-0.00293541,0.002025604,-0.003530502,0,
00:06.1,-0.00293541,0.002025604,-0.00352478,0,
00:06.1,-0.002929688,0.002037048,-0.003530502,0,
00:06.1,-0.002923965,0.002037048,-0.00352478,0,
00:06.1,-0.002918243,0.002037048,-0.00352478,0,
00:06.2,-0.002912521,0.002031326,-0.003536224,0,
00:06.2,-0.002918243,0.002025604,-0.003541946,0,
00:06.2,-0.00293541,0.002031326,-0.003530502,0,
00:06.2,-0.002941132,0.002025604,-0.003536224,0,
00:06.2,-0.002941132,0.002019882,-0.003530502,0,
00:06.2,-0.002941132,0.002019882,-0.003530502,0,
00:06.2,-0.002923965,0.002031326,-0.003541946,0,
00:06.2,-0.002906799,0.002037048,-0.003536224,0,
00:06.2,-0.002901077,0.002031326,-0.003536224,0,
00:06.2,-0.002912521,0.002031326,-0.003541946,0,
00:06.2,-0.002923965,0.002031326,-0.003541946,0,
00:06.2,-0.002929688,0.002019882,-0.003547668,0,
00:06.2,-0.002941132,0.002019882,-0.003536224,0,
00:06.2,-0.002941132,0.002025604,-0.003536224,0,
00:06.2,-0.002918243,0.002031326,-0.003547668,0,
00:06.2,-0.002923965,0.002031326,-0.003541946,0,
00:06.2,-0.002918243,0.002025604,-0.003541946,0,
00:06.2,-0.002923965,0.002019882,-0.003536224,0,
00:06.2,-0.002929688,0.002031326,-0.003536224,0,
00:06.2,-0.002912521,0.00204277,-0.003541946,0,
00:06.2,-0.002895355,0.002037048,-0.003541946,0,
00:06.2,-0.002906799,0.002025604,-0.003541946,0,
00:06.2,-0.002923965,0.002025604,-0.00352478,0,
00:06.2,-0.002923965,0.002025604,-0.003536224,0,
00:06.2,-0.002923965,0.002025604,-0.003541946,0,
00:06.3,-0.002923965,0.002019882,-0.003541946,0,
00:06.3,-0.002923965,0.002019882,-0.003541946,0,
00:06.3,-0.002923965,0.002019882,-0.003536224,0,
00:06.3,-0.00293541,0.002025604,-0.003547668,0,
00:06.3,-0.002918243,0.002025604,-0.003553391,0,
00:06.3,-0.002906799,0.002025604,-0.003547668,0,
00:06.3,-0.002906799,0.002019882,-0.003536224,0,
00:06.3,-0.002929688,0.002019882,-0.003541946,0,
00:06.3,-0.002929688,0.002025604,-0.003553391,0,
00:06.3,-0.00293541,0.00201416,-0.003553391,0,
00:06.3,-0.002941132,0.002019882,-0.003547668,0,
00:06.3,-0.002923965,0.002019882,-0.003547668,0,
00:06.3,-0.002923965,0.002019882,-0.003536224,0,
00:06.3,-0.002929688,0.002025604,-0.003541946,0,
00:06.3,-0.002918243,0.002019882,-0.003530502,0,
00:06.3,-0.002923965,0.00201416,-0.003536224,0,
00:06.3,-0.002929688,0.00201416,-0.003541946,0,
00:06.3,-0.002929688,0.002025604,-0.003541946,0,
00:06.3,-0.002912521,0.002025604,-0.003541946,0,
00:06.3,-0.002901077,0.002025604,-0.003541946,0,
00:06.3,-0.002912521,0.00201416,-0.003547668,0,
00:06.3,-0.00293541,0.00201416,-0.003553391,0,
00:06.3,-0.002923965,0.002031326,-0.003553391,0,
00:06.3,-0.002895355,0.002031326,-0.003553391,0,
00:06.3,-0.002901077,0.002025604,-0.003553391,0,
00:06.4,-0.002918243,0.002019882,-0.003541946,0,
00:06.4,-0.002923965,0.00201416,-0.003541946,0,
00:06.4,-0.002923965,0.00201416,-0.003541946,0,
00:06.4,-0.002929688,0.002019882,-0.003541946,0,
00:06.4,-0.002923965,0.002019882,-0.003547668,0,
00:06.4,-0.002918243,0.002019882,-0.003553391,0,
00:06.4,-0.002918243,0.002019882,-0.003559113,0,
00:06.4,-0.002923965,0.002025604,-0.003559113,0,
00:06.4,-0.002923965,0.002019882,-0.003564835,0,
00:06.4,-0.002923965,0.00201416,-0.003536224,0,
00:06.4,-0.002923965,0.00201416,-0.003536224,0,
00:06.4,-0.002918243,0.00201416,-0.003541946,0,
00:06.4,-0.002929688,0.00201416,-0.003541946,0,
00:06.4,-0.002929688,0.002008438,-0.003547668,0,
00:06.4,-0.002929688,0.002002716,-0.003547668,0,
00:06.4,-0.00293541,0.002002716,-0.003553391,0,
00:06.4,-0.002941132,0.00201416,-0.003553391,0,
00:06.4,-0.002923965,0.002025604,-0.003553391,0,
00:06.4,-0.002906799,0.002025604,-0.003564835,0,
00:06.4,-0.002895355,0.002019882,-0.003576279,0,
00:06.4,-0.002895355,0.00201416,-0.003582001,0,
00:06.4,-0.002906799,0.002019882,-0.003553391,0,
00:06.4,-0.002929688,0.002008438,-0.003547668,0,
00:06.4,-0.002946854,0.002008438,-0.003547668,0,
00:06.4,-0.002923965,0.00201416,-0.003547668,0,
00:06.5,-0.002912521,0.00201416,-0.003547668,0,
00:06.5,-0.002912521,0.00201416,-0.003536224,0,
00:06.5,-0.002918243,0.00201416,-0.003547668,0,
00:06.5,-0.002918243,0.00201416,-0.003553391,0,
00:06.5,-0.002912521,0.00201416,-0.003553391,0,
00:06.5,-0.002923965,0.00201416,-0.003559113,0,
00:06.5,-0.002918243,0.002019882,-0.003564835,0,
00:06.5,-0.002906799,0.002019882,-0.003564835,0,
00:06.5,-0.002918243,0.00201416,-0.003570557,0,
00:06.5,-0.002918243,0.00201416,-0.003553391,0,
00:06.5,-0.002912521,0.00201416,-0.003547668,0,
00:06.5,-0.002918243,0.002008438,-0.003553391,0,
00:06.5,-0.002941132,0.002008438,-0.003553391,0,
00:06.5,-0.002941132,0.002008438,-0.003564835,0,
00:06.5,-0.002923965,0.002008438,-0.003564835,0,
00:06.5,-0.002923965,0.002008438,-0.003570557,0,
00:06.5,-0.002923965,0.002019882,-0.003564835,0,
00:06.5,-0.002901077,0.00201416,-0.003564835,0,
00:06.5,-0.002912521,0.00201416,-0.003559113,0,
00:06.5,-0.002918243,0.002008438,-0.003564835,0,
00:06.5,-0.002912521,0.002002716,-0.003559113,0,
00:06.5,-0.002929688,0.002008438,-0.003559113,0,
00:06.5,-0.002929688,0.00201416,-0.003564835,0,
00:06.5,-0.002918243,0.00201416,-0.003564835,0,
00:06.5,-0.002912521,0.00201416,-0.003570557,0,
00:06.6,-0.002912521,0.002019882,-0.003570557,0,
00:06.6,-0.002906799,0.002008438,-0.003576279,0,
00:06.6,-0.002923965,0.002002716,-0.003564835,0,
00:06.6,-0.002929688,0.002002716,-0.003559113,0,
00:06.6,-0.002918243,0.002002716,-0.003564835,0,
00:06.6,-0.002929688,0.002002716,-0.003559113,0,
00:06.6,-0.00293541,0.001996994,-0.003564835,0,
00:06.6,-0.002929688,0.002002716,-0.003564835,0,
00:06.6,-0.002912521,0.00201416,-0.003564835,0,
00:06.6,-0.002883911,0.00201416,-0.003582001,0,
00:06.6,-0.002883911,0.002008438,-0.003564835,0,
00:06.6,-0.002895355,0.002008438,-0.003570557,0,
00:06.6,-0.002906799,0.002008438,-0.003582001,0,
00:06.6,-0.002918243,0.002002716,-0.003570557,0,
00:06.6,-0.002918243,0.001996994,-0.003564835,0,
00:06.6,-0.002918243,0.002002716,-0.003559113,0,
00:06.6,-0.002912521,0.002008438,-0.003559113,0,
00:06.6,-0.002906799,0.002008438,-0.003564835,0,
00:06.6,-0.002923965,0.002008438,-0.003564835,0,
00:06.6,-0.002923965,0.001996994,-0.003564835,0,
00:06.6,-0.002906799,0.002002716,-0.003570557,0,
00:06.6,-0.002901077,0.002008438,-0.003570557,0,
00:06.6,-0.002901077,0.002008438,-0.003564835,0,
00:06.6,-0.002906799,0.002002716,-0.003564835,0,
00:06.6,-0.002918243,0.002002716,-0.003570557,0,
00:06.7,-0.002918243,0.002002716,-0.003570557,0,
00:06.7,-0.002912521,0.002008438,-0.003582001,0,
00:06.7,-0.002901077,0.00201416,-0.003582001,0,
00:06.7,-0.002895355,0.002002716,-0.003582001,0,
00:06.7,-0.002906799,0.002002716,-0.003564835,0,
00:06.7,-0.002912521,0.002002716,-0.003559113,0,
00:06.7,-0.002901077,0.002002716,-0.003559113,0,
00:06.7,-0.002912521,0.001996994,-0.003564835,0,
00:06.7,-0.002923965,0.002002716,-0.003564835,0,
00:06.7,-0.002918243,0.001996994,-0.003576279,0,
00:06.7,-0.002918243,0.001996994,-0.003564835,0,
00:06.7,-0.002918243,0.002002716,-0.003576279,0,
00:06.7,-0.002906799,0.002008438,-0.003576279,0,
00:06.7,-0.002895355,0.002008438,-0.003570557,0,
00:06.7,-0.002895355,0.002002716,-0.003582001,0,
00:06.7,-0.002906799,0.002008438,-0.003576279,0,
00:06.7,-0.002912521,0.002002716,-0.003570557,0,
00:06.7,-0.002918243,0.001996994,-0.003570557,0,
00:06.7,-0.002912521,0.001996994,-0.003570557,0,
00:06.7,-0.002918243,0.001996994,-0.003576279,0,
00:06.7,-0.002912521,0.001996994,-0.003576279,0,
00:06.7,-0.002918243,0.002002716,-0.003576279,0,
00:06.7,-0.002918243,0.002008438,-0.003582001,0,
00:06.7,-0.002912521,0.002008438,-0.003599167,0,
00:06.7,-0.002901077,0.002002716,-0.003582001,0,
00:06.8,-0.002889633,0.002008438,-0.003576279,0,
00:06.8,-0.002883911,0.002008438,-0.003570557,0,
00:06.8,-0.002895355,0.001996994,-0.003570557,0,
00:06.8,-0.002923965,0.001991272,-0.003564835,0,
00:06.8,-0.002929688,0.001996994,-0.003570557,0,
00:06.8,-0.002918243,0.002002716,-0.003576279,0,
00:06.8,-0.002895355,0.002008438,-0.003582001,0,
00:06.8,-0.002889633,0.002008438,-0.003582001,0,
00:06.8,-0.002889633,0.002008438,-0.003582001,0,
00:06.8,-0.002878189,0.002008438,-0.003576279,0,
00:06.8,-0.002895355,0.001996994,-0.003564835,0,
00:06.8,-0.002912521,0.002002716,-0.003570557,0,
00:06.8,-0.002906799,0.001996994,-0.003576279,0,
00:06.8,-0.002912521,0.001991272,-0.003576279,0,
00:06.8,-0.002912521,0.001996994,-0.003582001,0,
00:06.8,-0.002895355,0.002002716,-0.003576279,0,
00:06.8,-0.002895355,0.002002716,-0.003576279,0,
00:06.8,-0.002901077,0.002008438,-0.003576279,0,
00:06.8,-0.002889633,0.002008438,-0.003576279,0,
00:06.8,-0.002895355,0.001996994,-0.003564835,0,
00:06.8,-0.002912521,0.001996994,-0.003570557,0,
00:06.8,-0.002912521,0.002008438,-0.003570557,0,
00:06.8,-0.002901077,0.001996994,-0.003576279,0,
00:06.8,-0.002918243,0.001991272,-0.003570557,0,
00:06.8,-0.002918243,0.001991272,-0.003564835,0,
00:06.9,-0.002918243,0.001996994,-0.003570557,0,
00:06.9,-0.002912521,0.002002716,-0.003576279,0,
00:06.9,-0.002901077,0.002002716,-0.003576279,0,
00:06.9,-0.002901077,0.002002716,-0.003576279,0,
00:06.9,-0.002901077,0.002002716,-0.003576279,0,
00:06.9,-0.002895355,0.002002716,-0.003593445,0,
00:06.9,-0.002895355,0.001996994,-0.003582001,0,
00:06.9,-0.002912521,0.001991272,-0.003564835,0,
00:06.9,-0.002918243,0.002002716,-0.003582001,0,
00:06.9,-0.002901077,0.002002716,-0.003582001,0,
00:06.9,-0.002906799,0.001996994,-0.003570557,0,
00:06.9,-0.002901077,0.001996994,-0.003576279,0,
00:06.9,-0.002901077,0.002002716,-0.003576279,0,
00:06.9,-0.002895355,0.002002716,-0.003570557,0,
00:06.9,-0.002901077,0.001991272,-0.003576279,0,
00:06.9,-0.002906799,0.001996994,-0.003582001,0,
00:06.9,-0.002912521,0.002002716,-0.003582001,0,
00:06.9,-0.002912521,0.002002716,-0.003576279,0,
00:06.9,-0.002906799,0.001996994,-0.003576279,0,
00:06.9,-0.002918243,0.001991272,-0.003576279,0,
00:06.9,-0.002912521,0.001996994,-0.003582001,0,
00:06.9,-0.002906799,0.001996994,-0.003576279,0,
00:06.9,-0.002912521,0.002002716,-0.003576279,0,
00:06.9,-0.002906799,0.002002716,-0.003576279,0,
00:06.9,-0.002906799,0.002002716,-0.003576279,0,
00:07.0,-0.002901077,0.001991272,-0.003582001,0,
00:07.0,-0.002901077,0.001996994,-0.003576279,0,
00:07.0,-0.002906799,0.002002716,-0.003582001,0,
00:07.0,-0.002912521,0.001996994,-0.003576279,0,
00:07.0,-0.002912521,0.001991272,-0.003576279,0,
00:07.0,-0.002923965,0.00198555,-0.003582001,0,
00:07.0,-0.002929688,0.001996994,-0.003582001,0,
00:07.0,-0.002912521,0.002002716,-0.003582001,0,
00:07.0,-0.002912521,0.001996994,-0.003582001,0,
00:07.0,-0.002923965,0.00198555,-0.003582001,0,
00:07.0,-0.002941132,0.00198555,-0.003582001,0,
00:07.0,-0.002923965,0.002002716,-0.003582001,0,
00:00:07,-0.002883911,0.002008438,-0.003576279,0,
00:07.0,-0.002878189,0.001996994,-0.003576279,0,
00:07.0,-0.002901077,0.001991272,-0.003582001,0,
00:07.0,-0.002923965,0.00198555,-0.003582001,0,
00:07.0,-0.002929688,0.002002716,-0.003582001,0,
00:07.0,-0.002889633,0.002008438,-0.003582001,0,
00:07.0,-0.002861023,0.002002716,-0.003582001,0,
00:07.0,-0.002883911,0.001996994,-0.003582001,0,
00:07.0,-0.002889633,0.001991272,-0.003587723,0,
00:07.0,-0.002912521,0.001996994,-0.003582001,0,
00:07.0,-0.002912521,0.001996994,-0.003587723,0,
00:07.0,-0.002883911,0.002002716,-0.003593445,0,
00:07.0,-0.002861023,0.001996994,-0.003587723,0,
00:07.1,-0.002872467,0.00198555,-0.003576279,0,
00:07.1,-0.002901077,0.00198555,-0.003576279,0,
00:07.1,-0.002918243,0.00198555,-0.003582001,0,
00:07.1,-0.002912521,0.001991272,-0.003587723,0,
00:07.1,-0.002901077,0.001991272,-0.003582001,0,
00:07.1,-0.002895355,0.001991272,-0.003576279,0,
00:07.1,-0.002901077,0.00198555,-0.003582001,0,
00:07.1,-0.002923965,0.001991272,-0.003587723,0,
00:07.1,-0.002918243,0.00198555,-0.003582001,0,
00:07.1,-0.002901077,0.001991272,-0.003582001,0,
00:07.1,-0.002889633,0.00198555,-0.003576279,0,
00:07.1,-0.002901077,0.00198555,-0.003576279,0,
00:07.1,-0.002912521,0.001991272,-0.003582001,0,
00:07.1,-0.002895355,0.001996994,-0.003582001,0,
00:07.1,-0.002883911,0.001996994,-0.003576279,0,
00:07.1,-0.002883911,0.001991272,-0.003582001,0,
00:07.1,-0.002895355,0.00198555,-0.003587723,0,
00:07.1,-0.002912521,0.001991272,-0.003582001,0,
00:07.1,-0.002906799,0.00198555,-0.003582001,0,
00:07.1,-0.002889633,0.001979828,-0.003582001,0,
00:07.1,-0.002901077,0.001979828,-0.003576279,0,
00:07.1,-0.002906799,0.001979828,-0.003576279,0,
00:07.1,-0.002912521,0.00198555,-0.003582001,0,
00:07.1,-0.002895355,0.001991272,-0.003582001,0,
00:07.1,-0.002883911,0.001991272,-0.003582001,0,
00:07.2,-0.002895355,0.001991272,-0.003593445,0,
00:07.2,-0.002906799,0.001991272,-0.003587723,0,
00:07.2,-0.002906799,0.00198555,-0.003582001,0,
00:07.2,-0.002901077,0.00198555,-0.003587723,0,
00:07.2,-0.002895355,0.001979828,-0.003587723,0,
00:07.2,-0.002901077,0.00198555,-0.003576279,0,
00:07.2,-0.002906799,0.001991272,-0.003582001,0,
00:07.2,-0.002906799,0.001991272,-0.003576279,0,
00:07.2,-0.002895355,0.00198555,-0.003576279,0,
00:07.2,-0.002901077,0.001991272,-0.003582001,0,
00:07.2,-0.002895355,0.00198555,-0.003587723,0,
00:07.2,-0.002901077,0.001979828,-0.003587723,0,
00:07.2,-0.002912521,0.00198555,-0.003582001,0,
00:07.2,-0.002895355,0.001991272,-0.003576279,0,
00:07.2,-0.002878189,0.001991272,-0.003582001,0,
00:07.2,-0.002883911,0.00198555,-0.003587723,0,
00:07.2,-0.002901077,0.00198555,-0.003582001,0,
00:07.2,-0.002912521,0.001979828,-0.003587723,0,
00:07.2,-0.002912521,0.001979828,-0.003587723,0,
00:07.2,-0.002906799,0.001979828,-0.003593445,0,
00:07.2,-0.002906799,0.001979828,-0.003582001,0,
00:07.2,-0.002912521,0.00198555,-0.003582001,0,
00:07.2,-0.002901077,0.00198555,-0.003582001,0,
00:07.2,-0.002901077,0.001974106,-0.003587723,0,
00:07.2,-0.002912521,0.001979828,-0.003587723,0,
00:07.3,-0.002901077,0.00198555,-0.003582001,0,
00:07.3,-0.002901077,0.00198555,-0.003587723,0,
00:07.3,-0.002901077,0.00198555,-0.003593445,0,
00:07.3,-0.002895355,0.00198555,-0.003587723,0,
00:07.3,-0.002895355,0.00198555,-0.003587723,0,
00:07.3,-0.002912521,0.00198555,-0.003587723,0,
00:07.3,-0.002912521,0.00198555,-0.003587723,0,
00:07.3,-0.002906799,0.001979828,-0.003587723,0,
00:07.3,-0.002929688,0.001974106,-0.003587723,0,
00:07.3,-0.002929688,0.001979828,-0.003587723,0,
00:07.3,-0.002889633,0.00198555,-0.003593445,0,
00:07.3,-0.002878189,0.00198555,-0.003582001,0,
00:07.3,-0.002895355,0.001991272,-0.003582001,0,
00:07.3,-0.002889633,0.001991272,-0.003587723,0,
00:07.3,-0.002889633,0.00198555,-0.003587723,0,
00:07.3,-0.002889633,0.001991272,-0.003593445,0,
00:07.3,-0.002889633,0.001991272,-0.003604889,0,
00:07.3,-0.002872467,0.001991272,-0.003593445,0,
00:07.3,-0.002872467,0.00198555,-0.003587723,0,
00:07.3,-0.002895355,0.001979828,-0.003593445,0,
00:07.3,-0.002906799,0.001979828,-0.003587723,0,
00:07.3,-0.002901077,0.001979828,-0.003593445,0,
00:07.3,-0.002906799,0.001979828,-0.003593445,0,
00:07.3,-0.002918243,0.001979828,-0.003587723,0,
00:07.3,-0.002923965,0.001979828,-0.003593445,0,
00:07.4,-0.002912521,0.001991272,-0.003599167,0,
00:07.4,-0.002883911,0.001991272,-0.003593445,0,
00:07.4,-0.002889633,0.001979828,-0.003593445,0,
00:07.4,-0.002912521,0.001979828,-0.003593445,0,
00:07.4,-0.002906799,0.001991272,-0.003604889,0,
00:07.4,-0.002878189,0.00198555,-0.003599167,0,
00:07.4,-0.002889633,0.001979828,-0.003587723,0,
00:07.4,-0.002906799,0.00198555,-0.003587723,0,
00:07.4,-0.002901077,0.001979828,-0.003593445,0,
00:07.4,-0.002906799,0.00198555,-0.003587723,0,
00:07.4,-0.002878189,0.001991272,-0.003587723,0,
00:07.4,-0.002872467,0.00198555,-0.003599167,0,
00:07.4,-0.002889633,0.00198555,-0.003610611,0,
00:07.4,-0.002901077,0.00198555,-0.003604889,0,
00:07.4,-0.002895355,0.001991272,-0.003587723,0,
00:07.4,-0.002883911,0.00198555,-0.003582001,0,
00:07.4,-0.002889633,0.00198555,-0.003593445,0,
00:07.4,-0.002901077,0.001979828,-0.003593445,0,
00:07.4,-0.002906799,0.001979828,-0.003587723,0,
00:07.4,-0.002906799,0.001974106,-0.003593445,0,
00:07.4,-0.002918243,0.001974106,-0.003587723,0,
00:07.4,-0.002912521,0.001979828,-0.003593445,0,
00:07.4,-0.002906799,0.00198555,-0.003593445,0,
00:07.4,-0.002895355,0.00198555,-0.003593445,0,
00:07.4,-0.002866745,0.001979828,-0.003593445,0,
00:07.5,-0.002889633,0.001974106,-0.003599167,0,
00:07.5,-0.002929688,0.001979828,-0.003604889,0,
00:07.5,-0.002912521,0.00198555,-0.003593445,0,
00:07.5,-0.002889633,0.00198555,-0.003587723,0,
00:07.5,-0.002878189,0.001979828,-0.003599167,0,
00:07.5,-0.002883911,0.001979828,-0.003593445,0,
00:07.5,-0.002878189,0.00198555,-0.003582001,0,
00:07.5,-0.002883911,0.00198555,-0.003593445,0,
00:07.5,-0.002878189,0.00198555,-0.003593445,0,
00:07.5,-0.002878189,0.00198555,-0.003599167,0,
00:07.5,-0.002883911,0.001979828,-0.003599167,0,
00:07.5,-0.002906799,0.001979828,-0.003599167,0,
00:07.5,-0.002918243,0.001979828,-0.003599167,0,
00:07.5,-0.002901077,0.00198555,-0.003616333,0,
00:07.5,-0.002883911,0.001979828,-0.003604889,0,
00:07.5,-0.002901077,0.001974106,-0.003593445,0,
00:07.5,-0.002901077,0.00198555,-0.003593445,0,
00:07.5,-0.002883911,0.001979828,-0.003593445,0,
00:07.5,-0.002878189,0.00198555,-0.003587723,0,
00:07.5,-0.002883911,0.001979828,-0.003582001,0,
00:07.5,-0.002901077,0.001974106,-0.003587723,0,
00:07.5,-0.002929688,0.001968384,-0.003593445,0,
00:07.5,-0.002952576,0.001968384,-0.003599167,0,
00:07.5,-0.002923965,0.001979828,-0.003604889,0,
00:07.5,-0.002906799,0.00198555,-0.003610611,0,
00:07.6,-0.002878189,0.001991272,-0.003599167,0,
00:07.6,-0.002843857,0.001991272,-0.003599167,0,
00:07.6,-0.002872467,0.00198555,-0.003599167,0,
00:07.6,-0.002901077,0.001974106,-0.003599167,0,
00:07.6,-0.002901077,0.001979828,-0.003599167,0,
00:07.6,-0.002872467,0.001991272,-0.003604889,0,
00:07.6,-0.002855301,0.00198555,-0.003604889,0,
00:07.6,-0.002872467,0.00198555,-0.003610611,0,
00:07.6,-0.002883911,0.00198555,-0.003610611,0,
00:07.6,-0.002878189,0.00198555,-0.003604889,0,
00:07.6,-0.002883911,0.001974106,-0.003599167,0,
00:07.6,-0.002889633,0.001979828,-0.003599167,0,
00:07.6,-0.002895355,0.001979828,-0.003599167,0,
00:07.6,-0.002889633,0.001979828,-0.003599167,0,
00:07.6,-0.002906799,0.001974106,-0.003599167,0,
00:07.6,-0.002918243,0.001979828,-0.003604889,0,
00:07.6,-0.002883911,0.00198555,-0.003604889,0,
00:07.6,-0.002861023,0.001979828,-0.003599167,0,
00:07.6,-0.002872467,0.001979828,-0.003587723,0,
00:07.6,-0.002883911,0.001979828,-0.003582001,0,
00:07.6,-0.002895355,0.001974106,-0.003593445,0,
00:07.6,-0.002912521,0.001979828,-0.003593445,0,
00:07.6,-0.002912521,0.00198555,-0.003593445,0,
00:07.6,-0.002883911,0.001979828,-0.003599167,0,
00:07.6,-0.002866745,0.00198555,-0.003593445,0,
00:07.7,-0.002866745,0.001979828,-0.003604889,0,
00:07.7,-0.002883911,0.001979828,-0.003616333,0,
00:07.7,-0.002895355,0.001974106,-0.003616333,0,
00:07.7,-0.002906799,0.001962662,-0.003604889,0,
00:07.7,-0.002906799,0.001968384,-0.003604889,0,
00:07.7,-0.002889633,0.001974106,-0.003604889,0,
00:07.7,-0.002883911,0.001979828,-0.003599167,0,
00:07.7,-0.002895355,0.001974106,-0.003593445,0,
00:07.7,-0.002912521,0.001974106,-0.003593445,0,
00:07.7,-0.002889633,0.001968384,-0.003599167,0,
00:07.7,-0.002901077,0.001968384,-0.003604889,0,
00:07.7,-0.002912521,0.001968384,-0.003604889,0,
00:07.7,-0.002889633,0.00198555,-0.003604889,0,
00:07.7,-0.002866745,0.00198555,-0.003599167,0,
00:07.7,-0.002861023,0.001974106,-0.003599167,0,
00:07.7,-0.002878189,0.001974106,-0.003610611,0,
00:07.7,-0.002878189,0.001974106,-0.003610611,0,
00:07.7,-0.002901077,0.001968384,-0.003599167,0,
00:07.7,-0.002912521,0.001974106,-0.003604889,0,
00:07.7,-0.002889633,0.001979828,-0.003604889,0,
00:07.7,-0.002878189,0.001974106,-0.003593445,0,
00:07.7,-0.002883911,0.001974106,-0.003593445,0,
00:07.7,-0.002895355,0.001974106,-0.003599167,0,
00:07.7,-0.002906799,0.001974106,-0.003599167,0,
00:07.7,-0.002901077,0.001974106,-0.003610611,0,
00:07.8,-0.002895355,0.001974106,-0.003604889,0,
00:07.8,-0.002889633,0.001979828,-0.003604889,0,
00:07.8,-0.002883911,0.001974106,-0.003604889,0,
00:07.8,-0.002883911,0.001974106,-0.003604889,0,
00:07.8,-0.002895355,0.001974106,-0.003610611,0,
00:07.8,-0.002906799,0.001968384,-0.003610611,0,
00:07.8,-0.002889633,0.001968384,-0.003599167,0,
00:07.8,-0.002889633,0.001968384,-0.003610611,0,
00:07.8,-0.002906799,0.001974106,-0.003604889,0,
00:07.8,-0.002889633,0.001974106,-0.003604889,0,
00:07.8,-0.002883911,0.001974106,-0.003604889,0,
00:07.8,-0.002895355,0.001968384,-0.003604889,0,
00:07.8,-0.002889633,0.001974106,-0.003610611,0,
00:07.8,-0.002872467,0.001979828,-0.003610611,0,
00:07.8,-0.002872467,0.001968384,-0.003622055,0,
00:07.8,-0.002883911,0.001962662,-0.003599167,0,
00:07.8,-0.002906799,0.001974106,-0.003599167,0,
00:07.8,-0.002895355,0.001974106,-0.003599167,0,
00:07.8,-0.002883911,0.001974106,-0.003599167,0,
00:07.8,-0.002883911,0.001968384,-0.003610611,0,
00:07.8,-0.002883911,0.001968384,-0.003610611,0,
00:07.8,-0.002889633,0.001974106,-0.003604889,0,
00:07.8,-0.002889633,0.001968384,-0.003604889,0,
00:07.8,-0.002895355,0.001968384,-0.003610611,0,
00:07.8,-0.002889633,0.001974106,-0.003604889,0,
00:07.9,-0.002889633,0.001974106,-0.003610611,0,
00:07.9,-0.002889633,0.001974106,-0.003604889,0,
00:07.9,-0.002883911,0.001974106,-0.003604889,0,
00:07.9,-0.002889633,0.001968384,-0.003599167,0,
00:07.9,-0.002901077,0.001968384,-0.003604889,0,
00:07.9,-0.002895355,0.001968384,-0.003610611,0,
00:07.9,-0.002883911,0.001968384,-0.003610611,0,
00:07.9,-0.002889633,0.001968384,-0.003599167,0,
00:07.9,-0.002889633,0.001962662,-0.003599167,0,
00:07.9,-0.002883911,0.001968384,-0.003604889,0,
00:07.9,-0.002889633,0.001968384,-0.003622055,0,
00:07.9,-0.002901077,0.001962662,-0.003604889,0,
00:07.9,-0.002906799,0.001962662,-0.003593445,0,
00:07.9,-0.002895355,0.001968384,-0.003604889,0,
00:07.9,-0.002883911,0.001968384,-0.003616333,0,
00:07.9,-0.002883911,0.001968384,-0.003604889,0,
00:07.9,-0.002883911,0.001968384,-0.003599167,0,
00:07.9,-0.002895355,0.001962662,-0.003610611,0,
00:07.9,-0.002895355,0.001962662,-0.003616333,0,
00:07.9,-0.002895355,0.001968384,-0.003610611,0,
00:07.9,-0.002889633,0.001968384,-0.003604889,0,
00:07.9,-0.002883911,0.001968384,-0.003610611,0,
00:07.9,-0.002889633,0.001968384,-0.003599167,0,
00:07.9,-0.002895355,0.001962662,-0.003610611,0,
00:07.9,-0.002889633,0.00195694,-0.003616333,0,
00:08.0,-0.002895355,0.001968384,-0.003604889,0,
00:08.0,-0.002889633,0.001968384,-0.003604889,0,
00:08.0,-0.002895355,0.001968384,-0.003604889,0,
00:08.0,-0.002866745,0.001968384,-0.003610611,0,
00:08.0,-0.002866745,0.001968384,-0.003610611,0,
00:08.0,-0.002889633,0.001962662,-0.003616333,0,
00:08.0,-0.002889633,0.001962662,-0.003610611,0,
00:08.0,-0.002901077,0.001962662,-0.003610611,0,
00:08.0,-0.002895355,0.001962662,-0.003610611,0,
00:08.0,-0.002889633,0.001962662,-0.003616333,0,
00:08.0,-0.002895355,0.001968384,-0.003604889,0,
00:08.0,-0.002895355,0.001968384,-0.003610611,0,
00:00:08,-0.002895355,0.00195694,-0.003616333,0,
00:08.0,-0.002906799,0.00195694,-0.003610611,0,
00:08.0,-0.002906799,0.001962662,-0.003616333,0,
00:08.0,-0.002889633,0.001962662,-0.003610611,0,
00:08.0,-0.002878189,0.001968384,-0.003604889,0,
00:08.0,-0.002883911,0.001968384,-0.003610611,0,
00:08.0,-0.002883911,0.001968384,-0.003616333,0,
00:08.0,-0.002883911,0.001968384,-0.003610611,0,
00:08.0,-0.002878189,0.001962662,-0.003610611,0,
00:08.0,-0.002883911,0.001962662,-0.003610611,0,
00:08.0,-0.002889633,0.001962662,-0.003610611,0,
00:08.0,-0.002889633,0.001962662,-0.003610611,0,
00:08.0,-0.002889633,0.00195694,-0.003616333,0,
00:08.1,-0.002895355,0.001962662,-0.003622055,0,
00:08.1,-0.002895355,0.001968384,-0.003622055,0,
00:08.1,-0.002895355,0.001962662,-0.003622055,0,
00:08.1,-0.002883911,0.00195694,-0.003616333,0,
00:08.1,-0.002883911,0.00195694,-0.003610611,0,
00:08.1,-0.002889633,0.001951218,-0.003616333,0,
00:08.1,-0.002906799,0.001951218,-0.003616333,0,
00:08.1,-0.002918243,0.00195694,-0.003622055,0,
00:08.1,-0.002901077,0.00195694,-0.003616333,0,
00:08.1,-0.002878189,0.00195694,-0.003610611,0,
00:08.1,-0.002883911,0.00195694,-0.003616333,0,
00:08.1,-0.002901077,0.00195694,-0.003616333,0,
00:08.1,-0.002912521,0.00195694,-0.003616333,0,
00:08.1,-0.002895355,0.001951218,-0.003616333,0,
00:08.1,-0.002883911,0.001945496,-0.003610611,0,
00:08.1,-0.002901077,0.00195694,-0.003616333,0,
00:08.1,-0.002901077,0.001962662,-0.003622055,0,
00:08.1,-0.002889633,0.001962662,-0.003627777,0,
00:08.1,-0.002872467,0.00195694,-0.003633499,0,
00:08.1,-0.002866745,0.00195694,-0.003622055,0,
00:08.1,-0.002883911,0.001945496,-0.003616333,0,
00:08.1,-0.002906799,0.001939774,-0.003622055,0,
00:08.1,-0.002912521,0.001951218,-0.003622055,0,
00:08.1,-0.002889633,0.00195694,-0.003616333,0,
00:08.1,-0.002878189,0.001951218,-0.003622055,0,
00:08.2,-0.002872467,0.00195694,-0.003633499,0,
00:08.2,-0.002872467,0.00195694,-0.003627777,0,
00:08.2,-0.002889633,0.001951218,-0.003627777,0,
00:08.2,-0.002901077,0.001939774,-0.003622055,0,
00:08.2,-0.002906799,0.001951218,-0.003610611,0,
00:08.2,-0.002883911,0.001962662,-0.003610611,0,
00:08.2,-0.002866745,0.00195694,-0.003616333,0,
00:08.2,-0.002889633,0.001951218,-0.003622055,0,
00:08.2,-0.002901077,0.001951218,-0.003622055,0,
00:08.2,-0.002889633,0.00195694,-0.003622055,0,
00:08.2,-0.002872467,0.00195694,-0.003622055,0,
00:08.2,-0.002878189,0.001945496,-0.003627777,0,
00:08.2,-0.002901077,0.001951218,-0.003627777,0,
00:08.2,-0.002895355,0.001951218,-0.003627777,0,
00:08.2,-0.002889633,0.001945496,-0.003627777,0,
00:08.2,-0.002895355,0.001951218,-0.003622055,0,
00:08.2,-0.002878189,0.001951218,-0.003622055,0,
00:08.2,-0.002883911,0.001951218,-0.003622055,0,
00:08.2,-0.002912521,0.001945496,-0.003622055,0,
00:08.2,-0.002918243,0.001945496,-0.003622055,0,
00:08.2,-0.002878189,0.001951218,-0.003622055,0,
00:08.2,-0.002866745,0.001945496,-0.003627777,0,
00:08.2,-0.002883911,0.001951218,-0.003622055,0,
00:08.2,-0.002895355,0.001951218,-0.003627777,0,
00:08.2,-0.002883911,0.001945496,-0.003627777,0,
00:08.3,-0.002889633,0.001939774,-0.003633499,0,
00:08.3,-0.002895355,0.001945496,-0.003622055,0,
00:08.3,-0.002889633,0.001951218,-0.003622055,0,
00:08.3,-0.002883911,0.00195694,-0.003622055,0,
00:08.3,-0.002872467,0.00195694,-0.003633499,0,
00:08.3,-0.002872467,0.001945496,-0.003627777,0,
00:08.3,-0.002878189,0.001945496,-0.003622055,0,
00:08.3,-0.002878189,0.001939774,-0.003627777,0,
00:08.3,-0.002895355,0.001939774,-0.003616333,0,
00:08.3,-0.002901077,0.001939774,-0.003622055,0,
00:08.3,-0.002906799,0.001939774,-0.003622055,0,
00:08.3,-0.002906799,0.001945496,-0.003627777,0,
00:08.3,-0.002895355,0.001945496,-0.003622055,0,
00:08.3,-0.002883911,0.001945496,-0.003627777,0,
00:08.3,-0.002883911,0.001945496,-0.003633499,0,
00:08.3,-0.002883911,0.001945496,-0.003633499,0,
00:08.3,-0.002895355,0.001945496,-0.003627777,0,
00:08.3,-0.002906799,0.001939774,-0.003622055,0,
00:08.3,-0.002901077,0.001945496,-0.003622055,0,
00:08.3,-0.002889633,0.001945496,-0.003627777,0,
00:08.3,-0.002883911,0.001951218,-0.003627777,0,
00:08.3,-0.002883911,0.001951218,-0.003633499,0,
00:08.3,-0.002883911,0.001951218,-0.003644943,0,
00:08.3,-0.002883911,0.001939774,-0.003633499,0,
00:08.3,-0.002901077,0.001934052,-0.003627777,0,
00:08.4,-0.002912521,0.001939774,-0.003627777,0,
00:08.4,-0.002906799,0.001945496,-0.003622055,0,
00:08.4,-0.002895355,0.001939774,-0.003627777,0,
00:08.4,-0.002895355,0.001951218,-0.003633499,0,
00:08.4,-0.002878189,0.001951218,-0.003639221,0,
00:08.4,-0.002883911,0.001939774,-0.003633499,0,
00:08.4,-0.002901077,0.001939774,-0.003616333,0,
00:08.4,-0.002901077,0.001939774,-0.003622055,0,
00:08.4,-0.002906799,0.001939774,-0.003627777,0,
00:08.4,-0.002895355,0.001951218,-0.003639221,0,
00:08.4,-0.002883911,0.001939774,-0.003633499,0,
00:08.4,-0.002889633,0.001939774,-0.003622055,0,
00:08.4,-0.002878189,0.001945496,-0.003627777,0,
00:08.4,-0.002878189,0.001945496,-0.003627777,0,
00:08.4,-0.002878189,0.001945496,-0.003627777,0,
00:08.4,-0.002883911,0.001939774,-0.003633499,0,
00:08.4,-0.002895355,0.001939774,-0.003633499,0,
00:08.4,-0.002895355,0.001945496,-0.003627777,0,
00:08.4,-0.002889633,0.001945496,-0.003627777,0,
00:08.4,-0.002889633,0.001945496,-0.003639221,0,
00:08.4,-0.002883911,0.001945496,-0.003650665,0,
00:08.4,-0.002883911,0.001945496,-0.003644943,0,
00:08.4,-0.002895355,0.001945496,-0.003633499,0,
00:08.4,-0.002895355,0.001934052,-0.003627777,0,
00:08.4,-0.002906799,0.001934052,-0.003633499,0,
00:08.5,-0.002895355,0.001939774,-0.003622055,0,
00:08.5,-0.002889633,0.001939774,-0.003622055,0,
00:08.5,-0.002906799,0.001939774,-0.003633499,0,
00:08.5,-0.002901077,0.001939774,-0.003639221,0,
00:08.5,-0.002889633,0.001939774,-0.003650665,0,
00:08.5,-0.002895355,0.001939774,-0.003639221,0,
00:08.5,-0.002895355,0.001934052,-0.003644943,0,
00:08.5,-0.002912521,0.001939774,-0.003650665,0,
00:08.5,-0.002895355,0.001939774,-0.003639221,0,
00:08.5,-0.002883911,0.001934052,-0.003633499,0,
00:08.5,-0.002889633,0.001934052,-0.003627777,0,
00:08.5,-0.002883911,0.001939774,-0.003633499,0,
00:08.5,-0.002883911,0.001939774,-0.003639221,0,
00:08.5,-0.002883911,0.001934052,-0.003644943,0,
00:08.5,-0.002895355,0.001934052,-0.003644943,0,
00:08.5,-0.002906799,0.001939774,-0.003644943,0,
00:08.5,-0.002912521,0.001945496,-0.003639221,0,
00:08.5,-0.002895355,0.001945496,-0.003639221,0,
00:08.5,-0.002872467,0.001945496,-0.003650665,0,
00:08.5,-0.002872467,0.001939774,-0.003639221,0,
00:08.5,-0.002883911,0.001939774,-0.003644943,0,
00:08.5,-0.002889633,0.001934052,-0.003644943,0,
00:08.5,-0.002901077,0.001934052,-0.003644943,0,
00:08.5,-0.002901077,0.001939774,-0.003639221,0,
00:08.5,-0.002883911,0.001939774,-0.003644943,0,
00:08.6,-0.002895355,0.001934052,-0.003644943,0,
00:08.6,-0.002901077,0.001945496,-0.003639221,0,
00:08.6,-0.002883911,0.001945496,-0.003639221,0,
00:08.6,-0.002878189,0.001934052,-0.003650665,0,
00:08.6,-0.002889633,0.001928329,-0.003650665,0,
00:08.6,-0.002895355,0.001928329,-0.003644943,0,
00:08.6,-0.002906799,0.001928329,-0.003644943,0,
00:08.6,-0.002901077,0.001939774,-0.003639221,0,
00:08.6,-0.002878189,0.001939774,-0.003633499,0,
00:08.6,-0.002883911,0.001939774,-0.003633499,0,
00:08.6,-0.002883911,0.001939774,-0.003644943,0,
00:08.6,-0.002883911,0.001945496,-0.003644943,0,
00:08.6,-0.002883911,0.001939774,-0.003644943,0,
00:08.6,-0.002889633,0.001928329,-0.003650665,0,
00:08.6,-0.002889633,0.001934052,-0.003644943,0,
00:08.6,-0.002895355,0.001928329,-0.003650665,0,
00:08.6,-0.002906799,0.001928329,-0.003644943,0,
00:08.6,-0.002923965,0.001928329,-0.003644943,0,
00:08.6,-0.002923965,0.001928329,-0.003644943,0,
00:08.6,-0.002912521,0.001939774,-0.003650665,0,
00:08.6,-0.002872467,0.001945496,-0.003650665,0,
00:08.6,-0.002855301,0.001945496,-0.003644943,0,
00:08.6,-0.002866745,0.001945496,-0.003650665,0,
00:08.6,-0.002872467,0.001934052,-0.003656387,0,
00:08.6,-0.002883911,0.001928329,-0.003644943,0,
00:08.7,-0.002906799,0.001922607,-0.003639221,0,
00:08.7,-0.002906799,0.001934052,-0.003639221,0,
00:08.7,-0.002889633,0.001939774,-0.003639221,0,
00:08.7,-0.002883911,0.001934052,-0.003639221,0,
00:08.7,-0.002883911,0.001934052,-0.003639221,0,
00:08.7,-0.002889633,0.001939774,-0.003644943,0,
00:08.7,-0.002901077,0.001934052,-0.003644943,0,
00:08.7,-0.002901077,0.001928329,-0.003650665,0,
00:08.7,-0.002901077,0.001928329,-0.003650665,0,
00:08.7,-0.002895355,0.001934052,-0.003644943,0,
00:08.7,-0.002883911,0.001939774,-0.003644943,0,
00:08.7,-0.002878189,0.001939774,-0.003650665,0,
00:08.7,-0.002889633,0.001928329,-0.003644943,0,
00:08.7,-0.002901077,0.001928329,-0.003650665,0,
00:08.7,-0.002901077,0.001928329,-0.003650665,0,
00:08.7,-0.002901077,0.001934052,-0.003650665,0,
00:08.7,-0.002901077,0.001934052,-0.003656387,0,
00:08.7,-0.002901077,0.001934052,-0.003650665,0,
00:08.7,-0.002889633,0.001928329,-0.003644943,0,
00:08.7,-0.002889633,0.001928329,-0.003650665,0,
00:08.7,-0.002889633,0.001934052,-0.003644943,0,
00:08.7,-0.002883911,0.001928329,-0.003650665,0,
00:08.7,-0.002895355,0.001928329,-0.003644943,0,
00:08.7,-0.002895355,0.001928329,-0.003650665,0,
00:08.7,-0.002883911,0.001928329,-0.003656387,0,
00:08.8,-0.002895355,0.001922607,-0.003650665,0,
00:08.8,-0.002906799,0.001928329,-0.003656387,0,
00:08.8,-0.002883911,0.001928329,-0.003656387,0,
00:08.8,-0.002878189,0.001928329,-0.003656387,0,
00:08.8,-0.002889633,0.001922607,-0.003662109,0,
00:08.8,-0.002889633,0.001922607,-0.003662109,0,
00:08.8,-0.002901077,0.001939774,-0.003656387,0,
00:08.8,-0.002901077,0.001934052,-0.003650665,0,
00:08.8,-0.002889633,0.001922607,-0.003650665,0,
00:08.8,-0.002883911,0.001928329,-0.003650665,0,
00:08.8,-0.002883911,0.001922607,-0.003662109,0,
00:08.8,-0.002901077,0.001928329,-0.003650665,0,
00:08.8,-0.002901077,0.001928329,-0.003650665,0,
00:08.8,-0.002901077,0.001922607,-0.003667831,0,
00:08.8,-0.002901077,0.001922607,-0.003656387,0,
00:08.8,-0.002912521,0.001928329,-0.003656387,0,
00:08.8,-0.002901077,0.001934052,-0.003662109,0,
00:08.8,-0.002878189,0.001928329,-0.003656387,0,
00:08.8,-0.002883911,0.001928329,-0.003656387,0,
00:08.8,-0.002889633,0.001922607,-0.003656387,0,
00:08.8,-0.002906799,0.001928329,-0.003656387,0,
00:08.8,-0.002901077,0.001928329,-0.003650665,0,
00:08.8,-0.002889633,0.001928329,-0.003656387,0,
00:08.8,-0.002901077,0.001916885,-0.003662109,0,
00:08.8,-0.002906799,0.001922607,-0.003662109,0,
00:08.9,-0.002889633,0.001939774,-0.003662109,0,
00:08.9,-0.002872467,0.001934052,-0.003656387,0,
00:08.9,-0.002889633,0.001928329,-0.003656387,0,
00:08.9,-0.002895355,0.001928329,-0.003662109,0,
00:08.9,-0.002883911,0.001916885,-0.003662109,0,
00:08.9,-0.002906799,0.001922607,-0.003662109,0,
00:08.9,-0.002901077,0.001928329,-0.003662109,0,
00:08.9,-0.002901077,0.001922607,-0.003667831,0,
00:08.9,-0.002901077,0.001928329,-0.003662109,0,
00:08.9,-0.002883911,0.001928329,-0.003662109,0,
00:08.9,-0.002883911,0.001928329,-0.003662109,0,
00:08.9,-0.002889633,0.001922607,-0.003662109,0,
00:08.9,-0.002901077,0.001916885,-0.003662109,0,
00:08.9,-0.002906799,0.001922607,-0.003667831,0,
00:08.9,-0.002895355,0.001928329,-0.003656387,0,
00:08.9,-0.002883911,0.001922607,-0.003662109,0,
00:08.9,-0.002895355,0.001922607,-0.003650665,0,
00:08.9,-0.002906799,0.001922607,-0.003656387,0,
00:08.9,-0.002895355,0.001922607,-0.003656387,0,
00:08.9,-0.002883911,0.001934052,-0.003656387,0,
00:08.9,-0.002878189,0.001928329,-0.003662109,0,
00:08.9,-0.002883911,0.001928329,-0.003667831,0,
00:08.9,-0.002895355,0.001916885,-0.003667831,0,
00:08.9,-0.002901077,0.001916885,-0.003656387,0,
00:08.9,-0.002912521,0.001922607,-0.003662109,0,
00:09.0,-0.002901077,0.001928329,-0.003656387,0,
00:09.0,-0.002895355,0.001922607,-0.003656387,0,
00:09.0,-0.002906799,0.001922607,-0.003667831,0,
00:09.0,-0.002901077,0.001916885,-0.003667831,0,
00:09.0,-0.002883911,0.001922607,-0.003667831,0,
00:09.0,-0.002878189,0.001928329,-0.003667831,0,
00:09.0,-0.002889633,0.001922607,-0.003662109,0,
00:09.0,-0.002895355,0.001922607,-0.003662109,0,
00:09.0,-0.002901077,0.001922607,-0.003673553,0,
00:09.0,-0.002901077,0.001922607,-0.003667831,0,
00:09.0,-0.002895355,0.001928329,-0.003656387,0,
00:09.0,-0.002895355,0.001922607,-0.003662109,0,
00:00:09,-0.002895355,0.001922607,-0.003662109,0,
00:09.0,-0.002895355,0.001922607,-0.003662109,0,
00:09.0,-0.002889633,0.001922607,-0.003673553,0,
00:09.0,-0.002889633,0.001922607,-0.003667831,0,
00:09.0,-0.002889633,0.001916885,-0.003662109,0,
00:09.0,-0.002901077,0.001922607,-0.003656387,0,
00:09.0,-0.002895355,0.001922607,-0.003662109,0,
00:09.0,-0.002901077,0.001911163,-0.003662109,0,
00:09.0,-0.002906799,0.001916885,-0.003667831,0,
00:09.0,-0.002906799,0.001922607,-0.003679276,0,
00:09.0,-0.002901077,0.001922607,-0.003667831,0,
00:09.0,-0.002895355,0.001922607,-0.003656387,0,
00:09.0,-0.002901077,0.001916885,-0.003667831,0,
00:09.1,-0.002912521,0.001916885,-0.003673553,0,
00:09.1,-0.002912521,0.001916885,-0.003667831,0,
00:09.1,-0.002895355,0.001922607,-0.003667831,0,
00:09.1,-0.002895355,0.001916885,-0.003673553,0,
00:09.1,-0.002906799,0.001922607,-0.003673553,0,
00:09.1,-0.002895355,0.001916885,-0.003679276,0,
00:09.1,-0.002901077,0.001916885,-0.003684998,0,
00:09.1,-0.002906799,0.001916885,-0.003673553,0,
00:09.1,-0.002901077,0.001916885,-0.003667831,0,
00:09.1,-0.002889633,0.001916885,-0.003667831,0,
00:09.1,-0.002883911,0.001928329,-0.003673553,0,
00:09.1,-0.002889633,0.001922607,-0.003656387,0,
00:09.1,-0.002906799,0.001916885,-0.003656387,0,
00:09.1,-0.002901077,0.001922607,-0.003662109,0,
00:09.1,-0.002895355,0.001922607,-0.003662109,0,
00:09.1,-0.002889633,0.001916885,-0.003667831,0,
00:09.1,-0.002895355,0.001916885,-0.003667831,0,
00:09.1,-0.002912521,0.001916885,-0.003673553,0,
00:09.1,-0.002901077,0.001922607,-0.003662109,0,
00:09.1,-0.002883911,0.001922607,-0.003673553,0,
00:09.1,-0.002883911,0.001922607,-0.003673553,0,
00:09.1,-0.002889633,0.001916885,-0.003673553,0,
00:09.1,-0.002901077,0.001916885,-0.003667831,0,
00:09.1,-0.002901077,0.001916885,-0.003679276,0,
00:09.1,-0.002889633,0.001911163,-0.003684998,0,
00:09.2,-0.002901077,0.001916885,-0.003667831,0,
00:09.2,-0.002906799,0.001922607,-0.003667831,0,
00:09.2,-0.002895355,0.001922607,-0.003673553,0,
00:09.2,-0.002889633,0.001916885,-0.003673553,0,
00:09.2,-0.002889633,0.001916885,-0.003673553,0,
00:09.2,-0.002901077,0.001916885,-0.003679276,0,
00:09.2,-0.002912521,0.001911163,-0.003662109,0,
00:09.2,-0.002923965,0.001905441,-0.003667831,0,
00:09.2,-0.00293541,0.001899719,-0.003679276,0,
00:09.2,-0.002912521,0.001916885,-0.003673553,0,
00:09.2,-0.002872467,0.001922607,-0.003667831,0,
00:09.2,-0.002878189,0.001916885,-0.003673553,0,
00:09.2,-0.002889633,0.001916885,-0.003667831,0,
00:09.2,-0.002889633,0.001916885,-0.003673553,0,
00:09.2,-0.002889633,0.001911163,-0.003673553,0,
00:09.2,-0.002901077,0.001911163,-0.003684998,0,
00:09.2,-0.002901077,0.001916885,-0.003679276,0,
00:09.2,-0.002895355,0.001911163,-0.003673553,0,
00:09.2,-0.002889633,0.001916885,-0.003673553,0,
00:09.2,-0.002895355,0.001911163,-0.003673553,0,
00:09.2,-0.002901077,0.001905441,-0.003673553,0,
00:09.2,-0.002912521,0.001905441,-0.003673553,0,
00:09.2,-0.002912521,0.001911163,-0.003679276,0,
00:09.2,-0.002901077,0.001911163,-0.003679276,0,
00:09.2,-0.002895355,0.001911163,-0.003684998,0,
00:09.3,-0.002889633,0.001911163,-0.003684998,0,
00:09.3,-0.002895355,0.001905441,-0.003702164,0,
00:09.3,-0.002906799,0.001911163,-0.003696442,0,
00:09.3,-0.002901077,0.001911163,-0.003667831,0,
00:09.3,-0.002895355,0.001911163,-0.003673553,0,
00:09.3,-0.002889633,0.001911163,-0.003673553,0,
00:09.3,-0.002895355,0.001911163,-0.003679276,0,
00:09.3,-0.002906799,0.001905441,-0.003684998,0,
00:09.3,-0.002906799,0.001911163,-0.003679276,0,
00:09.3,-0.002889633,0.001916885,-0.003684998,0,
00:09.3,-0.002889633,0.001911163,-0.003684998,0,
00:09.3,-0.002901077,0.001911163,-0.00369072,0,
00:09.3,-0.002906799,0.001911163,-0.003679276,0,
00:09.3,-0.002901077,0.001911163,-0.003679276,0,
00:09.3,-0.002901077,0.001905441,-0.003684998,0,
00:09.3,-0.002901077,0.001905441,-0.003679276,0,
00:09.3,-0.002901077,0.001905441,-0.003684998,0,
00:09.3,-0.002929688,0.001899719,-0.003679276,0,
00:09.3,-0.002923965,0.001905441,-0.003673553,0,
00:09.3,-0.002901077,0.001911163,-0.003679276,0,
00:09.3,-0.002889633,0.001916885,-0.003679276,0,
00:09.3,-0.002889633,0.001911163,-0.003684998,0,
00:09.3,-0.002901077,0.001911163,-0.003684998,0,
00:09.3,-0.002901077,0.001911163,-0.003696442,0,
00:09.3,-0.002889633,0.001911163,-0.003702164,0,
00:09.4,-0.002895355,0.001911163,-0.003702164,0,
00:09.4,-0.002895355,0.001905441,-0.003679276,0,
00:09.4,-0.002906799,0.001899719,-0.003684998,0,
00:09.4,-0.002912521,0.001905441,-0.003684998,0,
00:09.4,-0.002906799,0.001911163,-0.003696442,0,
00:09.4,-0.002895355,0.001911163,-0.003684998,0,
00:09.4,-0.002889633,0.001911163,-0.003684998,0,
00:09.4,-0.002889633,0.001905441,-0.003696442,0,
00:09.4,-0.002901077,0.001905441,-0.003696442,0,
00:09.4,-0.002912521,0.001899719,-0.003679276,0,
00:09.4,-0.002918243,0.001905441,-0.003679276,0,
00:09.4,-0.002901077,0.001911163,-0.003684998,0,
00:09.4,-0.002889633,0.001905441,-0.00369072,0,
00:09.4,-0.002895355,0.001905441,-0.003684998,0,
00:09.4,-0.002895355,0.001905441,-0.00369072,0,
00:09.4,-0.002895355,0.001905441,-0.00369072,0,
00:09.4,-0.002906799,0.001905441,-0.003684998,0,
00:09.4,-0.002918243,0.001899719,-0.003684998,0,
00:09.4,-0.002918243,0.001899719,-0.003684998,0,
00:09.4,-0.002918243,0.001899719,-0.00369072,0,
00:09.4,-0.002918243,0.001911163,-0.003684998,0,
00:09.4,-0.002901077,0.001911163,-0.003684998,0,
00:09.4,-0.002883911,0.001905441,-0.003684998,0,
00:09.4,-0.002889633,0.001899719,-0.003684998,0,
00:09.4,-0.002895355,0.001899719,-0.003696442,0,
00:09.5,-0.002906799,0.001905441,-0.00369072,0,
00:09.5,-0.002918243,0.001899719,-0.003684998,0,
00:09.5,-0.002918243,0.001905441,-0.00369072,0,
00:09.5,-0.002906799,0.001905441,-0.00369072,0,
00:09.5,-0.002901077,0.001905441,-0.003684998,0,
00:09.5,-0.002895355,0.001905441,-0.003684998,0,
00:09.5,-0.002901077,0.001899719,-0.003679276,0,
00:09.5,-0.002912521,0.001905441,-0.00369072,0,
00:09.5,-0.002901077,0.001905441,-0.003696442,0,
00:09.5,-0.002906799,0.001905441,-0.003702164,0,
00:09.5,-0.002906799,0.001899719,-0.003707886,0,
00:09.5,-0.002918243,0.001893997,-0.00369072,0,
00:09.5,-0.002929688,0.001888275,-0.003684998,0,
00:09.5,-0.002912521,0.001905441,-0.003696442,0,
00:09.5,-0.002883911,0.001911163,-0.003684998,0,
00:09.5,-0.002889633,0.001905441,-0.003679276,0,
00:09.5,-0.002906799,0.001899719,-0.003679276,0,
00:09.5,-0.002906799,0.001899719,-0.003684998,0,
00:09.5,-0.002906799,0.001899719,-0.00369072,0,
00:09.5,-0.002901077,0.001893997,-0.00369072,0,
00:09.5,-0.002912521,0.001899719,-0.00369072,0,
00:09.5,-0.002906799,0.001905441,-0.003702164,0,
00:09.5,-0.002906799,0.001899719,-0.003702164,0,
00:09.5,-0.002906799,0.001893997,-0.003702164,0,
00:09.5,-0.002901077,0.001893997,-0.003702164,0,
00:09.6,-0.002912521,0.001893997,-0.003684998,0,
00:09.6,-0.002912521,0.001905441,-0.003679276,0,
00:09.6,-0.002901077,0.001893997,-0.003684998,0,
00:09.6,-0.002912521,0.001899719,-0.003684998,0,
00:09.6,-0.002912521,0.001899719,-0.003679276,0,
00:09.6,-0.002912521,0.001899719,-0.003684998,0,
00:09.6,-0.002906799,0.001899719,-0.00369072,0,
00:09.6,-0.002906799,0.001899719,-0.00369072,0,
00:09.6,-0.002906799,0.001893997,-0.003696442,0,
00:09.6,-0.002906799,0.001899719,-0.003702164,0,
00:09.6,-0.002906799,0.001899719,-0.003702164,0,
00:09.6,-0.002912521,0.001905441,-0.003707886,0,
00:09.6,-0.002895355,0.001899719,-0.003707886,0,
00:09.6,-0.002901077,0.001899719,-0.003707886,0,
00:09.6,-0.002912521,0.001893997,-0.003713608,0,
00:09.6,-0.002918243,0.001893997,-0.003696442,0,
00:09.6,-0.002912521,0.001905441,-0.003684998,0,
00:09.6,-0.002895355,0.001899719,-0.003679276,0,
00:09.6,-0.002918243,0.001888275,-0.003684998,0,
00:09.6,-0.002929688,0.001893997,-0.003684998,0,
00:09.6,-0.002918243,0.001899719,-0.00369072,0,
00:09.6,-0.002918243,0.001893997,-0.003696442,0,
00:09.6,-0.002923965,0.001893997,-0.003696442,0,
00:09.6,-0.002912521,0.001899719,-0.003696442,0,
00:09.6,-0.002912521,0.001893997,-0.003702164,0,
00:09.7,-0.002923965,0.001893997,-0.003707886,0,
00:09.7,-0.002929688,0.001899719,-0.003707886,0,
00:09.7,-0.002918243,0.001911163,-0.003707886,0,
00:09.7,-0.002883911,0.001905441,-0.00371933,0,
00:09.7,-0.002878189,0.001893997,-0.003713608,0,
00:09.7,-0.002912521,0.001899719,-0.00369072,0,
00:09.7,-0.002906799,0.001899719,-0.003684998,0,
00:09.7,-0.002918243,0.001893997,-0.003679276,0,
00:09.7,-0.002941132,0.001888275,-0.00369072,0,
00:09.7,-0.00293541,0.001899719,-0.00369072,0,
00:09.7,-0.002912521,0.001899719,-0.003684998,0,
00:09.7,-0.002918243,0.001905441,-0.003684998,0,
00:09.7,-0.002912521,0.001899719,-0.00369072,0,
00:09.7,-0.002912521,0.001893997,-0.003702164,0,
00:09.7,-0.002912521,0.001893997,-0.003702164,0,
00:09.7,-0.00293541,0.001893997,-0.003696442,0,
00:09.7,-0.00293541,0.001899719,-0.003684998,0,
00:09.7,-0.002923965,0.001899719,-0.00369072,0,
00:09.7,-0.002918243,0.001899719,-0.003684998,0,
00:09.7,-0.002918243,0.001888275,-0.00369072,0,
00:09.7,-0.002923965,0.001893997,-0.00369072,0,
00:09.7,-0.002923965,0.001899719,-0.003684998,0,
00:09.7,-0.002918243,0.001899719,-0.003696442,0,
00:09.7,-0.002912521,0.001899719,-0.003702164,0,
00:09.7,-0.002912521,0.001876831,-0.003707886,0,
00:09.8,-0.002946854,0.001882553,-0.003696442,0,
00:09.8,-0.002958298,0.001899719,-0.00369072,0,
00:09.8,-0.002912521,0.001911163,-0.00369072,0,
00:09.8,-0.002901077,0.001905441,-0.003696442,0,
00:09.8,-0.002918243,0.001893997,-0.003702164,0,
00:09.8,-0.00293541,0.001899719,-0.00369072,0,
00:09.8,-0.002929688,0.001899719,-0.003696442,0,
00:09.8,-0.002918243,0.001899719,-0.003696442,0,
00:09.8,-0.002912521,0.001905441,-0.003696442,0,
00:09.8,-0.002918243,0.001905441,-0.003696442,0,
00:09.8,-0.002923965,0.001899719,-0.003696442,0,
00:09.8,-0.002929688,0.001899719,-0.00369072,0,
00:09.8,-0.002929688,0.001893997,-0.003684998,0,
00:09.8,-0.00293541,0.001899719,-0.00369072,0,
00:09.8,-0.002923965,0.001893997,-0.003684998,0,
00:09.8,-0.002929688,0.001893997,-0.00369072,0,
00:09.8,-0.00293541,0.001893997,-0.00369072,0,
00:09.8,-0.00293541,0.001888275,-0.00369072,0,
00:09.8,-0.002946854,0.001893997,-0.003696442,0,
00:09.8,-0.00293541,0.001905441,-0.00369072,0,
00:09.8,-0.002923965,0.001888275,-0.003696442,0,
00:09.8,-0.002941132,0.001888275,-0.003696442,0,
00:09.8,-0.00293541,0.001888275,-0.003684998,0,
00:09.8,-0.002929688,0.001893997,-0.00369072,0,
