Elapsed_Time,EMG1,EMG2,EMG3,BioRadio Event,Unnamed: 5
00:00:00,-0.005332947,0.00299263,0.000606537,0,
00:00.0,-0.005327225,0.00299263,0.000606537,0,
00:00.0,-0.005332947,0.00299263,0.000606537,0,
00:00.0,-0.005338669,0.002986908,0.000606537,0,
00:00.0,-0.005344391,0.002986908,0.000606537,0,
00:00.0,-0.005350113,0.00299263,0.000606537,0,
00:00.0,-0.005327225,0.002998352,0.000606537,0,
00:00.0,-0.005315781,0.002998352,0.000606537,0,
00:00.0,-0.005327225,0.00299263,0.000606537,0,
00:00.0,-0.005332947,0.00299263,0.000606537,0,
00:00.0,-0.005332947,0.00299263,0.000606537,0,
00:00.0,-0.005332947,0.002998352,0.000606537,0,
00:00.0,-0.005327225,0.00299263,0.000606537,0,
00:00.1,-0.005315781,0.00299263,0.000600815,0,
00:00.1,-0.005321503,0.00299263,0.000600815,0,
00:00.1,-0.005332947,0.00299263,0.000606537,0,
00:00.1,-0.005338669,0.00299263,0.000600815,0,
00:00.1,-0.005327225,0.002998352,0.000600815,0,
00:00.1,-0.005315781,0.002998352,0.000600815,0,
00:00.1,-0.005310059,0.002998352,0.000600815,0,
00:00.1,-0.005315781,0.002998352,0.000600815,0,
00:00.1,-0.005321503,0.002998352,0.000600815,0,
00:00.1,-0.005321503,0.002998352,0.000600815,0,
00:00.1,-0.005321503,0.002998352,0.000595093,0,
00:00.1,-0.005338669,0.00299263,0.000595093,0,
00:00.1,-0.005350113,0.00299263,0.000595093,0,
00:00.1,-0.005321503,0.002998352,0.000595093,0,
00:00.1,-0.005321503,0.002998352,0.000595093,0,
00:00.1,-0.005327225,0.00299263,0.000595093,0,
00:00.1,-0.005327225,0.00299263,0.000595093,0,
00:00.1,-0.005310059,0.002998352,0.000595093,0,
00:00.1,-0.005315781,0.002998352,0.000595093,0,
00:00.1,-0.005327225,0.00299263,0.000595093,0,
00:00.1,-0.005327225,0.00299263,0.000595093,0,
00:00.1,-0.005332947,0.00299263,0.000595093,0,
00:00.1,-0.005332947,0.00299263,0.000595093,0,
00:00.1,-0.005332947,0.00299263,0.000595093,0,
00:00.1,-0.005321503,0.00299263,0.000589371,0,
00:00.2,-0.005315781,0.002998352,0.000589371,0,
00:00.2,-0.005315781,0.00299263,0.000589371,0,
00:00.2,-0.005321503,0.002998352,0.000589371,0,
00:00.2,-0.005321503,0.002998352,0.000589371,0,
00:00.2,-0.005321503,0.00299263,0.000589371,0,
00:00.2,-0.005321503,0.00299263,0.000583649,0,
00:00.2,-0.005310059,0.002998352,0.000583649,0,
00:00.2,-0.005298615,0.00299263,0.000589371,0,
00:00.2,-0.005304337,0.002998352,0.000589371,0,
00:00.2,-0.005310059,0.00299263,0.000583649,0,
00:00.2,-0.005321503,0.00299263,0.000583649,0,
00:00.2,-0.005321503,0.00299263,0.000583649,0,
00:00.2,-0.005310059,0.002998352,0.000583649,0,
00:00.2,-0.005310059,0.002998352,0.000583649,0,
00:00.2,-0.005321503,0.002998352,0.000583649,0,
00:00.2,-0.005327225,0.00299263,0.000583649,0,
00:00.2,-0.005304337,0.002998352,0.000577927,0,
00:00.2,-0.005304337,0.003004074,0.000583649,0,
00:00.2,-0.005321503,0.00299263,0.000583649,0,
00:00.2,-0.005315781,0.00299263,0.000577927,0,
00:00.2,-0.005310059,0.00299263,0.000577927,0,
00:00.2,-0.005315781,0.00299263,0.000577927,0,
00:00.2,-0.005315781,0.002998352,0.000583649,0,
00:00.2,-0.005315781,0.002998352,0.000577927,0,
00:00.2,-0.005321503,0.00299263,0.000577927,0,
00:00.3,-0.005304337,0.002998352,0.000577927,0,
00:00.3,-0.005292892,0.003004074,0.000577927,0,
00:00.3,-0.005298615,0.002998352,0.000577927,0,
00:00.3,-0.005304337,0.002998352,0.000577927,0,
00:00.3,-0.005298615,0.002998352,0.000577927,0,
00:00.3,-0.005298615,0.002998352,0.000572205,0,
00:00.3,-0.005304337,0.002998352,0.000577927,0,
00:00.3,-0.005310059,0.002998352,0.000577927,0,
00:00.3,-0.005315781,0.002998352,0.000577927,0,
00:00.3,-0.005304337,0.002998352,0.000572205,0,
00:00.3,-0.00528717,0.003004074,0.000572205,0,
00:00.3,-0.005304337,0.003004074,0.000572205,0,
00:00.3,-0.005310059,0.002998352,0.000572205,0,
00:00.3,-0.005304337,0.002998352,0.000572205,0,
00:00.3,-0.005310059,0.00299263,0.000572205,0,
00:00.3,-0.005304337,0.002998352,0.000566483,0,
00:00.3,-0.005304337,0.003004074,0.000566483,0,
00:00.3,-0.005304337,0.003004074,0.000566483,0,
00:00.3,-0.005298615,0.003004074,0.000572205,0,
00:00.3,-0.005304337,0.002998352,0.000572205,0,
00:00.3,-0.005292892,0.003004074,0.000566483,0,
00:00.3,-0.005298615,0.003004074,0.000566483,0,
00:00.3,-0.005304337,0.003004074,0.000566483,0,
00:00.3,-0.005304337,0.003004074,0.000572205,0,
00:00.3,-0.005292892,0.003009796,0.000566483,0,
00:00.4,-0.00528717,0.003004074,0.000566483,0,
00:00.4,-0.005292892,0.003009796,0.000566483,0,
00:00.4,-0.005298615,0.003009796,0.000566483,0,
00:00.4,-0.005304337,0.003004074,0.000566483,0,
00:00.4,-0.005292892,0.003004074,0.00056076,0,
00:00.4,-0.00528717,0.003009796,0.00056076,0,
00:00.4,-0.005298615,0.003004074,0.00056076,0,
00:00.4,-0.005315781,0.002998352,0.00056076,0,
00:00.4,-0.005310059,0.002998352,0.00056076,0,
00:00.4,-0.005281448,0.003004074,0.00056076,0,
00:00.4,-0.005275726,0.003009796,0.00056076,0,
00:00.4,-0.00528717,0.003004074,0.00056076,0,
00:00.4,-0.005292892,0.003004074,0.00056076,0,
00:00.4,-0.005292892,0.003009796,0.00056076,0,
00:00.4,-0.00528717,0.003009796,0.00056076,0,
00:00.4,-0.005281448,0.003009796,0.00056076,0,
00:00.4,-0.00528717,0.003009796,0.00056076,0,
00:00.4,-0.005315781,0.003004074,0.00056076,0,
00:00.4,-0.005327225,0.002998352,0.00056076,0,
00:00.4,-0.005304337,0.002998352,0.000555038,0,
00:00.4,-0.005270004,0.003004074,0.000555038,0,
00:00.4,-0.005264282,0.003009796,0.000555038,0,
00:00.4,-0.005281448,0.003009796,0.000555038,0,
00:00.4,-0.00528717,0.003009796,0.000555038,0,
00:00.4,-0.005275726,0.003004074,0.000555038,0,
00:00.5,-0.005270004,0.003004074,0.000555038,0,
00:00.5,-0.005281448,0.003004074,0.000549316,0,
00:00.5,-0.00528717,0.003004074,0.000549316,0,
00:00.5,-0.005281448,0.003009796,0.000549316,0,
00:00.5,-0.005281448,0.003009796,0.000549316,0,
00:00.5,-0.00528717,0.003004074,0.000549316,0,
00:00.5,-0.005281448,0.003004074,0.000549316,0,
00:00.5,-0.005292892,0.003004074,0.000549316,0,
00:00.5,-0.005298615,0.002998352,0.000549316,0,
00:00.5,-0.005281448,0.003004074,0.000549316,0,
00:00.5,-0.005275726,0.003004074,0.000549316,0,
00:00.5,-0.005281448,0.003004074,0.000549316,0,
00:00.5,-0.005292892,0.002998352,0.000549316,0,
00:00.5,-0.005281448,0.003004074,0.000549316,0,
00:00.5,-0.005275726,0.003004074,0.000543594,0,
00:00.5,-0.005292892,0.003004074,0.000543594,0,
00:00.5,-0.005298615,0.002998352,0.000543594,0,
00:00.5,-0.005281448,0.003004074,0.000543594,0,
00:00.5,-0.005281448,0.003004074,0.000543594,0,
00:00.5,-0.005275726,0.002998352,0.000543594,0,
00:00.5,-0.005270004,0.002998352,0.000537872,0,
00:00.5,-0.005281448,0.002998352,0.000543594,0,
00:00.5,-0.005281448,0.002998352,0.000543594,0,
00:00.5,-0.005270004,0.002998352,0.000543594,0,
00:00.5,-0.005275726,0.00299263,0.000543594,0,
00:00.6,-0.005275726,0.00299263,0.000543594,0,
00:00.6,-0.005270004,0.002998352,0.000543594,0,
00:00.6,-0.005270004,0.002998352,0.000543594,0,
00:00.6,-0.005281448,0.002998352,0.000543594,0,
00:00.6,-0.005275726,0.00299263,0.000537872,0,
00:00.6,-0.005264282,0.002998352,0.000537872,0,
00:00.6,-0.005264282,0.00299263,0.000537872,0,
00:00.6,-0.005270004,0.00299263,0.000543594,0,
00:00.6,-0.00525856,0.002998352,0.000537872,0,
00:00.6,-0.00525856,0.002998352,0.000537872,0,
00:00.6,-0.005270004,0.00299263,0.000537872,0,
00:00.6,-0.005275726,0.002986908,0.00053215,0,
00:00.6,-0.00525856,0.002998352,0.00053215,0,
00:00.6,-0.005264282,0.002998352,0.00053215,0,
00:00.6,-0.005270004,0.00299263,0.00053215,0,
00:00.6,-0.00525856,0.00299263,0.00053215,0,
00:00.6,-0.00525856,0.00299263,0.00053215,0,
00:00.6,-0.005264282,0.002986908,0.00053215,0,
00:00.6,-0.005270004,0.002986908,0.00053215,0,
00:00.6,-0.005281448,0.002986908,0.00053215,0,
00:00.6,-0.005275726,0.002981186,0.00053215,0,
00:00.6,-0.005270004,0.002986908,0.00053215,0,
00:00.6,-0.00525856,0.00299263,0.000537872,0,
00:00.6,-0.005270004,0.00299263,0.000537872,0,
00:00.6,-0.005264282,0.002986908,0.00053215,0,
00:00.7,-0.005252838,0.00299263,0.00053215,0,
00:00.7,-0.005252838,0.002986908,0.00053215,0,
00:00.7,-0.005264282,0.002986908,0.00053215,0,
00:00.7,-0.005270004,0.002986908,0.00053215,0,
00:00.7,-0.005270004,0.002986908,0.00053215,0,
00:00.7,-0.005270004,0.002981186,0.00053215,0,
00:00.7,-0.005281448,0.002981186,0.00053215,0,
00:00.7,-0.00525856,0.002986908,0.00053215,0,
00:00.7,-0.00525856,0.002986908,0.00053215,0,
00:00.7,-0.005264282,0.002981186,0.000526428,0,
00:00.7,-0.00525856,0.002981186,0.000526428,0,
00:00.7,-0.005252838,0.002981186,0.00053215,0,
00:00.7,-0.00525856,0.002981186,0.00053215,0,
00:00.7,-0.005270004,0.002981186,0.00053215,0,
00:00.7,-0.00525856,0.002981186,0.00053215,0,
00:00.7,-0.005235672,0.002986908,0.000526428,0,
00:00.7,-0.005241394,0.002981186,0.000526428,0,
00:00.7,-0.00525856,0.002981186,0.000526428,0,
00:00.7,-0.005270004,0.002975464,0.00053215,0,
00:00.7,-0.005264282,0.002975464,0.000526428,0,
00:00.7,-0.00525856,0.002975464,0.000526428,0,
00:00.7,-0.00525856,0.002975464,0.000526428,0,
00:00.7,-0.005252838,0.002975464,0.000526428,0,
00:00.7,-0.00525856,0.002975464,0.000526428,0,
00:00.7,-0.005252838,0.002975464,0.000526428,0,
00:00.8,-0.005252838,0.002969742,0.000520706,0,
00:00.8,-0.005235672,0.002975464,0.000520706,0,
00:00.8,-0.005241394,0.002975464,0.000520706,0,
00:00.8,-0.00525856,0.002975464,0.000520706,0,
00:00.8,-0.005270004,0.002969742,0.000520706,0,
00:00.8,-0.00525856,0.002969742,0.000520706,0,
00:00.8,-0.005252838,0.00296402,0.000520706,0,
00:00.8,-0.005247116,0.002969742,0.000520706,0,
00:00.8,-0.005235672,0.002975464,0.000520706,0,
00:00.8,-0.005247116,0.002975464,0.000520706,0,
00:00.8,-0.005252838,0.002969742,0.000520706,0,
00:00.8,-0.005252838,0.00296402,0.000514984,0,
00:00.8,-0.005247116,0.002969742,0.000514984,0,
00:00.8,-0.005241394,0.002969742,0.000514984,0,
00:00.8,-0.005247116,0.00296402,0.000514984,0,
00:00.8,-0.005235672,0.002969742,0.000514984,0,
00:00.8,-0.005224228,0.002969742,0.000514984,0,
00:00.8,-0.005241394,0.002969742,0.000514984,0,
00:00.8,-0.005252838,0.002958298,0.000514984,0,
00:00.8,-0.005247116,0.002958298,0.000514984,0,
00:00.8,-0.005235672,0.002969742,0.000514984,0,
00:00.8,-0.00522995,0.00296402,0.000514984,0,
00:00.8,-0.005235672,0.00296402,0.000514984,0,
00:00.8,-0.005235672,0.00296402,0.000514984,0,
00:00.8,-0.005241394,0.002958298,0.000514984,0,
00:00.9,-0.005235672,0.002952576,0.000509262,0,
00:00.9,-0.005224228,0.002958298,0.000509262,0,
00:00.9,-0.005235672,0.002958298,0.000514984,0,
00:00.9,-0.005252838,0.002958298,0.000514984,0,
00:00.9,-0.005264282,0.002946854,0.000509262,0,
00:00.9,-0.005241394,0.002952576,0.000509262,0,
00:00.9,-0.005224228,0.002958298,0.000514984,0,
00:00.9,-0.005212784,0.00296402,0.000509262,0,
00:00.9,-0.005218506,0.00296402,0.000514984,0,
00:00.9,-0.005224228,0.002958298,0.000514984,0,
00:00.9,-0.005235672,0.002952576,0.000509262,0,
00:00.9,-0.005235672,0.002952576,0.000509262,0,
00:00.9,-0.00522995,0.002958298,0.000509262,0,
00:00.9,-0.00522995,0.002958298,0.000509262,0,
00:00.9,-0.00522995,0.002952576,0.000509262,0,
00:00.9,-0.00522995,0.002946854,0.000509262,0,
00:00.9,-0.005212784,0.002952576,0.000509262,0,
00:00.9,-0.005224228,0.002952576,0.000509262,0,
00:00.9,-0.00522995,0.002946854,0.000509262,0,
00:00.9,-0.005218506,0.002952576,0.000509262,0,
00:00.9,-0.005224228,0.002952576,0.00050354,0,
00:00.9,-0.005235672,0.002946854,0.00050354,0,
00:00.9,-0.00522995,0.002946854,0.00050354,0,
00:00.9,-0.005235672,0.002946854,0.00050354,0,
00:00.9,-0.005241394,0.002941132,0.00050354,0,
00:01.0,-0.005218506,0.002946854,0.00050354,0,
00:01.0,-0.005207062,0.002946854,0.00050354,0,
00:01.0,-0.00520134,0.002952576,0.00050354,0,
00:01.0,-0.005207062,0.002946854,0.00050354,0,
00:01.0,-0.005218506,0.002946854,0.00050354,0,
00:01.0,-0.005218506,0.002941132,0.000497818,0,
00:01.0,-0.005224228,0.00293541,0.000497818,0,
00:01.0,-0.005224228,0.00293541,0.000497818,0,
00:01.0,-0.005218506,0.002941132,0.000497818,0,
00:01.0,-0.005218506,0.002941132,0.000497818,0,
00:01.0,-0.005207062,0.002941132,0.000497818,0,
00:01.0,-0.005207062,0.002941132,0.000497818,0,
00:00:01,-0.005235672,0.00293541,0.000497818,0,
00:01.0,-0.005224228,0.00293541,0.000497818,0,
00:01.0,-0.005189896,0.002941132,0.000497818,0,
00:01.0,-0.005195618,0.002941132,0.000497818,0,
00:01.0,-0.005212784,0.00293541,0.000497818,0,
00:01.0,-0.005218506,0.00293541,0.000497818,0,
00:01.0,-0.005207062,0.002941132,0.000497818,0,
00:01.0,-0.005212784,0.00293541,0.000497818,0,
00:01.0,-0.005212784,0.002929688,0.000492096,0,
00:01.0,-0.005207062,0.00293541,0.000492096,0,
00:01.0,-0.005212784,0.00293541,0.000492096,0,
00:01.0,-0.005212784,0.00293541,0.000492096,0,
00:01.0,-0.005195618,0.002941132,0.000492096,0,
00:01.1,-0.005189896,0.002941132,0.000492096,0,
00:01.1,-0.005189896,0.00293541,0.000492096,0,
00:01.1,-0.00520134,0.002941132,0.000492096,0,
00:01.1,-0.005195618,0.002946854,0.000492096,0,
00:01.1,-0.005184174,0.002941132,0.000492096,0,
00:01.1,-0.005184174,0.00293541,0.000492096,0,
00:01.1,-0.005195618,0.00293541,0.000492096,0,
00:01.1,-0.005207062,0.00293541,0.000492096,0,
00:01.1,-0.005212784,0.00293541,0.000492096,0,
00:01.1,-0.005207062,0.00293541,0.000492096,0,
00:01.1,-0.00520134,0.002929688,0.000492096,0,
00:01.1,-0.00520134,0.002929688,0.000492096,0,
00:01.1,-0.00520134,0.00293541,0.000492096,0,
00:01.1,-0.005195618,0.00293541,0.000492096,0,
00:01.1,-0.005184174,0.00293541,0.000492096,0,
00:01.1,-0.005189896,0.00293541,0.000486374,0,
00:01.1,-0.005189896,0.00293541,0.000492096,0,
00:01.1,-0.005189896,0.00293541,0.000492096,0,
00:01.1,-0.005195618,0.002929688,0.000492096,0,
00:01.1,-0.005189896,0.002929688,0.000492096,0,
00:01.1,-0.005189896,0.002929688,0.000492096,0,
00:01.1,-0.005178452,0.00293541,0.000492096,0,
00:01.1,-0.005189896,0.002929688,0.000492096,0,
00:01.1,-0.005195618,0.002929688,0.000492096,0,
00:01.1,-0.005184174,0.002929688,0.000492096,0,
00:01.2,-0.005184174,0.002929688,0.000486374,0,
00:01.2,-0.005184174,0.002929688,0.000486374,0,
00:01.2,-0.005167007,0.00293541,0.000486374,0,
00:01.2,-0.005167007,0.00293541,0.000492096,0,
00:01.2,-0.005167007,0.00293541,0.000492096,0,
00:01.2,-0.005178452,0.002929688,0.000486374,0,
00:01.2,-0.005178452,0.002929688,0.000486374,0,
00:01.2,-0.005178452,0.002929688,0.000492096,0,
00:01.2,-0.005172729,0.002929688,0.000492096,0,
00:01.2,-0.005178452,0.002923965,0.000492096,0,
00:01.2,-0.005184174,0.002929688,0.000486374,0,
00:01.2,-0.005189896,0.002923965,0.000486374,0,
00:01.2,-0.005195618,0.002923965,0.000486374,0,
00:01.2,-0.005184174,0.002929688,0.000486374,0,
00:01.2,-0.005172729,0.002929688,0.000486374,0,
00:01.2,-0.005149841,0.00293541,0.000486374,0,
00:01.2,-0.005144119,0.002941132,0.000486374,0,
00:01.2,-0.005167007,0.002929688,0.000486374,0,
00:01.2,-0.005178452,0.002929688,0.000486374,0,
00:01.2,-0.005172729,0.002929688,0.000486374,0,
00:01.2,-0.005178452,0.002929688,0.000486374,0,
00:01.2,-0.005184174,0.002923965,0.000486374,0,
00:01.2,-0.005184174,0.002923965,0.000486374,0,
00:01.2,-0.005178452,0.002923965,0.000486374,0,
00:01.2,-0.005149841,0.002929688,0.000486374,0,
00:01.3,-0.005138397,0.002929688,0.000486374,0,
00:01.3,-0.005149841,0.002929688,0.000486374,0,
00:01.3,-0.005161285,0.002923965,0.000486374,0,
00:01.3,-0.005172729,0.002923965,0.000486374,0,
00:01.3,-0.005161285,0.002918243,0.000486374,0,
00:01.3,-0.005144119,0.002923965,0.000486374,0,
00:01.3,-0.005155563,0.002923965,0.000492096,0,
00:01.3,-0.005167007,0.002918243,0.000492096,0,
00:01.3,-0.005155563,0.002918243,0.000486374,0,
00:01.3,-0.005149841,0.002923965,0.000486374,0,
00:01.3,-0.005155563,0.002923965,0.000486374,0,
00:01.3,-0.005161285,0.002918243,0.000486374,0,
00:01.3,-0.005172729,0.002918243,0.000486374,0,
00:01.3,-0.005167007,0.002918243,0.000486374,0,
00:01.3,-0.005149841,0.002918243,0.000480652,0,
00:01.3,-0.005138397,0.002923965,0.000480652,0,
00:01.3,-0.005144119,0.002923965,0.000480652,0,
00:01.3,-0.005161285,0.002918243,0.000486374,0,
00:01.3,-0.005155563,0.002918243,0.000486374,0,
00:01.3,-0.005144119,0.002923965,0.000480652,0,
00:01.3,-0.005149841,0.002918243,0.000480652,0,
00:01.3,-0.005155563,0.002918243,0.000480652,0,
00:01.3,-0.005149841,0.002918243,0.000480652,0,
00:01.3,-0.005144119,0.002918243,0.000480652,0,
00:01.3,-0.005144119,0.002918243,0.000480652,0,
00:01.4,-0.005144119,0.002918243,0.000480652,0,
00:01.4,-0.005149841,0.002912521,0.000480652,0,
00:01.4,-0.005149841,0.002918243,0.000480652,0,
00:01.4,-0.005155563,0.002918243,0.000480652,0,
00:01.4,-0.005155563,0.002912521,0.000480652,0,
00:01.4,-0.005144119,0.002912521,0.000486374,0,
00:01.4,-0.005144119,0.002918243,0.000480652,0,
00:01.4,-0.005144119,0.002912521,0.000480652,0,
00:01.4,-0.005155563,0.002912521,0.000480652,0,
00:01.4,-0.005149841,0.002912521,0.000480652,0,
00:01.4,-0.005121231,0.002918243,0.000480652,0,
00:01.4,-0.005126953,0.002912521,0.000480652,0,
00:01.4,-0.005138397,0.002918243,0.000480652,0,
00:01.4,-0.005138397,0.002912521,0.000480652,0,
00:01.4,-0.005132675,0.002912521,0.000480652,0,
00:01.4,-0.005132675,0.002912521,0.000480652,0,
00:01.4,-0.005144119,0.002906799,0.000480652,0,
00:01.4,-0.005161285,0.002906799,0.000480652,0,
00:01.4,-0.005138397,0.002912521,0.000480652,0,
00:01.4,-0.005126953,0.002906799,0.000480652,0,
00:01.4,-0.005121231,0.002906799,0.000480652,0,
00:01.4,-0.005132675,0.002906799,0.000480652,0,
00:01.4,-0.005138397,0.002906799,0.000480652,0,
00:01.4,-0.005138397,0.002906799,0.000480652,0,
00:01.4,-0.005132675,0.002906799,0.000480652,0,
00:01.5,-0.005132675,0.002906799,0.000480652,0,
00:01.5,-0.005138397,0.002906799,0.000480652,0,
00:01.5,-0.005132675,0.002906799,0.000480652,0,
00:01.5,-0.005132675,0.002906799,0.00047493,0,
00:01.5,-0.005126953,0.002906799,0.00047493,0,
00:01.5,-0.005126953,0.002906799,0.00047493,0,
00:01.5,-0.005132675,0.002906799,0.00047493,0,
00:01.5,-0.005132675,0.002901077,0.000480652,0,
00:01.5,-0.005126953,0.002906799,0.000480652,0,
00:01.5,-0.005109787,0.002912521,0.000480652,0,
00:01.5,-0.005126953,0.002906799,0.00047493,0,
00:01.5,-0.005121231,0.002906799,0.00047493,0,
00:01.5,-0.005132675,0.002901077,0.00047493,0,
00:01.5,-0.005121231,0.002901077,0.00047493,0,
00:01.5,-0.005115509,0.002906799,0.00047493,0,
00:01.5,-0.005115509,0.002901077,0.00047493,0,
00:01.5,-0.005115509,0.002901077,0.00047493,0,
00:01.5,-0.005115509,0.002906799,0.00047493,0,
00:01.5,-0.005126953,0.002901077,0.000480652,0,
00:01.5,-0.005126953,0.002901077,0.000480652,0,
00:01.5,-0.005115509,0.002895355,0.00047493,0,
00:01.5,-0.005115509,0.002901077,0.00047493,0,
00:01.5,-0.005121231,0.002901077,0.00047493,0,
00:01.5,-0.005121231,0.002901077,0.00047493,0,
00:01.5,-0.005115509,0.002901077,0.00047493,0,
00:01.6,-0.005104065,0.002901077,0.00047493,0,
00:01.6,-0.005109787,0.002901077,0.00047493,0,
00:01.6,-0.005126953,0.002895355,0.00047493,0,
00:01.6,-0.005115509,0.002901077,0.00047493,0,
00:01.6,-0.005109787,0.002906799,0.00047493,0,
00:01.6,-0.005109787,0.002901077,0.00047493,0,
00:01.6,-0.005104065,0.002901077,0.00047493,0,
00:01.6,-0.005109787,0.002901077,0.00047493,0,
00:01.6,-0.005109787,0.002901077,0.00047493,0,
00:01.6,-0.005104065,0.002901077,0.00047493,0,
00:01.6,-0.005109787,0.002901077,0.000469208,0,
00:01.6,-0.005104065,0.002901077,0.000469208,0,
00:01.6,-0.005104065,0.002901077,0.000469208,0,
00:01.6,-0.005104065,0.002901077,0.000469208,0,
00:01.6,-0.005098343,0.002906799,0.00047493,0,
00:01.6,-0.005109787,0.002895355,0.000469208,0,
00:01.6,-0.005115509,0.002895355,0.000469208,0,
00:01.6,-0.005104065,0.002901077,0.00047493,0,
00:01.6,-0.005098343,0.002901077,0.00047493,0,
00:01.6,-0.005092621,0.002901077,0.00047493,0,
00:01.6,-0.005098343,0.002901077,0.000469208,0,
00:01.6,-0.005109787,0.002895355,0.000469208,0,
00:01.6,-0.005109787,0.002895355,0.000469208,0,
00:01.6,-0.005104065,0.002895355,0.000469208,0,
00:01.6,-0.005092621,0.002895355,0.000469208,0,
00:01.7,-0.005081177,0.002901077,0.000469208,0,
00:01.7,-0.005081177,0.002901077,0.000469208,0,
00:01.7,-0.005086899,0.002906799,0.000469208,0,
00:01.7,-0.005086899,0.002906799,0.000469208,0,
00:01.7,-0.005098343,0.002901077,0.000469208,0,
00:01.7,-0.005092621,0.002901077,0.000469208,0,
00:01.7,-0.005092621,0.002895355,0.000469208,0,
00:01.7,-0.005092621,0.002895355,0.000469208,0,
00:01.7,-0.005092621,0.002895355,0.000469208,0,
00:01.7,-0.005086899,0.002895355,0.000469208,0,
00:01.7,-0.005086899,0.002895355,0.000463486,0,
00:01.7,-0.005098343,0.002889633,0.000463486,0,
00:01.7,-0.005104065,0.002889633,0.000469208,0,
00:01.7,-0.005098343,0.002895355,0.000469208,0,
00:01.7,-0.005104065,0.002889633,0.000463486,0,
00:01.7,-0.005104065,0.002889633,0.000463486,0,
00:01.7,-0.005092621,0.002889633,0.000469208,0,
00:01.7,-0.005086899,0.002901077,0.000469208,0,
00:01.7,-0.005098343,0.002895355,0.000469208,0,
00:01.7,-0.005109787,0.002889633,0.000463486,0,
00:01.7,-0.005098343,0.002883911,0.000463486,0,
00:01.7,-0.005069733,0.002895355,0.000469208,0,
00:01.7,-0.005081177,0.002895355,0.000469208,0,
00:01.7,-0.005098343,0.002889633,0.000469208,0,
00:01.7,-0.005098343,0.002889633,0.000469208,0,
00:01.8,-0.005081177,0.002895355,0.000469208,0,
00:01.8,-0.005052567,0.002901077,0.000469208,0,
00:01.8,-0.005075455,0.002901077,0.000469208,0,
00:01.8,-0.005086899,0.002895355,0.000469208,0,
00:01.8,-0.005081177,0.002889633,0.000469208,0,
00:01.8,-0.005069733,0.002895355,0.000463486,0,
00:01.8,-0.005069733,0.002895355,0.000463486,0,
00:01.8,-0.005075455,0.002895355,0.000469208,0,
00:01.8,-0.005086899,0.002889633,0.000469208,0,
00:01.8,-0.005086899,0.002889633,0.000463486,0,
00:01.8,-0.005086899,0.002889633,0.000463486,0,
00:01.8,-0.005086899,0.002889633,0.000463486,0,
00:01.8,-0.005081177,0.002889633,0.000469208,0,
00:01.8,-0.005075455,0.002895355,0.000469208,0,
00:01.8,-0.005064011,0.002895355,0.000469208,0,
00:01.8,-0.005058289,0.002895355,0.000469208,0,
00:01.8,-0.005069733,0.002895355,0.000463486,0,
00:01.8,-0.005081177,0.002895355,0.000469208,0,
00:01.8,-0.005092621,0.002889633,0.000469208,0,
00:01.8,-0.005086899,0.002889633,0.000469208,0,
00:01.8,-0.005064011,0.002895355,0.000469208,0,
00:01.8,-0.005058289,0.002901077,0.000463486,0,
00:01.8,-0.005064011,0.002906799,0.000469208,0,
00:01.8,-0.005069733,0.002895355,0.000463486,0,
00:01.8,-0.005069733,0.002895355,0.000463486,0,
00:01.9,-0.005064011,0.002895355,0.000463486,0,
00:01.9,-0.005058289,0.002901077,0.000463486,0,
00:01.9,-0.005069733,0.002901077,0.000463486,0,
00:01.9,-0.005081177,0.002895355,0.000469208,0,
00:01.9,-0.005064011,0.002895355,0.000463486,0,
00:01.9,-0.005069733,0.002895355,0.000463486,0,
00:01.9,-0.005058289,0.002901077,0.000463486,0,
00:01.9,-0.005064011,0.002901077,0.000463486,0,
00:01.9,-0.005081177,0.002895355,0.000463486,0,
00:01.9,-0.005075455,0.002895355,0.000469208,0,
00:01.9,-0.005058289,0.002895355,0.000463486,0,
00:01.9,-0.005064011,0.002895355,0.000463486,0,
00:01.9,-0.005058289,0.002895355,0.000463486,0,
00:01.9,-0.005052567,0.002901077,0.000469208,0,
00:01.9,-0.005046844,0.002901077,0.000463486,0,
00:01.9,-0.005052567,0.002895355,0.000463486,0,
00:01.9,-0.005069733,0.002889633,0.000463486,0,
00:01.9,-0.005069733,0.002883911,0.000463486,0,
00:01.9,-0.005064011,0.002889633,0.000463486,0,
00:01.9,-0.005064011,0.002889633,0.000463486,0,
00:01.9,-0.005052567,0.002889633,0.000463486,0,
00:01.9,-0.005052567,0.002895355,0.000463486,0,
00:01.9,-0.005064011,0.002889633,0.000463486,0,
00:01.9,-0.005052567,0.002895355,0.000463486,0,
00:01.9,-0.005046844,0.002889633,0.000463486,0,
00:02.0,-0.005046844,0.002889633,0.000463486,0,
00:02.0,-0.005046844,0.002889633,0.000463486,0,
00:02.0,-0.005058289,0.002889633,0.000463486,0,
00:02.0,-0.005069733,0.002883911,0.000463486,0,
00:02.0,-0.005058289,0.002889633,0.000463486,0,
00:02.0,-0.005041122,0.002889633,0.000457764,0,
00:02.0,-0.0050354,0.002895355,0.000463486,0,
00:02.0,-0.0050354,0.002895355,0.000463486,0,
00:02.0,-0.005046844,0.002895355,0.000463486,0,
00:02.0,-0.005052567,0.002889633,0.000463486,0,
00:02.0,-0.005058289,0.002889633,0.000463486,0,
00:02.0,-0.005064011,0.002889633,0.000463486,0,
00:00:02,-0.005058289,0.002889633,0.000463486,0,
00:02.0,-0.005046844,0.002895355,0.000469208,0,
00:02.0,-0.005046844,0.002889633,0.000463486,0,
00:02.0,-0.0050354,0.002889633,0.000463486,0,
00:02.0,-0.0050354,0.002889633,0.000463486,0,
00:02.0,-0.005041122,0.002889633,0.000469208,0,
00:02.0,-0.005046844,0.002883911,0.000469208,0,
00:02.0,-0.005046844,0.002883911,0.000463486,0,
00:02.0,-0.005052567,0.002883911,0.000463486,0,
00:02.0,-0.005041122,0.002883911,0.000463486,0,
00:02.0,-0.005041122,0.002889633,0.000469208,0,
00:02.0,-0.005052567,0.002889633,0.000463486,0,
00:02.0,-0.005041122,0.002889633,0.000469208,0,
00:02.1,-0.0050354,0.002889633,0.000463486,0,
00:02.1,-0.005046844,0.002883911,0.000463486,0,
00:02.1,-0.005041122,0.002889633,0.000463486,0,
00:02.1,-0.0050354,0.002895355,0.000463486,0,
00:02.1,-0.0050354,0.002889633,0.000463486,0,
00:02.1,-0.0050354,0.002883911,0.000463486,0,
00:02.1,-0.0050354,0.002883911,0.000463486,0,
00:02.1,-0.005041122,0.002883911,0.000469208,0,
00:02.1,-0.005041122,0.002883911,0.000463486,0,
00:02.1,-0.0050354,0.002883911,0.000463486,0,
00:02.1,-0.005046844,0.002878189,0.000463486,0,
00:02.1,-0.0050354,0.002883911,0.000463486,0,
00:02.1,-0.005018234,0.002889633,0.000463486,0,
00:02.1,-0.005012512,0.002895355,0.000463486,0,
00:02.1,-0.005018234,0.002895355,0.000463486,0,
00:02.1,-0.0050354,0.002883911,0.000463486,0,
00:02.1,-0.0050354,0.002883911,0.000463486,0,
00:02.1,-0.005018234,0.002895355,0.000463486,0,
00:02.1,-0.005018234,0.002895355,0.000463486,0,
00:02.1,-0.005029678,0.002889633,0.000463486,0,
00:02.1,-0.0050354,0.002883911,0.000457764,0,
00:02.1,-0.005029678,0.002883911,0.000463486,0,
00:02.1,-0.005029678,0.002889633,0.000463486,0,
00:02.1,-0.005046844,0.002883911,0.000463486,0,
00:02.1,-0.005064011,0.002878189,0.000463486,0,
00:02.2,-0.005023956,0.002889633,0.000457764,0,
00:02.2,-0.004983902,0.002895355,0.000457764,0,
00:02.2,-0.004989624,0.002895355,0.000457764,0,
00:02.2,-0.00500679,0.002889633,0.000463486,0,
00:02.2,-0.005018234,0.002883911,0.000457764,0,
00:02.2,-0.005029678,0.002878189,0.000457764,0,
00:02.2,-0.005029678,0.002878189,0.000457764,0,
00:02.2,-0.005018234,0.002883911,0.000457764,0,
00:02.2,-0.005023956,0.002883911,0.000457764,0,
00:02.2,-0.005018234,0.002883911,0.000457764,0,
00:02.2,-0.00500679,0.002889633,0.000457764,0,
00:02.2,-0.00500679,0.002889633,0.000457764,0,
00:02.2,-0.005012512,0.002889633,0.000457764,0,
00:02.2,-0.005018234,0.002889633,0.000457764,0,
00:02.2,-0.005018234,0.002883911,0.000457764,0,
00:02.2,-0.005029678,0.002883911,0.000457764,0,
00:02.2,-0.0050354,0.002883911,0.000457764,0,
00:02.2,-0.005023956,0.002883911,0.000457764,0,
00:02.2,-0.005012512,0.002889633,0.000457764,0,
00:02.2,-0.005012512,0.002889633,0.000457764,0,
00:02.2,-0.005018234,0.002883911,0.000457764,0,
00:02.2,-0.005018234,0.002883911,0.000457764,0,
00:02.2,-0.005018234,0.002889633,0.000457764,0,
00:02.2,-0.005018234,0.002889633,0.000457764,0,
00:02.2,-0.00500679,0.002889633,0.000452042,0,
00:02.3,-0.004989624,0.002895355,0.000452042,0,
00:02.3,-0.005001068,0.002895355,0.000452042,0,
00:02.3,-0.00500679,0.002889633,0.000457764,0,
00:02.3,-0.005012512,0.002889633,0.000457764,0,
00:02.3,-0.005012512,0.002883911,0.000452042,0,
00:02.3,-0.005001068,0.002883911,0.000452042,0,
00:02.3,-0.005018234,0.002883911,0.000452042,0,
00:02.3,-0.005029678,0.002883911,0.000457764,0,
00:02.3,-0.005018234,0.002883911,0.000457764,0,
00:02.3,-0.00500679,0.002889633,0.000452042,0,
00:02.3,-0.004989624,0.002889633,0.000452042,0,
00:02.3,-0.004995346,0.002889633,0.000452042,0,
00:02.3,-0.00500679,0.002889633,0.000452042,0,
00:02.3,-0.004995346,0.002895355,0.000452042,0,
00:02.3,-0.004989624,0.002895355,0.000452042,0,
00:02.3,-0.004995346,0.002883911,0.000452042,0,
00:02.3,-0.00500679,0.002883911,0.000452042,0,
00:02.3,-0.005001068,0.002889633,0.000452042,0,
00:02.3,-0.004989624,0.002895355,0.000452042,0,
00:02.3,-0.004989624,0.002895355,0.000452042,0,
00:02.3,-0.004995346,0.002883911,0.00044632,0,
00:02.3,-0.00500679,0.002883911,0.00044632,0,
00:02.3,-0.005001068,0.002883911,0.00044632,0,
00:02.3,-0.004995346,0.002889633,0.000452042,0,
00:02.3,-0.00497818,0.002889633,0.00044632,0,
00:02.4,-0.00497818,0.002889633,0.00044632,0,
00:02.4,-0.004989624,0.002883911,0.00044632,0,
00:02.4,-0.005001068,0.002883911,0.000452042,0,
00:02.4,-0.005001068,0.002878189,0.00044632,0,
00:02.4,-0.004983902,0.002883911,0.00044632,0,
00:02.4,-0.00497818,0.002883911,0.00044632,0,
00:02.4,-0.005001068,0.002878189,0.00044632,0,
00:02.4,-0.005001068,0.002883911,0.000452042,0,
00:02.4,-0.004995346,0.002889633,0.000452042,0,
00:02.4,-0.004989624,0.002889633,0.000452042,0,
00:02.4,-0.005001068,0.002883911,0.00044632,0,
00:02.4,-0.005001068,0.002883911,0.000452042,0,
00:02.4,-0.004989624,0.002889633,0.000452042,0,
00:02.4,-0.004972458,0.002895355,0.00044632,0,
00:02.4,-0.00497818,0.002895355,0.00044632,0,
00:02.4,-0.004983902,0.002889633,0.000452042,0,
00:02.4,-0.004995346,0.002889633,0.000452042,0,
00:02.4,-0.004989624,0.002889633,0.000452042,0,
00:02.4,-0.004983902,0.002883911,0.000452042,0,
00:02.4,-0.00497818,0.002883911,0.000452042,0,
00:02.4,-0.004983902,0.002878189,0.000452042,0,
00:02.4,-0.00497818,0.002889633,0.000452042,0,
00:02.4,-0.004972458,0.002889633,0.000452042,0,
00:02.4,-0.004983902,0.002883911,0.000452042,0,
00:02.4,-0.004995346,0.002883911,0.00044632,0,
00:02.5,-0.004983902,0.002878189,0.00044632,0,
00:02.5,-0.004983902,0.002878189,0.00044632,0,
00:02.5,-0.00497818,0.002883911,0.00044632,0,
00:02.5,-0.00497818,0.002883911,0.000452042,0,
00:02.5,-0.00497818,0.002883911,0.00044632,0,
00:02.5,-0.004989624,0.002878189,0.00044632,0,
00:02.5,-0.004995346,0.002872467,0.00044632,0,
00:02.5,-0.004989624,0.002878189,0.00044632,0,
00:02.5,-0.004972458,0.002878189,0.000452042,0,
00:02.5,-0.004961014,0.002883911,0.00044632,0,
00:02.5,-0.004961014,0.002883911,0.00044632,0,
00:02.5,-0.004983902,0.002878189,0.00044632,0,
00:02.5,-0.005001068,0.002872467,0.00044632,0,
00:02.5,-0.00497818,0.002872467,0.000452042,0,
00:02.5,-0.004961014,0.002883911,0.000452042,0,
00:02.5,-0.004966736,0.002878189,0.000452042,0,
00:02.5,-0.004972458,0.002878189,0.000452042,0,
00:02.5,-0.004972458,0.002878189,0.000452042,0,
00:02.5,-0.004972458,0.002878189,0.00044632,0,
00:02.5,-0.004972458,0.002883911,0.00044632,0,
00:02.5,-0.004983902,0.002872467,0.00044632,0,
00:02.5,-0.004983902,0.002866745,0.00044632,0,
00:02.5,-0.004966736,0.002878189,0.000452042,0,
00:02.5,-0.004966736,0.002883911,0.00044632,0,
00:02.5,-0.00497818,0.002878189,0.00044632,0,
00:02.6,-0.004983902,0.002878189,0.00044632,0,
00:02.6,-0.004972458,0.002878189,0.00044632,0,
00:02.6,-0.004966736,0.002883911,0.00044632,0,
00:02.6,-0.004961014,0.002883911,0.00044632,0,
00:02.6,-0.004955292,0.002883911,0.00044632,0,
00:02.6,-0.004961014,0.002883911,0.00044632,0,
00:02.6,-0.00497818,0.002878189,0.00044632,0,
00:02.6,-0.004983902,0.002878189,0.000452042,0,
00:02.6,-0.004972458,0.002883911,0.000452042,0,
00:02.6,-0.004955292,0.002883911,0.00044632,0,
00:02.6,-0.004943848,0.002883911,0.00044632,0,
00:02.6,-0.004943848,0.002883911,0.00044632,0,
00:02.6,-0.004955292,0.002883911,0.00044632,0,
00:02.6,-0.004966736,0.002878189,0.00044632,0,
00:02.6,-0.004972458,0.002878189,0.00044632,0,
00:02.6,-0.004961014,0.002878189,0.00044632,0,
00:02.6,-0.00494957,0.002883911,0.00044632,0,
00:02.6,-0.004961014,0.002883911,0.00044632,0,
00:02.6,-0.004961014,0.002883911,0.000452042,0,
00:02.6,-0.004972458,0.002878189,0.000452042,0,
00:02.6,-0.004972458,0.002878189,0.00044632,0,
00:02.6,-0.004955292,0.002883911,0.000452042,0,
00:02.6,-0.00494957,0.002883911,0.000452042,0,
00:02.6,-0.004955292,0.002883911,0.000452042,0,
00:02.6,-0.004943848,0.002883911,0.00044632,0,
00:02.7,-0.004943848,0.002883911,0.00044632,0,
00:02.7,-0.004955292,0.002883911,0.00044632,0,
00:02.7,-0.004961014,0.002883911,0.00044632,0,
00:02.7,-0.004966736,0.002883911,0.00044632,0,
00:02.7,-0.004966736,0.002878189,0.00044632,0,
00:02.7,-0.00494957,0.002878189,0.00044632,0,
00:02.7,-0.00494957,0.002878189,0.00044632,0,
00:02.7,-0.00494957,0.002878189,0.00044632,0,
00:02.7,-0.004943848,0.002883911,0.00044632,0,
00:02.7,-0.00494957,0.002883911,0.00044632,0,
00:02.7,-0.00494957,0.002883911,0.00044632,0,
00:02.7,-0.00494957,0.002883911,0.000452042,0,
00:02.7,-0.00494957,0.002889633,0.000452042,0,
00:02.7,-0.00494957,0.002883911,0.00044632,0,
00:02.7,-0.004955292,0.002878189,0.00044632,0,
00:02.7,-0.00494957,0.002878189,0.00044632,0,
00:02.7,-0.00494957,0.002878189,0.00044632,0,
00:02.7,-0.004955292,0.002878189,0.000452042,0,
00:02.7,-0.004932404,0.002883911,0.000452042,0,
00:02.7,-0.004932404,0.002883911,0.000452042,0,
00:02.7,-0.004932404,0.002883911,0.00044632,0,
00:02.7,-0.004938126,0.002883911,0.000452042,0,
00:02.7,-0.004955292,0.002878189,0.00044632,0,
00:02.7,-0.004955292,0.002878189,0.00044632,0,
00:02.7,-0.004938126,0.002883911,0.00044632,0,
00:02.8,-0.004938126,0.002883911,0.00044632,0,
00:02.8,-0.004943848,0.002883911,0.00044632,0,
00:02.8,-0.004943848,0.002883911,0.00044632,0,
00:02.8,-0.004926682,0.002883911,0.00044632,0,
00:02.8,-0.004926682,0.002883911,0.00044632,0,
00:02.8,-0.004938126,0.002878189,0.000440598,0,
00:02.8,-0.00494957,0.002872467,0.000440598,0,
00:02.8,-0.004955292,0.002872467,0.00044632,0,
00:02.8,-0.004955292,0.002872467,0.00044632,0,
00:02.8,-0.004938126,0.002878189,0.000440598,0,
00:02.8,-0.004938126,0.002878189,0.000440598,0,
00:02.8,-0.004938126,0.002878189,0.000440598,0,
00:02.8,-0.004943848,0.002878189,0.00044632,0,
00:02.8,-0.004938126,0.002878189,0.00044632,0,
00:02.8,-0.004938126,0.002878189,0.000440598,0,
00:02.8,-0.004943848,0.002872467,0.000440598,0,
00:02.8,-0.004932404,0.002878189,0.00044632,0,
00:02.8,-0.004938126,0.002878189,0.00044632,0,
00:02.8,-0.004932404,0.002878189,0.00044632,0,
00:02.8,-0.004926682,0.002878189,0.00044632,0,
00:02.8,-0.004926682,0.002878189,0.000440598,0,
00:02.8,-0.004932404,0.002878189,0.00044632,0,
00:02.8,-0.004938126,0.002878189,0.00044632,0,
00:02.8,-0.004926682,0.002878189,0.00044632,0,
00:02.8,-0.004932404,0.002878189,0.00044632,0,
00:02.9,-0.00494957,0.002872467,0.000440598,0,
00:02.9,-0.004938126,0.002872467,0.000440598,0,
00:02.9,-0.004943848,0.002872467,0.00044632,0,
00:02.9,-0.004938126,0.002883911,0.00044632,0,
00:02.9,-0.004926682,0.002883911,0.00044632,0,
00:02.9,-0.004926682,0.002872467,0.00044632,0,
00:02.9,-0.004926682,0.002872467,0.00044632,0,
00:02.9,-0.004915237,0.002883911,0.00044632,0,
00:02.9,-0.004926682,0.002878189,0.00044632,0,
00:02.9,-0.004920959,0.002878189,0.00044632,0,
00:02.9,-0.004920959,0.002878189,0.00044632,0,
00:02.9,-0.004932404,0.002872467,0.00044632,0,
00:02.9,-0.00494957,0.002872467,0.00044632,0,
00:02.9,-0.004961014,0.002866745,0.00044632,0,
00:02.9,-0.004932404,0.002878189,0.00044632,0,
00:02.9,-0.004898071,0.002883911,0.00044632,0,
00:02.9,-0.004903793,0.002883911,0.00044632,0,
00:02.9,-0.004915237,0.002883911,0.00044632,0,
00:02.9,-0.004926682,0.002883911,0.00044632,0,
00:02.9,-0.004926682,0.002878189,0.000440598,0,
00:02.9,-0.004932404,0.002866745,0.00044632,0,
00:02.9,-0.004926682,0.002872467,0.00044632,0,
00:02.9,-0.004920959,0.002872467,0.00044632,0,
00:02.9,-0.004926682,0.002878189,0.00044632,0,
00:02.9,-0.004915237,0.002878189,0.00044632,0,
00:03.0,-0.004909515,0.002878189,0.000440598,0,
00:03.0,-0.004909515,0.002872467,0.00044632,0,
00:03.0,-0.004920959,0.002872467,0.00044632,0,
00:03.0,-0.004915237,0.002878189,0.00044632,0,
00:03.0,-0.004909515,0.002878189,0.00044632,0,
00:03.0,-0.004920959,0.002872467,0.00044632,0,
00:03.0,-0.004909515,0.002872467,0.000440598,0,
00:03.0,-0.004909515,0.002878189,0.000440598,0,
00:03.0,-0.004909515,0.002878189,0.000440598,0,
00:03.0,-0.004909515,0.002878189,0.000440598,0,
00:03.0,-0.004903793,0.002872467,0.000440598,0,
00:03.0,-0.004909515,0.002872467,0.000440598,0,
00:00:03,-0.004909515,0.002872467,0.000440598,0,
00:03.0,-0.004903793,0.002878189,0.000440598,0,
00:03.0,-0.004903793,0.002872467,0.000440598,0,
00:03.0,-0.004920959,0.002866745,0.000440598,0,
00:03.0,-0.004909515,0.002866745,0.000440598,0,
00:03.0,-0.004903793,0.002878189,0.000440598,0,
00:03.0,-0.004909515,0.002878189,0.000440598,0,
00:03.0,-0.004920959,0.002872467,0.000440598,0,
00:03.0,-0.004915237,0.002872467,0.000440598,0,
00:03.0,-0.004909515,0.002872467,0.000440598,0,
00:03.0,-0.004909515,0.002872467,0.00044632,0,
00:03.0,-0.004903793,0.002872467,0.00044632,0,
00:03.0,-0.004926682,0.002866745,0.00044632,0,
00:03.1,-0.004932404,0.002866745,0.000440598,0,
00:03.1,-0.004903793,0.002872467,0.000440598,0,
00:03.1,-0.004886627,0.002883911,0.00044632,0,
00:03.1,-0.004875183,0.002883911,0.00044632,0,
00:03.1,-0.004892349,0.002878189,0.00044632,0,
00:03.1,-0.004898071,0.002872467,0.000440598,0,
00:03.1,-0.004898071,0.002872467,0.000440598,0,
00:03.1,-0.004892349,0.002878189,0.00044632,0,
00:03.1,-0.004892349,0.002878189,0.00044632,0,
00:03.1,-0.004892349,0.002878189,0.00044632,0,
00:03.1,-0.004903793,0.002866745,0.00044632,0,
00:03.1,-0.004909515,0.002866745,0.00044632,0,
00:03.1,-0.004903793,0.002872467,0.00044632,0,
00:03.1,-0.004903793,0.002872467,0.00044632,0,
00:03.1,-0.004898071,0.002872467,0.000440598,0,
00:03.1,-0.004909515,0.002866745,0.000440598,0,
00:03.1,-0.004903793,0.002866745,0.00044632,0,
00:03.1,-0.004898071,0.002872467,0.00044632,0,
00:03.1,-0.004892349,0.002878189,0.00044632,0,
00:03.1,-0.004892349,0.002878189,0.000440598,0,
00:03.1,-0.004886627,0.002872467,0.000440598,0,
00:03.1,-0.004875183,0.002878189,0.000440598,0,
00:03.1,-0.004886627,0.002878189,0.000440598,0,
00:03.1,-0.004892349,0.002872467,0.00044632,0,
00:03.1,-0.004892349,0.002872467,0.000440598,0,
00:03.2,-0.004880905,0.002872467,0.00044632,0,
00:03.2,-0.004880905,0.002878189,0.00044632,0,
00:03.2,-0.004886627,0.002878189,0.00044632,0,
00:03.2,-0.004892349,0.002878189,0.00044632,0,
00:03.2,-0.004903793,0.002872467,0.000440598,0,
00:03.2,-0.004903793,0.002872467,0.00044632,0,
00:03.2,-0.004886627,0.002872467,0.00044632,0,
00:03.2,-0.004880905,0.002878189,0.00044632,0,
00:03.2,-0.004875183,0.002878189,0.00044632,0,
00:03.2,-0.004892349,0.002872467,0.00044632,0,
00:03.2,-0.004898071,0.002866745,0.000440598,0,
00:03.2,-0.004880905,0.002872467,0.00044632,0,
00:03.2,-0.004886627,0.002872467,0.00044632,0,
00:03.2,-0.004898071,0.002872467,0.00044632,0,
00:03.2,-0.004892349,0.002872467,0.000440598,0,
00:03.2,-0.004875183,0.002872467,0.000440598,0,
00:03.2,-0.004875183,0.002872467,0.000440598,0,
00:03.2,-0.004880905,0.002878189,0.000440598,0,
00:03.2,-0.004892349,0.002878189,0.00044632,0,
00:03.2,-0.004892349,0.002878189,0.00044632,0,
00:03.2,-0.004863739,0.002878189,0.00044632,0,
00:03.2,-0.004863739,0.002883911,0.00044632,0,
00:03.2,-0.004875183,0.002878189,0.00044632,0,
00:03.2,-0.004880905,0.002878189,0.00044632,0,
00:03.2,-0.004886627,0.002878189,0.00044632,0,
00:03.3,-0.004880905,0.002872467,0.00044632,0,
00:03.3,-0.004875183,0.002872467,0.00044632,0,
00:03.3,-0.004886627,0.002866745,0.00044632,0,
00:03.3,-0.004880905,0.002872467,0.00044632,0,
00:03.3,-0.004863739,0.002878189,0.00044632,0,
00:03.3,-0.004875183,0.002878189,0.000440598,0,
00:03.3,-0.004903793,0.002872467,0.00044632,0,
00:03.3,-0.004915237,0.002866745,0.00044632,0,
00:03.3,-0.004869461,0.002872467,0.00044632,0,
00:03.3,-0.004858017,0.002878189,0.00044632,0,
00:03.3,-0.004869461,0.002872467,0.00044632,0,
00:03.3,-0.004869461,0.002872467,0.00044632,0,
00:03.3,-0.004892349,0.002866745,0.00044632,0,
00:03.3,-0.004892349,0.002861023,0.000440598,0,
00:03.3,-0.004858017,0.002878189,0.000440598,0,
00:03.3,-0.004840851,0.002883911,0.000440598,0,
00:03.3,-0.004858017,0.002872467,0.00044632,0,
00:03.3,-0.004875183,0.002872467,0.00044632,0,
00:03.3,-0.004875183,0.002872467,0.00044632,0,
00:03.3,-0.004880905,0.002866745,0.00044632,0,
00:03.3,-0.004886627,0.002861023,0.00044632,0,
00:03.3,-0.004869461,0.002866745,0.00044632,0,
00:03.3,-0.004852295,0.002878189,0.00044632,0,
00:03.3,-0.004863739,0.002872467,0.00044632,0,
00:03.3,-0.004875183,0.002866745,0.00044632,0,
00:03.4,-0.004869461,0.002866745,0.00044632,0,
00:03.4,-0.004863739,0.002866745,0.00044632,0,
00:03.4,-0.004869461,0.002866745,0.00044632,0,
00:03.4,-0.004858017,0.002872467,0.00044632,0,
00:03.4,-0.004840851,0.002878189,0.00044632,0,
00:03.4,-0.004858017,0.002872467,0.000440598,0,
00:03.4,-0.004863739,0.002866745,0.000440598,0,
00:03.4,-0.004863739,0.002872467,0.00044632,0,
00:03.4,-0.004869461,0.002866745,0.00044632,0,
00:03.4,-0.004869461,0.002866745,0.00044632,0,
00:03.4,-0.004886627,0.002861023,0.00044632,0,
00:03.4,-0.004886627,0.002861023,0.00044632,0,
00:03.4,-0.004840851,0.002878189,0.00044632,0,
00:03.4,-0.004835129,0.002883911,0.00044632,0,
00:03.4,-0.004858017,0.002872467,0.00044632,0,
00:03.4,-0.004869461,0.002866745,0.00044632,0,
00:03.4,-0.004880905,0.002866745,0.00044632,0,
00:03.4,-0.004863739,0.002866745,0.00044632,0,
00:03.4,-0.004846573,0.002872467,0.00044632,0,
00:03.4,-0.004846573,0.002878189,0.00044632,0,
00:03.4,-0.004852295,0.002872467,0.00044632,0,
00:03.4,-0.004858017,0.002866745,0.00044632,0,
00:03.4,-0.004846573,0.002872467,0.000440598,0,
00:03.4,-0.004846573,0.002878189,0.00044632,0,
00:03.4,-0.004858017,0.002872467,0.000440598,0,
00:03.5,-0.004852295,0.002872467,0.000440598,0,
00:03.5,-0.004846573,0.002872467,0.000440598,0,
00:03.5,-0.004852295,0.002872467,0.000440598,0,
00:03.5,-0.004858017,0.002872467,0.00044632,0,
00:03.5,-0.004863739,0.002866745,0.000440598,0,
00:03.5,-0.004858017,0.002866745,0.000440598,0,
00:03.5,-0.004869461,0.002861023,0.00044632,0,
00:03.5,-0.004875183,0.002861023,0.00044632,0,
00:03.5,-0.004852295,0.002866745,0.00044632,0,
00:03.5,-0.004852295,0.002866745,0.00044632,0,
00:03.5,-0.004835129,0.002866745,0.00044632,0,
00:03.5,-0.004852295,0.002866745,0.00044632,0,
00:03.5,-0.004869461,0.002861023,0.00044632,0,
00:03.5,-0.004858017,0.002861023,0.00044632,0,
00:03.5,-0.004835129,0.002872467,0.00044632,0,
00:03.5,-0.004829407,0.002872467,0.00044632,0,
00:03.5,-0.004840851,0.002866745,0.00044632,0,
00:03.5,-0.004852295,0.002866745,0.00044632,0,
00:03.5,-0.004852295,0.002872467,0.000440598,0,
00:03.5,-0.004840851,0.002872467,0.000440598,0,
00:03.5,-0.004846573,0.002866745,0.000440598,0,
00:03.5,-0.004846573,0.002866745,0.000440598,0,
00:03.5,-0.004840851,0.002872467,0.000440598,0,
00:03.5,-0.004840851,0.002872467,0.000440598,0,
00:03.5,-0.004846573,0.002866745,0.000440598,0,
00:03.6,-0.004852295,0.002866745,0.000440598,0,
00:03.6,-0.004863739,0.002861023,0.00044632,0,
00:03.6,-0.004869461,0.002861023,0.000440598,0,
00:03.6,-0.004852295,0.002861023,0.000440598,0,
00:03.6,-0.004840851,0.002866745,0.000440598,0,
00:03.6,-0.004817963,0.002872467,0.000440598,0,
00:03.6,-0.004823685,0.002872467,0.00044632,0,
00:03.6,-0.004846573,0.002866745,0.00044632,0,
00:03.6,-0.004858017,0.002861023,0.00044632,0,
00:03.6,-0.004863739,0.002855301,0.00044632,0,
00:03.6,-0.004852295,0.002855301,0.00044632,0,
00:03.6,-0.004823685,0.002872467,0.00044632,0,
00:03.6,-0.004829407,0.002872467,0.00044632,0,
00:03.6,-0.004840851,0.002866745,0.00044632,0,
00:03.6,-0.004840851,0.002866745,0.00044632,0,
00:03.6,-0.004835129,0.002866745,0.00044632,0,
00:03.6,-0.004835129,0.002866745,0.00044632,0,
00:03.6,-0.004846573,0.002866745,0.00044632,0,
00:03.6,-0.004840851,0.002866745,0.00044632,0,
00:03.6,-0.004835129,0.002866745,0.000440598,0,
00:03.6,-0.004829407,0.002866745,0.00044632,0,
00:03.6,-0.004835129,0.002866745,0.00044632,0,
00:03.6,-0.004840851,0.002866745,0.00044632,0,
00:03.6,-0.004835129,0.002866745,0.00044632,0,
00:03.6,-0.004829407,0.002866745,0.00044632,0,
00:03.7,-0.004840851,0.002861023,0.000440598,0,
00:03.7,-0.004858017,0.002855301,0.00044632,0,
00:03.7,-0.004863739,0.002855301,0.00044632,0,
00:03.7,-0.004858017,0.002861023,0.00044632,0,
00:03.7,-0.004812241,0.002866745,0.00044632,0,
00:03.7,-0.004800797,0.002866745,0.000440598,0,
00:03.7,-0.004806519,0.002866745,0.000440598,0,
00:03.7,-0.004817963,0.002866745,0.000440598,0,
00:03.7,-0.004823685,0.002861023,0.00044632,0,
00:03.7,-0.004823685,0.002861023,0.00044632,0,
00:03.7,-0.004817963,0.002861023,0.000440598,0,
00:03.7,-0.004829407,0.002861023,0.000440598,0,
00:03.7,-0.004829407,0.002861023,0.00044632,0,
00:03.7,-0.004829407,0.002866745,0.00044632,0,
00:03.7,-0.004835129,0.002861023,0.000440598,0,
00:03.7,-0.004846573,0.002855301,0.000440598,0,
00:03.7,-0.004858017,0.002849579,0.000440598,0,
00:03.7,-0.004852295,0.002849579,0.00044632,0,
00:03.7,-0.004840851,0.002855301,0.00044632,0,
00:03.7,-0.004823685,0.002866745,0.000440598,0,
00:03.7,-0.004800797,0.002866745,0.000440598,0,
00:03.7,-0.004812241,0.002866745,0.00044632,0,
00:03.7,-0.004800797,0.002872467,0.00044632,0,
00:03.7,-0.004800797,0.002866745,0.00044632,0,
00:03.7,-0.004806519,0.002866745,0.00044632,0,
00:03.8,-0.004812241,0.002861023,0.00044632,0,
00:03.8,-0.004812241,0.002861023,0.00044632,0,
00:03.8,-0.004823685,0.002861023,0.00044632,0,
00:03.8,-0.004829407,0.002861023,0.00044632,0,
00:03.8,-0.004817963,0.002861023,0.00044632,0,
00:03.8,-0.004812241,0.002861023,0.00044632,0,
00:03.8,-0.004823685,0.002861023,0.00044632,0,
00:03.8,-0.004846573,0.002855301,0.00044632,0,
00:03.8,-0.004852295,0.002849579,0.00044632,0,
00:03.8,-0.004835129,0.002855301,0.00044632,0,
00:03.8,-0.004806519,0.002866745,0.00044632,0,
00:03.8,-0.004806519,0.002866745,0.00044632,0,
00:03.8,-0.004812241,0.002866745,0.00044632,0,
00:03.8,-0.004812241,0.002866745,0.00044632,0,
00:03.8,-0.004806519,0.002861023,0.00044632,0,
00:03.8,-0.004806519,0.002866745,0.00044632,0,
00:03.8,-0.004806519,0.002866745,0.00044632,0,
00:03.8,-0.004806519,0.002866745,0.00044632,0,
00:03.8,-0.004817963,0.002861023,0.00044632,0,
00:03.8,-0.004812241,0.002861023,0.00044632,0,
00:03.8,-0.004800797,0.002866745,0.00044632,0,
00:03.8,-0.004806519,0.002866745,0.00044632,0,
00:03.8,-0.004812241,0.002861023,0.00044632,0,
00:03.8,-0.004823685,0.002861023,0.00044632,0,
00:03.8,-0.004817963,0.002855301,0.00044632,0,
00:03.9,-0.004795074,0.002861023,0.00044632,0,
00:03.9,-0.004800797,0.002861023,0.00044632,0,
00:03.9,-0.004817963,0.002861023,0.00044632,0,
00:03.9,-0.004817963,0.002855301,0.00044632,0,
00:03.9,-0.004800797,0.002861023,0.00044632,0,
00:03.9,-0.004806519,0.002861023,0.00044632,0,
00:03.9,-0.004812241,0.002861023,0.00044632,0,
00:03.9,-0.004823685,0.002855301,0.00044632,0,
00:03.9,-0.004840851,0.002849579,0.00044632,0,
00:03.9,-0.004823685,0.002855301,0.00044632,0,
00:03.9,-0.00478363,0.002861023,0.00044632,0,
00:03.9,-0.004772186,0.002866745,0.00044632,0,
00:03.9,-0.00478363,0.002866745,0.00044632,0,
00:03.9,-0.004800797,0.002861023,0.00044632,0,
00:03.9,-0.004806519,0.002855301,0.00044632,0,
00:03.9,-0.004812241,0.002855301,0.00044632,0,
00:03.9,-0.004800797,0.002855301,0.00044632,0,
00:03.9,-0.004795074,0.002861023,0.00044632,0,
00:03.9,-0.004795074,0.002861023,0.00044632,0,
00:03.9,-0.004795074,0.002861023,0.00044632,0,
00:03.9,-0.004795074,0.002855301,0.000440598,0,
00:03.9,-0.004806519,0.002861023,0.00044632,0,
00:03.9,-0.004806519,0.002855301,0.00044632,0,
00:03.9,-0.004789352,0.002861023,0.00044632,0,
00:03.9,-0.004806519,0.002861023,0.00044632,0,
00:04.0,-0.004817963,0.002849579,0.00044632,0,
00:04.0,-0.004806519,0.002849579,0.00044632,0,
00:04.0,-0.004789352,0.002861023,0.00044632,0,
00:04.0,-0.004800797,0.002861023,0.00044632,0,
00:04.0,-0.004789352,0.002866745,0.00044632,0,
00:04.0,-0.004777908,0.002861023,0.00044632,0,
00:04.0,-0.004789352,0.002861023,0.00044632,0,
00:04.0,-0.004795074,0.002861023,0.00044632,0,
00:04.0,-0.004795074,0.002855301,0.00044632,0,
00:04.0,-0.004800797,0.002855301,0.00044632,0,
00:04.0,-0.004806519,0.002849579,0.00044632,0,
00:04.0,-0.004789352,0.002855301,0.00044632,0,
00:00:04,-0.004795074,0.002855301,0.00044632,0,
00:04.0,-0.004795074,0.002855301,0.00044632,0,
00:04.0,-0.004789352,0.002855301,0.00044632,0,
00:04.0,-0.00478363,0.002855301,0.00044632,0,
00:04.0,-0.00478363,0.002855301,0.00044632,0,
00:04.0,-0.004777908,0.002861023,0.00044632,0,
00:04.0,-0.004777908,0.002861023,0.000452042,0,
00:04.0,-0.004806519,0.002849579,0.00044632,0,
00:04.0,-0.004840851,0.002838135,0.00044632,0,
00:04.0,-0.004829407,0.002843857,0.00044632,0,
00:04.0,-0.004777908,0.002861023,0.000452042,0,
00:04.0,-0.004737854,0.002866745,0.00044632,0,
00:04.0,-0.004749298,0.002866745,0.000452042,0,
00:04.1,-0.004766464,0.002855301,0.00044632,0,
00:04.1,-0.00478363,0.002849579,0.000452042,0,
00:04.1,-0.004795074,0.002849579,0.000452042,0,
00:04.1,-0.004795074,0.002849579,0.000452042,0,
00:04.1,-0.004777908,0.002849579,0.00044632,0,
00:04.1,-0.004760742,0.002855301,0.00044632,0,
00:04.1,-0.004760742,0.002861023,0.00044632,0,
00:04.1,-0.004772186,0.002861023,0.00044632,0,
00:04.1,-0.00478363,0.002855301,0.00044632,0,
00:04.1,-0.00478363,0.002849579,0.000452042,0,
00:04.1,-0.00478363,0.002849579,0.000452042,0,
00:04.1,-0.004777908,0.002855301,0.000452042,0,
00:04.1,-0.004772186,0.002855301,0.000452042,0,
00:04.1,-0.004772186,0.002855301,0.000452042,0,
00:04.1,-0.004772186,0.002855301,0.000452042,0,
00:04.1,-0.004777908,0.002849579,0.00044632,0,
00:04.1,-0.004766464,0.002855301,0.00044632,0,
00:04.1,-0.00478363,0.002849579,0.000452042,0,
00:04.1,-0.00478363,0.002849579,0.000452042,0,
00:04.1,-0.004766464,0.002855301,0.000452042,0,
00:04.1,-0.004766464,0.002855301,0.000452042,0,
00:04.1,-0.004772186,0.002855301,0.000452042,0,
00:04.1,-0.004777908,0.002855301,0.000452042,0,
00:04.1,-0.00478363,0.002855301,0.000452042,0,
00:04.1,-0.004772186,0.002855301,0.000452042,0,
00:04.2,-0.004772186,0.002849579,0.000452042,0,
00:04.2,-0.004772186,0.002855301,0.000452042,0,
00:04.2,-0.004777908,0.002849579,0.000452042,0,
00:04.2,-0.004760742,0.002855301,0.000452042,0,
00:04.2,-0.004749298,0.002855301,0.000452042,0,
00:04.2,-0.004760742,0.002855301,0.000452042,0,
00:04.2,-0.004760742,0.002855301,0.000452042,0,
00:04.2,-0.004772186,0.002849579,0.000452042,0,
00:04.2,-0.004772186,0.002849579,0.000452042,0,
00:04.2,-0.004777908,0.002849579,0.000452042,0,
00:04.2,-0.004777908,0.002843857,0.000452042,0,
00:04.2,-0.004760742,0.002849579,0.000457764,0,
00:04.2,-0.004760742,0.002855301,0.000457764,0,
00:04.2,-0.004766464,0.002855301,0.000452042,0,
00:04.2,-0.004749298,0.002855301,0.000452042,0,
00:04.2,-0.004760742,0.002849579,0.000452042,0,
00:04.2,-0.004760742,0.002855301,0.000452042,0,
00:04.2,-0.00475502,0.002861023,0.000452042,0,
00:04.2,-0.004772186,0.002855301,0.000452042,0,
00:04.2,-0.004789352,0.002843857,0.000452042,0,
00:04.2,-0.00478363,0.002843857,0.000452042,0,
00:04.2,-0.004772186,0.002855301,0.000452042,0,
00:04.2,-0.00475502,0.002861023,0.000457764,0,
00:04.2,-0.004743576,0.002855301,0.000457764,0,
00:04.2,-0.004760742,0.002855301,0.000452042,0,
00:04.3,-0.004766464,0.002843857,0.000452042,0,
00:04.3,-0.004749298,0.002849579,0.000452042,0,
00:04.3,-0.004743576,0.002861023,0.000457764,0,
00:04.3,-0.00475502,0.002861023,0.000452042,0,
00:04.3,-0.004766464,0.002849579,0.000452042,0,
00:04.3,-0.004743576,0.002855301,0.000457764,0,
00:04.3,-0.004743576,0.002855301,0.000457764,0,
00:04.3,-0.00475502,0.002855301,0.000457764,0,
00:04.3,-0.004766464,0.002849579,0.000457764,0,
00:04.3,-0.004760742,0.002849579,0.000452042,0,
00:04.3,-0.00475502,0.002849579,0.000457764,0,
00:04.3,-0.00475502,0.002849579,0.000457764,0,
00:04.3,-0.00475502,0.002855301,0.000452042,0,
00:04.3,-0.004749298,0.002861023,0.000457764,0,
00:04.3,-0.004743576,0.002855301,0.000457764,0,
00:04.3,-0.004766464,0.002849579,0.000452042,0,
00:04.3,-0.004777908,0.002849579,0.000457764,0,
00:04.3,-0.004760742,0.002849579,0.000457764,0,
00:04.3,-0.004732132,0.002855301,0.000457764,0,
00:04.3,-0.00472641,0.002861023,0.000457764,0,
00:04.3,-0.00472641,0.002861023,0.000457764,0,
00:04.3,-0.004737854,0.002855301,0.000457764,0,
00:04.3,-0.00475502,0.002855301,0.000457764,0,
00:04.3,-0.00475502,0.002855301,0.000457764,0,
00:04.3,-0.004749298,0.002855301,0.000457764,0,
00:04.4,-0.004743576,0.002855301,0.000457764,0,
00:04.4,-0.004749298,0.002855301,0.000457764,0,
00:04.4,-0.00475502,0.002855301,0.000457764,0,
00:04.4,-0.004766464,0.002855301,0.000457764,0,
00:04.4,-0.004743576,0.002855301,0.000457764,0,
00:04.4,-0.004737854,0.002855301,0.000457764,0,
00:04.4,-0.004749298,0.002855301,0.000457764,0,
00:04.4,-0.004743576,0.002855301,0.000457764,0,
00:04.4,-0.004743576,0.002855301,0.000457764,0,
00:04.4,-0.00475502,0.002849579,0.000457764,0,
00:04.4,-0.00475502,0.002849579,0.000457764,0,
00:04.4,-0.004743576,0.002855301,0.000457764,0,
00:04.4,-0.004749298,0.002855301,0.000457764,0,
00:04.4,-0.00475502,0.002849579,0.000463486,0,
00:04.4,-0.004749298,0.002849579,0.000457764,0,
00:04.4,-0.00472641,0.002855301,0.000457764,0,
00:04.4,-0.004737854,0.002855301,0.000457764,0,
00:04.4,-0.004766464,0.002849579,0.000457764,0,
00:04.4,-0.004760742,0.002849579,0.000457764,0,
00:04.4,-0.004743576,0.002855301,0.000457764,0,
00:04.4,-0.004737854,0.002855301,0.000457764,0,
00:04.4,-0.004732132,0.002849579,0.000457764,0,
00:04.4,-0.004720688,0.002855301,0.000457764,0,
00:04.4,-0.00472641,0.002855301,0.000463486,0,
00:04.4,-0.004743576,0.002849579,0.000463486,0,
00:04.5,-0.004749298,0.002838135,0.000457764,0,
00:04.5,-0.00472641,0.002849579,0.000457764,0,
00:04.5,-0.004720688,0.002855301,0.000457764,0,
00:04.5,-0.00472641,0.002855301,0.000457764,0,
00:04.5,-0.004720688,0.002849579,0.000457764,0,
00:04.5,-0.004732132,0.002849579,0.000457764,0,
00:04.5,-0.004743576,0.002843857,0.000457764,0,
00:04.5,-0.004749298,0.002843857,0.000457764,0,
00:04.5,-0.004743576,0.002843857,0.000463486,0,
00:04.5,-0.004714966,0.002849579,0.000457764,0,
00:04.5,-0.004709244,0.002855301,0.000457764,0,
00:04.5,-0.004720688,0.002849579,0.000463486,0,
00:04.5,-0.00472641,0.002855301,0.000463486,0,
00:04.5,-0.004737854,0.002849579,0.000463486,0,
00:04.5,-0.004760742,0.002843857,0.000463486,0,
00:04.5,-0.004766464,0.002838135,0.000457764,0,
00:04.5,-0.004743576,0.002843857,0.000463486,0,
00:04.5,-0.004709244,0.002855301,0.000463486,0,
00:04.5,-0.004703522,0.002855301,0.000463486,0,
00:04.5,-0.004714966,0.002849579,0.000463486,0,
00:04.5,-0.004714966,0.002849579,0.000463486,0,
00:04.5,-0.004714966,0.002849579,0.000463486,0,
00:04.5,-0.004720688,0.002849579,0.000463486,0,
00:04.5,-0.004720688,0.002849579,0.000463486,0,
00:04.5,-0.004720688,0.002849579,0.000457764,0,
00:04.6,-0.00472641,0.002849579,0.000457764,0,
00:04.6,-0.00472641,0.002849579,0.000463486,0,
00:04.6,-0.004732132,0.002849579,0.000463486,0,
00:04.6,-0.004732132,0.002849579,0.000463486,0,
00:04.6,-0.004732132,0.002849579,0.000457764,0,
00:04.6,-0.00472641,0.002843857,0.000463486,0,
00:04.6,-0.00472641,0.002843857,0.000463486,0,
00:04.6,-0.004709244,0.002849579,0.000463486,0,
00:04.6,-0.004714966,0.002855301,0.000463486,0,
00:04.6,-0.004732132,0.002843857,0.000457764,0,
00:04.6,-0.004737854,0.002843857,0.000457764,0,
00:04.6,-0.004732132,0.002843857,0.000463486,0,
00:04.6,-0.00472641,0.002849579,0.000463486,0,
00:04.6,-0.004732132,0.002843857,0.000463486,0,
00:04.6,-0.004732132,0.002838135,0.000463486,0,
00:04.6,-0.004709244,0.002843857,0.000463486,0,
00:04.6,-0.004703522,0.002849579,0.000463486,0,
00:04.6,-0.004714966,0.002849579,0.000463486,0,
00:04.6,-0.004703522,0.002849579,0.000463486,0,
00:04.6,-0.004709244,0.002849579,0.000463486,0,
00:04.6,-0.004709244,0.002849579,0.000463486,0,
00:04.6,-0.004714966,0.002843857,0.000463486,0,
00:04.6,-0.00472641,0.002843857,0.000463486,0,
00:04.6,-0.004714966,0.002849579,0.000463486,0,
00:04.6,-0.0046978,0.002849579,0.000463486,0,
00:04.7,-0.004692078,0.002849579,0.000463486,0,
00:04.7,-0.004714966,0.002843857,0.000463486,0,
00:04.7,-0.004737854,0.002838135,0.000463486,0,
00:04.7,-0.00472641,0.002843857,0.000463486,0,
00:04.7,-0.004709244,0.002849579,0.000463486,0,
00:04.7,-0.004714966,0.002843857,0.000463486,0,
00:04.7,-0.004720688,0.002843857,0.000463486,0,
00:04.7,-0.004720688,0.002843857,0.000463486,0,
00:04.7,-0.004714966,0.002838135,0.000463486,0,
00:04.7,-0.004703522,0.002843857,0.000463486,0,
00:04.7,-0.004709244,0.002843857,0.000463486,0,
00:04.7,-0.004714966,0.002843857,0.000457764,0,
00:04.7,-0.004709244,0.002843857,0.000463486,0,
00:04.7,-0.004709244,0.002849579,0.000463486,0,
00:04.7,-0.004714966,0.002843857,0.000463486,0,
00:04.7,-0.004703522,0.002838135,0.000463486,0,
00:04.7,-0.004703522,0.002838135,0.000463486,0,
00:04.7,-0.004703522,0.002843857,0.000463486,0,
00:04.7,-0.0046978,0.002849579,0.000463486,0,
00:04.7,-0.004703522,0.002843857,0.000463486,0,
00:04.7,-0.004714966,0.002838135,0.000463486,0,
00:04.7,-0.004703522,0.002843857,0.000463486,0,
00:04.7,-0.004692078,0.002843857,0.000463486,0,
00:04.7,-0.004703522,0.002843857,0.000463486,0,
00:04.7,-0.004709244,0.002843857,0.000463486,0,
00:04.8,-0.004714966,0.002843857,0.000463486,0,
00:04.8,-0.004714966,0.002838135,0.000463486,0,
00:04.8,-0.0046978,0.002843857,0.000463486,0,
00:04.8,-0.004692078,0.002849579,0.000463486,0,
00:04.8,-0.0046978,0.002843857,0.000463486,0,
00:04.8,-0.004709244,0.002843857,0.000463486,0,
00:04.8,-0.004692078,0.002843857,0.000463486,0,
00:04.8,-0.0046978,0.002849579,0.000463486,0,
00:04.8,-0.004714966,0.002843857,0.000463486,0,
00:04.8,-0.004720688,0.002843857,0.000457764,0,
00:04.8,-0.0046978,0.002849579,0.000457764,0,
00:04.8,-0.004692078,0.002849579,0.000457764,0,
00:04.8,-0.004686356,0.002855301,0.000463486,0,
00:04.8,-0.004686356,0.002855301,0.000463486,0,
00:04.8,-0.0046978,0.002849579,0.000463486,0,
00:04.8,-0.004692078,0.002843857,0.000457764,0,
00:04.8,-0.004692078,0.002843857,0.000457764,0,
00:04.8,-0.0046978,0.002843857,0.000463486,0,
00:04.8,-0.0046978,0.002843857,0.000457764,0,
00:04.8,-0.004686356,0.002843857,0.000457764,0,
00:04.8,-0.004680634,0.002843857,0.000457764,0,
00:04.8,-0.0046978,0.002838135,0.000457764,0,
00:04.8,-0.004703522,0.002843857,0.000457764,0,
00:04.8,-0.004692078,0.002843857,0.000457764,0,
00:04.8,-0.004686356,0.002843857,0.000457764,0,
00:04.9,-0.004692078,0.002838135,0.000457764,0,
00:04.9,-0.004692078,0.002838135,0.000457764,0,
00:04.9,-0.004692078,0.002843857,0.000457764,0,
00:04.9,-0.004703522,0.002843857,0.000463486,0,
00:04.9,-0.004709244,0.002838135,0.000457764,0,
00:04.9,-0.004709244,0.002838135,0.000457764,0,
00:04.9,-0.004714966,0.002832413,0.000457764,0,
00:04.9,-0.0046978,0.002838135,0.000463486,0,
00:04.9,-0.004674911,0.002849579,0.000463486,0,
00:04.9,-0.004680634,0.002849579,0.000457764,0,
00:04.9,-0.004663467,0.002849579,0.000463486,0,
00:04.9,-0.004669189,0.002849579,0.000463486,0,
00:04.9,-0.004692078,0.002849579,0.000463486,0,
00:04.9,-0.004692078,0.002843857,0.000463486,0,
00:04.9,-0.004680634,0.002849579,0.000463486,0,
00:04.9,-0.004680634,0.002843857,0.000463486,0,
00:04.9,-0.004692078,0.002843857,0.000463486,0,
00:04.9,-0.0046978,0.002843857,0.000463486,0,
00:04.9,-0.004686356,0.002849579,0.000469208,0,
00:04.9,-0.004663467,0.002849579,0.000469208,0,
00:04.9,-0.004669189,0.002849579,0.000463486,0,
00:04.9,-0.004674911,0.002843857,0.000463486,0,
00:04.9,-0.004692078,0.002843857,0.000463486,0,
00:04.9,-0.0046978,0.002838135,0.000463486,0,
00:04.9,-0.004692078,0.002838135,0.000463486,0,
00:05.0,-0.004674911,0.002843857,0.000463486,0,
00:05.0,-0.004663467,0.002849579,0.000463486,0,
00:05.0,-0.004669189,0.002849579,0.000463486,0,
00:05.0,-0.004686356,0.002843857,0.000463486,0,
00:05.0,-0.0046978,0.002838135,0.000463486,0,
00:05.0,-0.004703522,0.002832413,0.000463486,0,
00:05.0,-0.004692078,0.002832413,0.000463486,0,
00:05.0,-0.004680634,0.002843857,0.000463486,0,
00:05.0,-0.004663467,0.002849579,0.000469208,0,
00:05.0,-0.004663467,0.002843857,0.000463486,0,
00:05.0,-0.004663467,0.002838135,0.000463486,0,
00:05.0,-0.004669189,0.002832413,0.000463486,0,
00:00:05,-0.004674911,0.002838135,0.000463486,0,
00:05.0,-0.004674911,0.002838135,0.000463486,0,
00:05.0,-0.004680634,0.002832413,0.000463486,0,
00:05.0,-0.004692078,0.002826691,0.000463486,0,
00:05.0,-0.004692078,0.002826691,0.000463486,0,
00:05.0,-0.004680634,0.002832413,0.000463486,0,
00:05.0,-0.004669189,0.002838135,0.000463486,0,
00:05.0,-0.004663467,0.002843857,0.000463486,0,
00:05.0,-0.004669189,0.002838135,0.000463486,0,
00:05.0,-0.004674911,0.002832413,0.000463486,0,
00:05.0,-0.004669189,0.002838135,0.000463486,0,
00:05.0,-0.004657745,0.002838135,0.000469208,0,
00:05.0,-0.004657745,0.002838135,0.000463486,0,
00:05.1,-0.004674911,0.002832413,0.000463486,0,
00:05.1,-0.0046978,0.002826691,0.000469208,0,
00:05.1,-0.004686356,0.002826691,0.000469208,0,
00:05.1,-0.004669189,0.002832413,0.000469208,0,
00:05.1,-0.004646301,0.002838135,0.000463486,0,
00:05.1,-0.004652023,0.002838135,0.000463486,0,
00:05.1,-0.004663467,0.002838135,0.000469208,0,
00:05.1,-0.004657745,0.002838135,0.000469208,0,
00:05.1,-0.004652023,0.002838135,0.000469208,0,
00:05.1,-0.004663467,0.002832413,0.000469208,0,
00:05.1,-0.004674911,0.002826691,0.000463486,0,
00:05.1,-0.004674911,0.002826691,0.000469208,0,
00:05.1,-0.004674911,0.002832413,0.000469208,0,
00:05.1,-0.004669189,0.002832413,0.000469208,0,
00:05.1,-0.004674911,0.002826691,0.000463486,0,
00:05.1,-0.004686356,0.002820969,0.000469208,0,
00:05.1,-0.004669189,0.002826691,0.000469208,0,
00:05.1,-0.004652023,0.002838135,0.000469208,0,
00:05.1,-0.004657745,0.002832413,0.000469208,0,
00:05.1,-0.004657745,0.002832413,0.000469208,0,
00:05.1,-0.004663467,0.002826691,0.000463486,0,
00:05.1,-0.004686356,0.002826691,0.000463486,0,
00:05.1,-0.004680634,0.002826691,0.000463486,0,
00:05.1,-0.004663467,0.002826691,0.000469208,0,
00:05.1,-0.004652023,0.002832413,0.000469208,0,
00:05.2,-0.004652023,0.002832413,0.000469208,0,
00:05.2,-0.004657745,0.002826691,0.000469208,0,
00:05.2,-0.004663467,0.002826691,0.000469208,0,
00:05.2,-0.004646301,0.002832413,0.000469208,0,
00:05.2,-0.004652023,0.002832413,0.000469208,0,
00:05.2,-0.004652023,0.002832413,0.000469208,0,
00:05.2,-0.004652023,0.002832413,0.000469208,0,
00:05.2,-0.004669189,0.002826691,0.000469208,0,
00:05.2,-0.004669189,0.002826691,0.000469208,0,
00:05.2,-0.004669189,0.002826691,0.000469208,0,
00:05.2,-0.004663467,0.002826691,0.000469208,0,
00:05.2,-0.004652023,0.002832413,0.000469208,0,
00:05.2,-0.004652023,0.002832413,0.000469208,0,
00:05.2,-0.004657745,0.002832413,0.000469208,0,
00:05.2,-0.004652023,0.002832413,0.000469208,0,
00:05.2,-0.004652023,0.002832413,0.000463486,0,
00:05.2,-0.004652023,0.002832413,0.000469208,0,
00:05.2,-0.004652023,0.002832413,0.000469208,0,
00:05.2,-0.004652023,0.002832413,0.000469208,0,
00:05.2,-0.004657745,0.002832413,0.000463486,0,
00:05.2,-0.004657745,0.002826691,0.000463486,0,
00:05.2,-0.004646301,0.002832413,0.000469208,0,
00:05.2,-0.004663467,0.002826691,0.000469208,0,
00:05.2,-0.004663467,0.002826691,0.000469208,0,
00:05.2,-0.004652023,0.002832413,0.000469208,0,
00:05.3,-0.004634857,0.002832413,0.000463486,0,
00:05.3,-0.004640579,0.002832413,0.000463486,0,
00:05.3,-0.004646301,0.002832413,0.000463486,0,
00:05.3,-0.004652023,0.002826691,0.000469208,0,
00:05.3,-0.004646301,0.002826691,0.000463486,0,
00:05.3,-0.004640579,0.002832413,0.000463486,0,
00:05.3,-0.004640579,0.002832413,0.000463486,0,
00:05.3,-0.004640579,0.002832413,0.000463486,0,
00:05.3,-0.004652023,0.002826691,0.000469208,0,
00:05.3,-0.004640579,0.002832413,0.000463486,0,
00:05.3,-0.004646301,0.002826691,0.000463486,0,
00:05.3,-0.004652023,0.002820969,0.000463486,0,
00:05.3,-0.004652023,0.002826691,0.000463486,0,
00:05.3,-0.004652023,0.002826691,0.000463486,0,
00:05.3,-0.004652023,0.002826691,0.000463486,0,
00:05.3,-0.004646301,0.002826691,0.000463486,0,
00:05.3,-0.004640579,0.002826691,0.000463486,0,
00:05.3,-0.004634857,0.002826691,0.000463486,0,
00:05.3,-0.004657745,0.002826691,0.000463486,0,
00:05.3,-0.004640579,0.002826691,0.000463486,0,
00:05.3,-0.004623413,0.002826691,0.000463486,0,
00:05.3,-0.004629135,0.002826691,0.000463486,0,
00:05.3,-0.004640579,0.002826691,0.000469208,0,
00:05.3,-0.004646301,0.002826691,0.000463486,0,
00:05.3,-0.004623413,0.002826691,0.000463486,0,
00:05.4,-0.004629135,0.002826691,0.000463486,0,
00:05.4,-0.004629135,0.002826691,0.000463486,0,
00:05.4,-0.004629135,0.002826691,0.000463486,0,
00:05.4,-0.004640579,0.002826691,0.000463486,0,
00:05.4,-0.004640579,0.002826691,0.000469208,0,
00:05.4,-0.004629135,0.002826691,0.000469208,0,
00:05.4,-0.004634857,0.002820969,0.000469208,0,
00:05.4,-0.004634857,0.002820969,0.000469208,0,
00:05.4,-0.004634857,0.002826691,0.000469208,0,
00:05.4,-0.004640579,0.002826691,0.000469208,0,
00:05.4,-0.004629135,0.002826691,0.000469208,0,
00:05.4,-0.004623413,0.002826691,0.000469208,0,
00:05.4,-0.004640579,0.002826691,0.000469208,0,
00:05.4,-0.004640579,0.002820969,0.000469208,0,
00:05.4,-0.004634857,0.002820969,0.000469208,0,
00:05.4,-0.004634857,0.002820969,0.000469208,0,
00:05.4,-0.004634857,0.002820969,0.000469208,0,
00:05.4,-0.004617691,0.002826691,0.000469208,0,
00:05.4,-0.004617691,0.002826691,0.000469208,0,
00:05.4,-0.004629135,0.002820969,0.000469208,0,
00:05.4,-0.004617691,0.002820969,0.000469208,0,
00:05.4,-0.004617691,0.002820969,0.000469208,0,
00:05.4,-0.004629135,0.002820969,0.000469208,0,
00:05.4,-0.004623413,0.002820969,0.000469208,0,
00:05.4,-0.004617691,0.002820969,0.000469208,0,
00:05.5,-0.004611969,0.002826691,0.000469208,0,
00:05.5,-0.004623413,0.002820969,0.000469208,0,
00:05.5,-0.004629135,0.002826691,0.000469208,0,
00:05.5,-0.004629135,0.002826691,0.000469208,0,
00:05.5,-0.004623413,0.002826691,0.000469208,0,
00:05.5,-0.004617691,0.002826691,0.000469208,0,
00:05.5,-0.004606247,0.002826691,0.000469208,0,
00:05.5,-0.004611969,0.002826691,0.000469208,0,
00:05.5,-0.004623413,0.002826691,0.000469208,0,
00:05.5,-0.004629135,0.002826691,0.000469208,0,
00:05.5,-0.004629135,0.002820969,0.000469208,0,
00:05.5,-0.004617691,0.002820969,0.000469208,0,
00:05.5,-0.004617691,0.002826691,0.00047493,0,
00:05.5,-0.004629135,0.002826691,0.000469208,0,
00:05.5,-0.004629135,0.002820969,0.000469208,0,
00:05.5,-0.004611969,0.002826691,0.000469208,0,
00:05.5,-0.004611969,0.002826691,0.000469208,0,
00:05.5,-0.004640579,0.002820969,0.000469208,0,
00:05.5,-0.004634857,0.002826691,0.000469208,0,
00:05.5,-0.004606247,0.002826691,0.000469208,0,
00:05.5,-0.004600525,0.002826691,0.000469208,0,
00:05.5,-0.004600525,0.002826691,0.000469208,0,
00:05.5,-0.004611969,0.002826691,0.000469208,0,
00:05.5,-0.004623413,0.002826691,0.000469208,0,
00:05.5,-0.004611969,0.002820969,0.000469208,0,
00:05.6,-0.004600525,0.002826691,0.000469208,0,
00:05.6,-0.004611969,0.002826691,0.000469208,0,
00:05.6,-0.004611969,0.002826691,0.000469208,0,
00:05.6,-0.004611969,0.002832413,0.000469208,0,
00:05.6,-0.004589081,0.002832413,0.000463486,0,
00:05.6,-0.004583359,0.002832413,0.000463486,0,
00:05.6,-0.004606247,0.002826691,0.000469208,0,
00:05.6,-0.004611969,0.002826691,0.000469208,0,
00:05.6,-0.004606247,0.002826691,0.000469208,0,
00:05.6,-0.004611969,0.002826691,0.000469208,0,
00:05.6,-0.004611969,0.002826691,0.000469208,0,
00:05.6,-0.004611969,0.002820969,0.000469208,0,
00:05.6,-0.004606247,0.002826691,0.000469208,0,
00:05.6,-0.004606247,0.002832413,0.000469208,0,
00:05.6,-0.004600525,0.002832413,0.000469208,0,
00:05.6,-0.004611969,0.002826691,0.000469208,0,
00:05.6,-0.004611969,0.002826691,0.000469208,0,
00:05.6,-0.004594803,0.002832413,0.000469208,0,
00:05.6,-0.004583359,0.002838135,0.000469208,0,
00:05.6,-0.004583359,0.002838135,0.000469208,0,
00:05.6,-0.004594803,0.002832413,0.000469208,0,
00:05.6,-0.004600525,0.002832413,0.000469208,0,
00:05.6,-0.004611969,0.002832413,0.000469208,0,
00:05.6,-0.004617691,0.002826691,0.00047493,0,
00:05.6,-0.004606247,0.002832413,0.00047493,0,
00:05.7,-0.004594803,0.002832413,0.000469208,0,
00:05.7,-0.004606247,0.002826691,0.000469208,0,
00:05.7,-0.004617691,0.002826691,0.00047493,0,
00:05.7,-0.004583359,0.002832413,0.00047493,0,
00:05.7,-0.004577637,0.002838135,0.00047493,0,
00:05.7,-0.004594803,0.002832413,0.00047493,0,
00:05.7,-0.004594803,0.002832413,0.000469208,0,
00:05.7,-0.004589081,0.002832413,0.00047493,0,
00:05.7,-0.004594803,0.002826691,0.00047493,0,
00:05.7,-0.004589081,0.002832413,0.00047493,0,
00:05.7,-0.004577637,0.002838135,0.000469208,0,
00:05.7,-0.004594803,0.002832413,0.00047493,0,
00:05.7,-0.004600525,0.002832413,0.00047493,0,
00:05.7,-0.004594803,0.002832413,0.00047493,0,
00:05.7,-0.004594803,0.002826691,0.000469208,0,
00:05.7,-0.004594803,0.002826691,0.000469208,0,
00:05.7,-0.004589081,0.002832413,0.000469208,0,
00:05.7,-0.004577637,0.002838135,0.00047493,0,
00:05.7,-0.004577637,0.002838135,0.00047493,0,
00:05.7,-0.004594803,0.002832413,0.00047493,0,
00:05.7,-0.004600525,0.002826691,0.00047493,0,
00:05.7,-0.004606247,0.002826691,0.00047493,0,
00:05.7,-0.004600525,0.002832413,0.00047493,0,
00:05.7,-0.004594803,0.002832413,0.00047493,0,
00:05.7,-0.004589081,0.002832413,0.000469208,0,
00:05.8,-0.004571915,0.002832413,0.000469208,0,
00:05.8,-0.004583359,0.002832413,0.00047493,0,
00:05.8,-0.004600525,0.002826691,0.00047493,0,
00:05.8,-0.004600525,0.002832413,0.00047493,0,
00:05.8,-0.004589081,0.002832413,0.00047493,0,
00:05.8,-0.004600525,0.002826691,0.00047493,0,
00:05.8,-0.004583359,0.002826691,0.00047493,0,
00:05.8,-0.004566193,0.002832413,0.000480652,0,
00:05.8,-0.004577637,0.002832413,0.00047493,0,
00:05.8,-0.004571915,0.002832413,0.00047493,0,
00:05.8,-0.004583359,0.002826691,0.00047493,0,
00:05.8,-0.004594803,0.002826691,0.00047493,0,
00:05.8,-0.004583359,0.002832413,0.00047493,0,
00:05.8,-0.004571915,0.002832413,0.00047493,0,
00:05.8,-0.004560471,0.002838135,0.000469208,0,
00:05.8,-0.004560471,0.002838135,0.000469208,0,
00:05.8,-0.004571915,0.002838135,0.000469208,0,
00:05.8,-0.004583359,0.002826691,0.00047493,0,
00:05.8,-0.004583359,0.002826691,0.00047493,0,
00:05.8,-0.004583359,0.002826691,0.00047493,0,
00:05.8,-0.004577637,0.002826691,0.000469208,0,
00:05.8,-0.004589081,0.002826691,0.000469208,0,
00:05.8,-0.004600525,0.002820969,0.00047493,0,
00:05.8,-0.004571915,0.002832413,0.00047493,0,
00:05.8,-0.004571915,0.002832413,0.000469208,0,
00:05.9,-0.004577637,0.002826691,0.00047493,0,
00:05.9,-0.004577637,0.002826691,0.000469208,0,
00:05.9,-0.004589081,0.002826691,0.000469208,0,
00:05.9,-0.004571915,0.002826691,0.000469208,0,
00:05.9,-0.004566193,0.002826691,0.000469208,0,
00:05.9,-0.004577637,0.002820969,0.000469208,0,
00:05.9,-0.004577637,0.002820969,0.000469208,0,
00:05.9,-0.004594803,0.002820969,0.000469208,0,
00:05.9,-0.004583359,0.002820969,0.000469208,0,
00:05.9,-0.004566193,0.002820969,0.000469208,0,
00:05.9,-0.004577637,0.002826691,0.000469208,0,
00:05.9,-0.004566193,0.002826691,0.000469208,0,
00:05.9,-0.004560471,0.002826691,0.000469208,0,
00:05.9,-0.004577637,0.002820969,0.000469208,0,
00:05.9,-0.004571915,0.002820969,0.000469208,0,
00:05.9,-0.004560471,0.002826691,0.000469208,0,
00:05.9,-0.004571915,0.002826691,0.000469208,0,
00:05.9,-0.004577637,0.002820969,0.000469208,0,
00:05.9,-0.004566193,0.002826691,0.000469208,0,
00:05.9,-0.004560471,0.002826691,0.000469208,0,
00:05.9,-0.004571915,0.002820969,0.000469208,0,
00:05.9,-0.004577637,0.002820969,0.000469208,0,
00:05.9,-0.004566193,0.002820969,0.000469208,0,
00:05.9,-0.004560471,0.002826691,0.000469208,0,
00:05.9,-0.004554749,0.002826691,0.000469208,0,
00:06.0,-0.004560471,0.002826691,0.000469208,0,
00:06.0,-0.004583359,0.002820969,0.000469208,0,
00:06.0,-0.004589081,0.002815247,0.000469208,0,
00:06.0,-0.004571915,0.002820969,0.000469208,0,
00:06.0,-0.004549026,0.002832413,0.000469208,0,
00:06.0,-0.004554749,0.002826691,0.000469208,0,
00:06.0,-0.004566193,0.002826691,0.000469208,0,
00:06.0,-0.004571915,0.002820969,0.000469208,0,
00:06.0,-0.004566193,0.002826691,0.000469208,0,
00:06.0,-0.004560471,0.002820969,0.000469208,0,
00:06.0,-0.004554749,0.002820969,0.000469208,0,
00:06.0,-0.004560471,0.002820969,0.000469208,0,
00:00:06,-0.004571915,0.002815247,0.000469208,0,
00:06.0,-0.004560471,0.002820969,0.000469208,0,
00:06.0,-0.004560471,0.002820969,0.000469208,0,
00:06.0,-0.004560471,0.002820969,0.000469208,0,
00:06.0,-0.004543304,0.002826691,0.000469208,0,
00:06.0,-0.004554749,0.002826691,0.000469208,0,
00:06.0,-0.004554749,0.002826691,0.000469208,0,
00:06.0,-0.004549026,0.002820969,0.000469208,0,
00:06.0,-0.004560471,0.002820969,0.000469208,0,
00:06.0,-0.004571915,0.002820969,0.00047493,0,
00:06.0,-0.004554749,0.002820969,0.00047493,0,
00:06.0,-0.004549026,0.002820969,0.00047493,0,
00:06.0,-0.004560471,0.002815247,0.00047493,0,
00:06.1,-0.004566193,0.002815247,0.00047493,0,
00:06.1,-0.004566193,0.002820969,0.000480652,0,
00:06.1,-0.004571915,0.002815247,0.000486374,0,
00:06.1,-0.004566193,0.002815247,0.000492096,0,
00:06.1,-0.004549026,0.002815247,0.000492096,0,
00:06.1,-0.004543304,0.002826691,0.000486374,0,
00:06.1,-0.004554749,0.002820969,0.000492096,0,
00:06.1,-0.004554749,0.002820969,0.000492096,0,
00:06.1,-0.004554749,0.002820969,0.000492096,0,
00:06.1,-0.004560471,0.002820969,0.000492096,0,
00:06.1,-0.004566193,0.002815247,0.000492096,0,
00:06.1,-0.004554749,0.002820969,0.000492096,0,
00:06.1,-0.004554749,0.002820969,0.000492096,0,
00:06.1,-0.004549026,0.002820969,0.000492096,0,
00:06.1,-0.004543304,0.002826691,0.000492096,0,
00:06.1,-0.004549026,0.002820969,0.000492096,0,
00:06.1,-0.004549026,0.002820969,0.000492096,0,
00:06.1,-0.004566193,0.002820969,0.000497818,0,
00:06.1,-0.004571915,0.002820969,0.000497818,0,
00:06.1,-0.004549026,0.002820969,0.000492096,0,
00:06.1,-0.00453186,0.002826691,0.000497818,0,
00:06.1,-0.004526138,0.002832413,0.000497818,0,
00:06.1,-0.004543304,0.002826691,0.000497818,0,
00:06.1,-0.004554749,0.002820969,0.000497818,0,
00:06.1,-0.004554749,0.002820969,0.000497818,0,
00:06.2,-0.004537582,0.002826691,0.000497818,0,
00:06.2,-0.004543304,0.002826691,0.000497818,0,
00:06.2,-0.004549026,0.002820969,0.00050354,0,
00:06.2,-0.004549026,0.002820969,0.00050354,0,
00:06.2,-0.004537582,0.002820969,0.00050354,0,
00:06.2,-0.004549026,0.002820969,0.00050354,0,
00:06.2,-0.004560471,0.002820969,0.00050354,0,
00:06.2,-0.004566193,0.002820969,0.00050354,0,
00:06.2,-0.004549026,0.002820969,0.00050354,0,
00:06.2,-0.004543304,0.002820969,0.00050354,0,
00:06.2,-0.004554749,0.002815247,0.00050354,0,
00:06.2,-0.004566193,0.002815247,0.00050354,0,
00:06.2,-0.004571915,0.002820969,0.000509262,0,
00:06.2,-0.004560471,0.002820969,0.000509262,0,
00:06.2,-0.004543304,0.002815247,0.000509262,0,
00:06.2,-0.00453186,0.002820969,0.000509262,0,
00:06.2,-0.00453186,0.002826691,0.000509262,0,
00:06.2,-0.004549026,0.002826691,0.000514984,0,
00:06.2,-0.004560471,0.002820969,0.000509262,0,
00:06.2,-0.004543304,0.002820969,0.000509262,0,
00:06.2,-0.00453186,0.002826691,0.000509262,0,
00:06.2,-0.004526138,0.002832413,0.000509262,0,
00:06.2,-0.00453186,0.002832413,0.000509262,0,
00:06.2,-0.00453186,0.002826691,0.000514984,0,
00:06.2,-0.004543304,0.002820969,0.000514984,0,
00:06.3,-0.004543304,0.002820969,0.000514984,0,
00:06.3,-0.004543304,0.002820969,0.000514984,0,
00:06.3,-0.004543304,0.002820969,0.000514984,0,
00:06.3,-0.004543304,0.002826691,0.000514984,0,
00:06.3,-0.004537582,0.002826691,0.000514984,0,
00:06.3,-0.004543304,0.002820969,0.000514984,0,
00:06.3,-0.004549026,0.002815247,0.000514984,0,
00:06.3,-0.004549026,0.002820969,0.000514984,0,
00:06.3,-0.004549026,0.002826691,0.000520706,0,
00:06.3,-0.004537582,0.002820969,0.000514984,0,
00:06.3,-0.004526138,0.002820969,0.000514984,0,
00:06.3,-0.004543304,0.002820969,0.000520706,0,
00:06.3,-0.004549026,0.002815247,0.000520706,0,
00:06.3,-0.004560471,0.002815247,0.000520706,0,
00:06.3,-0.004543304,0.002820969,0.000520706,0,
00:06.3,-0.004520416,0.002826691,0.000520706,0,
00:06.3,-0.004543304,0.002820969,0.000520706,0,
00:06.3,-0.004543304,0.002815247,0.000520706,0,
00:06.3,-0.00453186,0.002820969,0.000520706,0,
00:06.3,-0.004526138,0.002820969,0.000520706,0,
00:06.3,-0.004520416,0.002820969,0.000520706,0,
00:06.3,-0.004537582,0.002826691,0.000526428,0,
00:06.3,-0.004543304,0.002820969,0.000526428,0,
00:06.3,-0.004537582,0.002820969,0.000520706,0,
00:06.3,-0.004537582,0.002820969,0.000520706,0,
00:06.4,-0.004537582,0.002820969,0.000526428,0,
00:06.4,-0.00453186,0.002820969,0.000526428,0,
00:06.4,-0.004526138,0.002820969,0.000526428,0,
00:06.4,-0.00453186,0.002820969,0.000526428,0,
00:06.4,-0.004520416,0.002820969,0.000526428,0,
00:06.4,-0.004520416,0.002820969,0.000526428,0,
00:06.4,-0.004526138,0.002815247,0.000526428,0,
00:06.4,-0.00453186,0.002815247,0.000526428,0,
00:06.4,-0.004537582,0.002815247,0.000526428,0,
00:06.4,-0.004526138,0.002820969,0.000526428,0,
00:06.4,-0.00453186,0.002815247,0.000526428,0,
00:06.4,-0.004537582,0.002815247,0.000526428,0,
00:06.4,-0.004549026,0.002815247,0.00053215,0,
00:06.4,-0.004549026,0.002815247,0.00053215,0,
00:06.4,-0.004537582,0.002815247,0.00053215,0,
00:06.4,-0.004526138,0.002815247,0.00053215,0,
00:06.4,-0.004520416,0.002815247,0.00053215,0,
00:06.4,-0.004526138,0.002815247,0.000537872,0,
00:06.4,-0.004520416,0.002820969,0.00053215,0,
00:06.4,-0.004514694,0.002815247,0.00053215,0,
00:06.4,-0.00453186,0.002809525,0.00053215,0,
00:06.4,-0.004543304,0.002809525,0.00053215,0,
00:06.4,-0.004526138,0.002809525,0.000537872,0,
00:06.4,-0.004520416,0.002815247,0.000537872,0,
00:06.4,-0.004526138,0.002820969,0.000537872,0,
00:06.5,-0.00453186,0.002809525,0.000537872,0,
00:06.5,-0.004526138,0.002809525,0.000537872,0,
00:06.5,-0.004526138,0.002815247,0.000537872,0,
00:06.5,-0.004508972,0.002820969,0.000537872,0,
00:06.5,-0.004514694,0.002820969,0.000537872,0,
00:06.5,-0.004520416,0.002815247,0.000537872,0,
00:06.5,-0.004526138,0.002815247,0.000537872,0,
00:06.5,-0.004537582,0.002815247,0.000543594,0,
00:06.5,-0.004537582,0.002809525,0.000543594,0,
00:06.5,-0.004520416,0.002809525,0.000543594,0,
00:06.5,-0.004526138,0.002815247,0.000543594,0,
00:06.5,-0.004537582,0.002809525,0.000543594,0,
00:06.5,-0.004537582,0.002809525,0.000543594,0,
00:06.5,-0.004514694,0.002815247,0.000543594,0,
00:06.5,-0.004508972,0.002820969,0.000543594,0,
00:06.5,-0.004508972,0.002815247,0.000543594,0,
00:06.5,-0.004514694,0.002815247,0.000543594,0,
00:06.5,-0.004520416,0.002815247,0.000549316,0,
00:06.5,-0.004526138,0.002815247,0.000549316,0,
00:06.5,-0.004508972,0.002815247,0.000549316,0,
00:06.5,-0.004508972,0.002815247,0.000549316,0,
00:06.5,-0.004520416,0.002815247,0.000549316,0,
00:06.5,-0.004508972,0.002815247,0.000555038,0,
00:06.5,-0.004514694,0.002815247,0.000555038,0,
00:06.5,-0.004520416,0.002809525,0.000549316,0,
00:06.6,-0.004514694,0.002815247,0.000549316,0,
00:06.6,-0.004508972,0.002815247,0.000555038,0,
00:06.6,-0.004514694,0.002815247,0.000555038,0,
00:06.6,-0.004537582,0.002809525,0.00056076,0,
00:06.6,-0.004526138,0.002809525,0.000555038,0,
00:06.6,-0.004508972,0.002815247,0.00056076,0,
00:06.6,-0.004508972,0.002815247,0.00056076,0,
00:06.6,-0.004526138,0.002809525,0.00056076,0,
00:06.6,-0.004520416,0.002809525,0.00056076,0,
00:06.6,-0.004508972,0.002815247,0.00056076,0,
00:06.6,-0.00450325,0.002815247,0.00056076,0,
00:06.6,-0.00450325,0.002815247,0.00056076,0,
00:06.6,-0.004514694,0.002815247,0.000566483,0,
00:06.6,-0.004514694,0.002820969,0.000566483,0,
00:06.6,-0.004514694,0.002820969,0.00056076,0,
00:06.6,-0.004508972,0.002820969,0.000566483,0,
00:06.6,-0.00450325,0.002820969,0.000566483,0,
00:06.6,-0.004520416,0.002815247,0.000572205,0,
00:06.6,-0.004537582,0.002809525,0.000572205,0,
00:06.6,-0.00453186,0.002803802,0.000572205,0,
00:06.6,-0.004514694,0.002809525,0.000566483,0,
00:06.6,-0.004497528,0.002815247,0.000566483,0,
00:06.6,-0.004497528,0.002820969,0.000572205,0,
00:06.6,-0.00450325,0.002820969,0.000572205,0,
00:06.6,-0.00450325,0.002815247,0.000572205,0,
00:06.7,-0.004508972,0.002809525,0.000572205,0,
00:06.7,-0.004537582,0.002809525,0.000572205,0,
00:06.7,-0.004549026,0.002803802,0.000577927,0,
00:06.7,-0.004520416,0.002809525,0.000577927,0,
00:06.7,-0.004480362,0.002820969,0.000572205,0,
00:06.7,-0.00447464,0.002826691,0.000572205,0,
00:06.7,-0.004497528,0.002820969,0.000577927,0,
00:06.7,-0.00450325,0.002820969,0.000577927,0,
00:06.7,-0.004497528,0.002820969,0.000577927,0,
00:06.7,-0.004508972,0.002815247,0.000577927,0,
00:06.7,-0.004526138,0.002809525,0.000577927,0,
00:06.7,-0.004514694,0.002809525,0.000577927,0,
00:06.7,-0.004508972,0.002815247,0.000583649,0,
00:06.7,-0.004514694,0.002809525,0.000583649,0,
00:06.7,-0.004520416,0.002803802,0.000577927,0,
00:06.7,-0.004514694,0.002809525,0.000577927,0,
00:06.7,-0.004508972,0.002820969,0.000583649,0,
00:06.7,-0.004491806,0.002820969,0.000583649,0,
00:06.7,-0.004491806,0.002820969,0.000577927,0,
00:06.7,-0.004497528,0.002815247,0.000577927,0,
00:06.7,-0.00450325,0.002815247,0.000577927,0,
00:06.7,-0.004520416,0.002809525,0.000583649,0,
00:06.7,-0.004514694,0.002809525,0.000583649,0,
00:06.7,-0.00450325,0.002809525,0.000583649,0,
00:06.7,-0.004497528,0.002815247,0.000583649,0,
00:06.8,-0.004508972,0.002809525,0.000583649,0,
00:06.8,-0.00450325,0.002809525,0.000589371,0,
00:06.8,-0.004491806,0.002820969,0.000589371,0,
00:06.8,-0.004497528,0.002815247,0.000589371,0,
00:06.8,-0.004497528,0.002815247,0.000589371,0,
00:06.8,-0.004497528,0.002815247,0.000589371,0,
00:06.8,-0.00450325,0.002815247,0.000589371,0,
00:06.8,-0.004514694,0.002809525,0.000589371,0,
00:06.8,-0.004526138,0.002809525,0.000589371,0,
00:06.8,-0.004508972,0.002809525,0.000595093,0,
00:06.8,-0.004491806,0.002809525,0.000595093,0,
00:06.8,-0.00450325,0.002803802,0.000595093,0,
00:06.8,-0.004497528,0.002815247,0.000595093,0,
00:06.8,-0.004491806,0.002826691,0.000595093,0,
00:06.8,-0.004514694,0.002815247,0.000595093,0,
00:06.8,-0.004514694,0.002809525,0.000595093,0,
00:06.8,-0.004486084,0.002815247,0.000595093,0,
00:06.8,-0.004486084,0.002820969,0.000600815,0,
00:06.8,-0.004497528,0.002820969,0.000600815,0,
00:06.8,-0.004486084,0.002820969,0.000595093,0,
00:06.8,-0.004491806,0.002820969,0.000595093,0,
00:06.8,-0.004497528,0.002815247,0.000600815,0,
00:06.8,-0.004508972,0.002809525,0.000600815,0,
00:06.8,-0.00450325,0.002815247,0.000600815,0,
00:06.8,-0.004508972,0.002815247,0.000600815,0,
00:06.9,-0.004497528,0.002809525,0.000600815,0,
00:06.9,-0.004486084,0.002815247,0.000600815,0,
00:06.9,-0.004491806,0.002815247,0.000600815,0,
00:06.9,-0.004508972,0.002803802,0.000606537,0,
00:06.9,-0.004508972,0.002803802,0.000600815,0,
00:06.9,-0.004508972,0.002803802,0.000600815,0,
00:06.9,-0.004491806,0.002809525,0.000606537,0,
00:06.9,-0.004468918,0.002815247,0.000606537,0,
00:06.9,-0.004480362,0.002815247,0.000606537,0,
00:06.9,-0.00447464,0.002815247,0.000606537,0,
00:06.9,-0.00447464,0.002815247,0.000606537,0,
00:06.9,-0.004486084,0.002809525,0.000606537,0,
00:06.9,-0.00450325,0.002803802,0.000606537,0,
00:06.9,-0.004497528,0.002803802,0.000606537,0,
00:06.9,-0.004486084,0.002809525,0.000606537,0,
00:06.9,-0.00447464,0.002815247,0.000606537,0,
00:06.9,-0.004486084,0.002815247,0.000612259,0,
00:06.9,-0.004491806,0.002809525,0.000612259,0,
00:06.9,-0.004486084,0.002815247,0.000612259,0,
00:06.9,-0.004486084,0.002815247,0.000612259,0,
00:06.9,-0.004486084,0.002803802,0.000612259,0,
00:06.9,-0.004491806,0.002803802,0.000612259,0,
00:06.9,-0.004486084,0.002809525,0.000612259,0,
00:06.9,-0.004491806,0.002809525,0.000617981,0,
00:06.9,-0.004486084,0.002809525,0.000612259,0,
00:07.0,-0.00447464,0.002809525,0.000617981,0,
00:07.0,-0.004480362,0.002809525,0.000617981,0,
00:07.0,-0.004480362,0.002815247,0.000617981,0,
00:07.0,-0.00447464,0.002815247,0.000617981,0,
00:07.0,-0.004491806,0.002803802,0.000617981,0,
00:07.0,-0.004508972,0.00279808,0.000617981,0,
00:07.0,-0.00450325,0.002809525,0.000617981,0,
00:07.0,-0.004463196,0.002820969,0.000617981,0,
00:07.0,-0.004457474,0.002820969,0.000617981,0,
00:07.0,-0.004468918,0.002815247,0.000617981,0,
00:07.0,-0.004468918,0.002809525,0.000617981,0,
00:07.0,-0.004480362,0.002815247,0.000617981,0,
00:00:07,-0.004486084,0.002809525,0.000623703,0,
00:07.0,-0.004480362,0.002809525,0.000623703,0,
00:07.0,-0.004480362,0.002809525,0.000623703,0,
00:07.0,-0.004486084,0.002809525,0.000623703,0,
00:07.0,-0.00447464,0.002803802,0.000623703,0,
00:07.0,-0.004468918,0.002809525,0.000623703,0,
00:07.0,-0.00447464,0.002803802,0.000623703,0,
00:07.0,-0.004468918,0.002809525,0.000623703,0,
00:07.0,-0.004468918,0.002815247,0.000623703,0,
00:07.0,-0.004468918,0.002809525,0.000623703,0,
00:07.0,-0.004468918,0.002809525,0.000629425,0,
00:07.0,-0.004480362,0.002803802,0.000629425,0,
00:07.0,-0.00447464,0.002803802,0.000629425,0,
00:07.1,-0.004468918,0.002803802,0.000629425,0,
00:07.1,-0.004463196,0.002809525,0.000629425,0,
00:07.1,-0.004468918,0.002809525,0.000629425,0,
00:07.1,-0.004468918,0.002809525,0.000629425,0,
00:07.1,-0.004468918,0.002803802,0.000629425,0,
00:07.1,-0.004486084,0.00279808,0.000629425,0,
00:07.1,-0.00450325,0.00279808,0.000629425,0,
00:07.1,-0.004480362,0.002803802,0.000635147,0,
00:07.1,-0.004468918,0.002803802,0.000635147,0,
00:07.1,-0.004468918,0.002803802,0.000635147,0,
00:07.1,-0.004463196,0.002803802,0.000635147,0,
00:07.1,-0.004457474,0.002809525,0.000635147,0,
00:07.1,-0.004463196,0.002809525,0.000635147,0,
00:07.1,-0.004468918,0.002803802,0.000635147,0,
00:07.1,-0.00447464,0.002803802,0.000635147,0,
00:07.1,-0.00447464,0.00279808,0.000635147,0,
00:07.1,-0.004468918,0.002803802,0.000635147,0,
00:07.1,-0.004468918,0.002803802,0.000640869,0,
00:07.1,-0.004480362,0.002803802,0.000640869,0,
00:07.1,-0.004468918,0.002803802,0.000635147,0,
00:07.1,-0.004468918,0.002803802,0.000635147,0,
00:07.1,-0.004457474,0.002809525,0.000640869,0,
00:07.1,-0.004468918,0.002809525,0.000640869,0,
00:07.1,-0.004480362,0.002803802,0.000640869,0,
00:07.1,-0.004468918,0.002803802,0.000640869,0,
00:07.2,-0.004463196,0.002809525,0.000640869,0,
00:07.2,-0.00447464,0.00279808,0.000640869,0,
00:07.2,-0.00447464,0.002803802,0.000640869,0,
00:07.2,-0.004468918,0.002809525,0.000640869,0,
00:07.2,-0.004463196,0.002803802,0.000640869,0,
00:07.2,-0.004451752,0.002803802,0.000640869,0,
00:07.2,-0.004457474,0.002809525,0.000640869,0,
00:07.2,-0.004463196,0.002809525,0.000640869,0,
00:07.2,-0.004463196,0.002803802,0.000640869,0,
00:07.2,-0.004468918,0.002803802,0.000640869,0,
00:07.2,-0.00447464,0.00279808,0.000640869,0,
00:07.2,-0.004468918,0.002803802,0.000640869,0,
00:07.2,-0.004457474,0.002809525,0.000646591,0,
00:07.2,-0.004451752,0.002809525,0.000646591,0,
00:07.2,-0.00444603,0.002809525,0.000640869,0,
00:07.2,-0.004463196,0.002803802,0.000640869,0,
00:07.2,-0.004468918,0.002803802,0.000646591,0,
00:07.2,-0.004463196,0.002809525,0.000646591,0,
00:07.2,-0.004463196,0.002809525,0.000646591,0,
00:07.2,-0.004463196,0.002809525,0.000646591,0,
00:07.2,-0.004451752,0.002809525,0.000646591,0,
00:07.2,-0.004440308,0.002815247,0.000646591,0,
00:07.2,-0.004451752,0.002815247,0.000652313,0,
00:07.2,-0.004457474,0.002809525,0.000652313,0,
00:07.2,-0.004463196,0.002803802,0.000646591,0,
00:07.3,-0.004480362,0.00279808,0.000646591,0,
00:07.3,-0.004451752,0.002809525,0.000652313,0,
00:07.3,-0.004440308,0.002815247,0.000652313,0,
00:07.3,-0.004451752,0.002809525,0.000646591,0,
00:07.3,-0.004440308,0.002803802,0.000646591,0,
00:07.3,-0.004434586,0.002809525,0.000652313,0,
00:07.3,-0.00444603,0.002809525,0.000652313,0,
00:07.3,-0.004451752,0.002809525,0.000652313,0,
00:07.3,-0.004457474,0.002809525,0.000652313,0,
00:07.3,-0.004451752,0.002809525,0.000652313,0,
00:07.3,-0.004457474,0.002809525,0.000652313,0,
00:07.3,-0.004457474,0.002803802,0.000652313,0,
00:07.3,-0.00447464,0.002803802,0.000652313,0,
00:07.3,-0.004468918,0.002803802,0.000652313,0,
00:07.3,-0.004440308,0.002809525,0.000652313,0,
00:07.3,-0.004434586,0.002815247,0.000652313,0,
00:07.3,-0.004428864,0.002815247,0.000652313,0,
00:07.3,-0.00444603,0.002809525,0.000658035,0,
00:07.3,-0.004451752,0.002809525,0.000658035,0,
00:07.3,-0.004463196,0.002803802,0.000658035,0,
00:07.3,-0.004463196,0.002803802,0.000658035,0,
00:07.3,-0.004451752,0.002803802,0.000658035,0,
00:07.3,-0.00444603,0.002809525,0.000658035,0,
00:07.3,-0.00444603,0.002809525,0.000658035,0,
00:07.3,-0.00444603,0.002809525,0.000658035,0,
00:07.4,-0.00444603,0.002809525,0.000652313,0,
00:07.4,-0.004457474,0.002809525,0.000658035,0,
00:07.4,-0.00444603,0.002809525,0.000658035,0,
00:07.4,-0.004451752,0.002803802,0.000658035,0,
00:07.4,-0.00444603,0.002803802,0.000658035,0,
00:07.4,-0.004440308,0.002809525,0.000658035,0,
00:07.4,-0.00444603,0.002803802,0.000663757,0,
00:07.4,-0.004440308,0.002809525,0.000663757,0,
00:07.4,-0.004428864,0.002815247,0.000663757,0,
00:07.4,-0.004434586,0.002815247,0.000663757,0,
00:07.4,-0.004457474,0.002803802,0.000663757,0,
00:07.4,-0.004468918,0.002803802,0.000658035,0,
00:07.4,-0.00444603,0.002809525,0.000663757,0,
00:07.4,-0.004428864,0.002815247,0.000663757,0,
00:07.4,-0.004434586,0.002809525,0.000663757,0,
00:07.4,-0.004440308,0.002809525,0.000663757,0,
00:07.4,-0.00444603,0.002803802,0.000663757,0,
00:07.4,-0.004457474,0.002803802,0.000663757,0,
00:07.4,-0.00444603,0.002803802,0.000669479,0,
00:07.4,-0.004411697,0.002809525,0.000663757,0,
00:07.4,-0.004417419,0.002809525,0.000663757,0,
00:07.4,-0.004434586,0.002809525,0.000669479,0,
00:07.4,-0.004451752,0.002803802,0.000669479,0,
00:07.4,-0.00444603,0.002809525,0.000669479,0,
00:07.4,-0.004423141,0.002809525,0.000669479,0,
00:07.5,-0.004440308,0.002809525,0.000669479,0,
00:07.5,-0.004451752,0.002803802,0.000669479,0,
00:07.5,-0.004440308,0.002809525,0.000669479,0,
00:07.5,-0.004423141,0.002809525,0.000669479,0,
00:07.5,-0.004423141,0.002809525,0.000669479,0,
00:07.5,-0.004423141,0.002809525,0.000669479,0,
00:07.5,-0.004428864,0.002809525,0.000669479,0,
00:07.5,-0.004440308,0.002809525,0.000675201,0,
00:07.5,-0.004457474,0.002803802,0.000675201,0,
00:07.5,-0.004451752,0.00279808,0.000675201,0,
00:07.5,-0.004423141,0.002809525,0.000669479,0,
00:07.5,-0.004428864,0.002809525,0.000669479,0,
00:07.5,-0.004423141,0.002809525,0.000675201,0,
00:07.5,-0.004411697,0.002809525,0.000675201,0,
00:07.5,-0.004411697,0.002809525,0.000675201,0,
00:07.5,-0.004428864,0.002803802,0.000675201,0,
00:07.5,-0.004451752,0.00279808,0.000675201,0,
00:07.5,-0.00444603,0.00279808,0.000675201,0,
00:07.5,-0.004417419,0.002809525,0.000675201,0,
00:07.5,-0.004411697,0.002809525,0.000675201,0,
00:07.5,-0.004405975,0.002809525,0.000675201,0,
00:07.5,-0.004417419,0.002809525,0.000675201,0,
00:07.5,-0.004423141,0.002809525,0.000675201,0,
00:07.5,-0.004434586,0.002803802,0.000675201,0,
00:07.5,-0.00444603,0.002803802,0.000675201,0,
00:07.6,-0.004434586,0.002803802,0.000675201,0,
00:07.6,-0.004417419,0.002809525,0.000675201,0,
00:07.6,-0.004428864,0.002815247,0.000680923,0,
00:07.6,-0.004417419,0.002815247,0.000680923,0,
00:07.6,-0.004417419,0.002815247,0.000675201,0,
00:07.6,-0.004428864,0.002803802,0.000675201,0,
00:07.6,-0.004440308,0.002803802,0.000680923,0,
00:07.6,-0.00444603,0.002809525,0.000680923,0,
00:07.6,-0.004428864,0.002809525,0.000675201,0,
00:07.6,-0.004405975,0.002815247,0.000675201,0,
00:07.6,-0.004388809,0.002815247,0.000675201,0,
00:07.6,-0.004405975,0.002815247,0.000680923,0,
00:07.6,-0.004417419,0.002815247,0.000680923,0,
00:07.6,-0.004423141,0.002815247,0.000680923,0,
00:07.6,-0.004423141,0.002809525,0.000680923,0,
00:07.6,-0.004423141,0.002809525,0.000675201,0,
00:07.6,-0.004417419,0.002809525,0.000680923,0,
00:07.6,-0.004417419,0.002809525,0.000680923,0,
00:07.6,-0.004423141,0.002809525,0.000680923,0,
00:07.6,-0.004434586,0.002803802,0.000680923,0,
00:07.6,-0.004417419,0.002803802,0.000680923,0,
00:07.6,-0.004394531,0.002820969,0.000680923,0,
00:07.6,-0.004411697,0.002815247,0.000680923,0,
00:07.6,-0.004411697,0.002809525,0.000686646,0,
00:07.6,-0.004405975,0.002809525,0.000680923,0,
00:07.7,-0.004411697,0.002809525,0.000680923,0,
00:07.7,-0.004417419,0.002809525,0.000680923,0,
00:07.7,-0.004405975,0.002815247,0.000680923,0,
00:07.7,-0.004405975,0.002809525,0.000680923,0,
00:07.7,-0.004405975,0.002809525,0.000680923,0,
00:07.7,-0.004411697,0.002809525,0.000680923,0,
00:07.7,-0.004428864,0.002803802,0.000686646,0,
00:07.7,-0.004417419,0.002809525,0.000686646,0,
00:07.7,-0.004411697,0.002815247,0.000686646,0,
00:07.7,-0.004411697,0.002809525,0.000686646,0,
00:07.7,-0.004411697,0.002815247,0.000680923,0,
00:07.7,-0.004400253,0.002815247,0.000686646,0,
00:07.7,-0.004411697,0.002809525,0.000686646,0,
00:07.7,-0.004405975,0.002809525,0.000686646,0,
00:07.7,-0.004400253,0.002809525,0.000686646,0,
00:07.7,-0.004405975,0.002809525,0.000686646,0,
00:07.7,-0.004405975,0.002809525,0.000692368,0,
00:07.7,-0.004411697,0.002809525,0.000692368,0,
00:07.7,-0.004400253,0.002809525,0.000692368,0,
00:07.7,-0.004394531,0.002809525,0.000692368,0,
00:07.7,-0.004400253,0.002809525,0.000686646,0,
00:07.7,-0.004405975,0.002809525,0.000692368,0,
00:07.7,-0.004411697,0.002809525,0.000692368,0,
00:07.7,-0.004394531,0.002809525,0.000692368,0,
00:07.7,-0.004394531,0.002809525,0.000692368,0,
00:07.8,-0.004400253,0.002809525,0.000692368,0,
00:07.8,-0.004405975,0.002803802,0.000692368,0,
00:07.8,-0.004411697,0.002809525,0.000692368,0,
00:07.8,-0.004417419,0.002809525,0.000692368,0,
00:07.8,-0.004405975,0.002809525,0.000686646,0,
00:07.8,-0.004388809,0.002815247,0.000686646,0,
00:07.8,-0.004394531,0.002815247,0.000686646,0,
00:07.8,-0.004400253,0.002809525,0.000686646,0,
00:07.8,-0.004394531,0.002815247,0.000692368,0,
00:07.8,-0.004400253,0.002815247,0.000686646,0,
00:07.8,-0.004400253,0.002809525,0.000686646,0,
00:07.8,-0.004400253,0.002809525,0.000692368,0,
00:07.8,-0.004417419,0.002803802,0.000692368,0,
00:07.8,-0.004405975,0.002809525,0.000686646,0,
00:07.8,-0.004371643,0.002815247,0.000686646,0,
00:07.8,-0.004377365,0.002809525,0.000686646,0,
00:07.8,-0.004388809,0.002809525,0.000686646,0,
00:07.8,-0.004400253,0.002809525,0.000686646,0,
00:07.8,-0.004394531,0.002809525,0.000686646,0,
00:07.8,-0.004388809,0.002809525,0.000686646,0,
00:07.8,-0.004388809,0.002809525,0.000686646,0,
00:07.8,-0.004394531,0.002809525,0.000686646,0,
00:07.8,-0.004417419,0.002803802,0.000686646,0,
00:07.8,-0.004411697,0.002803802,0.000686646,0,
00:07.8,-0.004383087,0.002809525,0.000692368,0,
00:07.9,-0.004388809,0.002803802,0.000692368,0,
00:07.9,-0.004388809,0.002803802,0.000686646,0,
00:07.9,-0.004388809,0.002809525,0.000686646,0,
00:07.9,-0.004388809,0.002815247,0.000686646,0,
00:07.9,-0.004388809,0.002809525,0.000686646,0,
00:07.9,-0.004383087,0.002809525,0.000692368,0,
00:07.9,-0.004383087,0.002815247,0.000692368,0,
00:07.9,-0.004394531,0.002809525,0.000692368,0,
00:07.9,-0.004383087,0.002809525,0.000692368,0,
00:07.9,-0.004383087,0.002809525,0.000692368,0,
00:07.9,-0.004400253,0.002803802,0.000692368,0,
00:07.9,-0.004405975,0.00279808,0.000692368,0,
00:07.9,-0.004405975,0.00279808,0.000692368,0,
00:07.9,-0.004377365,0.002809525,0.000692368,0,
00:07.9,-0.004371643,0.002809525,0.000686646,0,
00:07.9,-0.004377365,0.002803802,0.000686646,0,
00:07.9,-0.004383087,0.002809525,0.000686646,0,
00:07.9,-0.004388809,0.002803802,0.000692368,0,
00:07.9,-0.004388809,0.002803802,0.000692368,0,
00:07.9,-0.004388809,0.002803802,0.000686646,0,
00:07.9,-0.004394531,0.002803802,0.000686646,0,
00:07.9,-0.004377365,0.002803802,0.000686646,0,
00:07.9,-0.004383087,0.002809525,0.000686646,0,
00:07.9,-0.004388809,0.002803802,0.000686646,0,
00:07.9,-0.004377365,0.002803802,0.000686646,0,
00:08.0,-0.004371643,0.002803802,0.000686646,0,
00:08.0,-0.004383087,0.00279808,0.000686646,0,
00:08.0,-0.004388809,0.00279808,0.000692368,0,
00:08.0,-0.004388809,0.00279808,0.000692368,0,
00:08.0,-0.004383087,0.00279808,0.000686646,0,
00:08.0,-0.004365921,0.002803802,0.000686646,0,
00:08.0,-0.004360199,0.002803802,0.000686646,0,
00:08.0,-0.004377365,0.002803802,0.000686646,0,
00:08.0,-0.004383087,0.002803802,0.000692368,0,
00:08.0,-0.004388809,0.002792358,0.000692368,0,
00:08.0,-0.004365921,0.002803802,0.000692368,0,
00:08.0,-0.004360199,0.002809525,0.000692368,0,
00:00:08,-0.004371643,0.002803802,0.000692368,0,
00:08.0,-0.004371643,0.002803802,0.000692368,0,
00:08.0,-0.004371643,0.00279808,0.000692368,0,
00:08.0,-0.004371643,0.00279808,0.000692368,0,
00:08.0,-0.004377365,0.00279808,0.000692368,0,
00:08.0,-0.004371643,0.002803802,0.000692368,0,
00:08.0,-0.004365921,0.00279808,0.000692368,0,
00:08.0,-0.004377365,0.00279808,0.000692368,0,
00:08.0,-0.004394531,0.002792358,0.000692368,0,
00:08.0,-0.004371643,0.002792358,0.000692368,0,
00:08.0,-0.004343033,0.002809525,0.000692368,0,
00:08.0,-0.004343033,0.002809525,0.000692368,0,
00:08.0,-0.004365921,0.002803802,0.000692368,0,
00:08.1,-0.004377365,0.00279808,0.000692368,0,
00:08.1,-0.004371643,0.00279808,0.000692368,0,
00:08.1,-0.004365921,0.002809525,0.000692368,0,
00:08.1,-0.004377365,0.002803802,0.000692368,0,
00:08.1,-0.004365921,0.002803802,0.000692368,0,
00:08.1,-0.004377365,0.00279808,0.000692368,0,
00:08.1,-0.004383087,0.00279808,0.000692368,0,
00:08.1,-0.004348755,0.002803802,0.00069809,0,
00:08.1,-0.004348755,0.002809525,0.00069809,0,
00:08.1,-0.004360199,0.00279808,0.000692368,0,
00:08.1,-0.004360199,0.002803802,0.000692368,0,
00:08.1,-0.004365921,0.002803802,0.000692368,0,
00:08.1,-0.004354477,0.002803802,0.00069809,0,
00:08.1,-0.004365921,0.00279808,0.000692368,0,
00:08.1,-0.004383087,0.00279808,0.000692368,0,
00:08.1,-0.004360199,0.00279808,0.000692368,0,
00:08.1,-0.004348755,0.002803802,0.000692368,0,
00:08.1,-0.004354477,0.002803802,0.00069809,0,
00:08.1,-0.004360199,0.002803802,0.00069809,0,
00:08.1,-0.004365921,0.00279808,0.00069809,0,
00:08.1,-0.004360199,0.00279808,0.00069809,0,
00:08.1,-0.004348755,0.002803802,0.00069809,0,
00:08.1,-0.004348755,0.002809525,0.00069809,0,
00:08.1,-0.004360199,0.002803802,0.000703812,0,
00:08.1,-0.004354477,0.00279808,0.00069809,0,
00:08.2,-0.004354477,0.002803802,0.00069809,0,
00:08.2,-0.004354477,0.002803802,0.00069809,0,
00:08.2,-0.004365921,0.00279808,0.000703812,0,
00:08.2,-0.004377365,0.002792358,0.000703812,0,
00:08.2,-0.004371643,0.002786636,0.00069809,0,
00:08.2,-0.004348755,0.00279808,0.00069809,0,
00:08.2,-0.004331589,0.002803802,0.00069809,0,
00:08.2,-0.004343033,0.002803802,0.00069809,0,
00:08.2,-0.004348755,0.002803802,0.00069809,0,
00:08.2,-0.004343033,0.00279808,0.00069809,0,
00:08.2,-0.004348755,0.00279808,0.00069809,0,
00:08.2,-0.004360199,0.00279808,0.00069809,0,
00:08.2,-0.004360199,0.00279808,0.000703812,0,
00:08.2,-0.004354477,0.002792358,0.00069809,0,
00:08.2,-0.004348755,0.00279808,0.00069809,0,
00:08.2,-0.004354477,0.00279808,0.00069809,0,
00:08.2,-0.004348755,0.00279808,0.00069809,0,
00:08.2,-0.004337311,0.00279808,0.00069809,0,
00:08.2,-0.004354477,0.00279808,0.00069809,0,
00:08.2,-0.004365921,0.002792358,0.00069809,0,
00:08.2,-0.004354477,0.00279808,0.00069809,0,
00:08.2,-0.004348755,0.002792358,0.00069809,0,
00:08.2,-0.004343033,0.002792358,0.00069809,0,
00:08.2,-0.004337311,0.00279808,0.00069809,0,
00:08.2,-0.004337311,0.00279808,0.00069809,0,
00:08.3,-0.004348755,0.002792358,0.00069809,0,
00:08.3,-0.004354477,0.002792358,0.00069809,0,
00:08.3,-0.004337311,0.00279808,0.00069809,0,
00:08.3,-0.004331589,0.002803802,0.00069809,0,
00:08.3,-0.004343033,0.00279808,0.00069809,0,
00:08.3,-0.004337311,0.00279808,0.00069809,0,
00:08.3,-0.004331589,0.00279808,0.00069809,0,
00:08.3,-0.004331589,0.00279808,0.00069809,0,
00:08.3,-0.004348755,0.00279808,0.00069809,0,
00:08.3,-0.004343033,0.00279808,0.00069809,0,
00:08.3,-0.004331589,0.002803802,0.00069809,0,
00:08.3,-0.004320145,0.002803802,0.00069809,0,
00:08.3,-0.004343033,0.00279808,0.00069809,0,
00:08.3,-0.004348755,0.002792358,0.00069809,0,
00:08.3,-0.004343033,0.002792358,0.00069809,0,
00:08.3,-0.004325867,0.00279808,0.00069809,0,
00:08.3,-0.004337311,0.00279808,0.00069809,0,
00:08.3,-0.004354477,0.00279808,0.00069809,0,
00:08.3,-0.004337311,0.00279808,0.00069809,0,
00:08.3,-0.004320145,0.00279808,0.00069809,0,
00:08.3,-0.004314423,0.00279808,0.00069809,0,
00:08.3,-0.004320145,0.00279808,0.000703812,0,
00:08.3,-0.004331589,0.00279808,0.000703812,0,
00:08.3,-0.004331589,0.002792358,0.000703812,0,
00:08.3,-0.004337311,0.002792358,0.00069809,0,
00:08.4,-0.004337311,0.002792358,0.00069809,0,
00:08.4,-0.004337311,0.002792358,0.00069809,0,
00:08.4,-0.004320145,0.00279808,0.000703812,0,
00:08.4,-0.004325867,0.002803802,0.000703812,0,
00:08.4,-0.004343033,0.002792358,0.00069809,0,
00:08.4,-0.004320145,0.002792358,0.000703812,0,
00:08.4,-0.004314423,0.00279808,0.000703812,0,
00:08.4,-0.004320145,0.00279808,0.000703812,0,
00:08.4,-0.004314423,0.002803802,0.000703812,0,
00:08.4,-0.004320145,0.00279808,0.000703812,0,
00:08.4,-0.004331589,0.002792358,0.000703812,0,
00:08.4,-0.004331589,0.002792358,0.000703812,0,
00:08.4,-0.004337311,0.002792358,0.000703812,0,
00:08.4,-0.004325867,0.00279808,0.000703812,0,
00:08.4,-0.004308701,0.00279808,0.000703812,0,
00:08.4,-0.004302979,0.002803802,0.000703812,0,
00:08.4,-0.004308701,0.002803802,0.000703812,0,
00:08.4,-0.004325867,0.00279808,0.000703812,0,
00:08.4,-0.004320145,0.002792358,0.000703812,0,
00:08.4,-0.004320145,0.002792358,0.000703812,0,
00:08.4,-0.004331589,0.002792358,0.000703812,0,
00:08.4,-0.004343033,0.002786636,0.000709534,0,
00:08.4,-0.004314423,0.002792358,0.000709534,0,
00:08.4,-0.004285812,0.002809525,0.000709534,0,
00:08.4,-0.004291534,0.002803802,0.000709534,0,
00:08.5,-0.004308701,0.002792358,0.000709534,0,
00:08.5,-0.004325867,0.002792358,0.000709534,0,
00:08.5,-0.004337311,0.002792358,0.000709534,0,
00:08.5,-0.004325867,0.002792358,0.000709534,0,
00:08.5,-0.004291534,0.00279808,0.000709534,0,
00:08.5,-0.004291534,0.00279808,0.000709534,0,
00:08.5,-0.004320145,0.002792358,0.000709534,0,
00:08.5,-0.004331589,0.002792358,0.000709534,0,
00:08.5,-0.004302979,0.00279808,0.000709534,0,
00:08.5,-0.004285812,0.002803802,0.000709534,0,
00:08.5,-0.004297256,0.00279808,0.000709534,0,
00:08.5,-0.004308701,0.002792358,0.000709534,0,
00:08.5,-0.004320145,0.002792358,0.000709534,0,
00:08.5,-0.004320145,0.002792358,0.000709534,0,
00:08.5,-0.004308701,0.002792358,0.000709534,0,
00:08.5,-0.004308701,0.002792358,0.000709534,0,
00:08.5,-0.004308701,0.00279808,0.000709534,0,
00:08.5,-0.004320145,0.002792358,0.000709534,0,
00:08.5,-0.004314423,0.002792358,0.000709534,0,
00:08.5,-0.004297256,0.002792358,0.000709534,0,
00:08.5,-0.004291534,0.00279808,0.000709534,0,
00:08.5,-0.004297256,0.00279808,0.000709534,0,
00:08.5,-0.004314423,0.002792358,0.000709534,0,
00:08.5,-0.004320145,0.002786636,0.000709534,0,
00:08.5,-0.004308701,0.002786636,0.000709534,0,
00:08.6,-0.004297256,0.002792358,0.000709534,0,
00:08.6,-0.004308701,0.002792358,0.000709534,0,
00:08.6,-0.004314423,0.002786636,0.000715256,0,
00:08.6,-0.004302979,0.002792358,0.000715256,0,
00:08.6,-0.004302979,0.002792358,0.000715256,0,
00:08.6,-0.004314423,0.002786636,0.000709534,0,
00:08.6,-0.004302979,0.002792358,0.000715256,0,
00:08.6,-0.004285812,0.00279808,0.000715256,0,
00:08.6,-0.004274368,0.00279808,0.000715256,0,
00:08.6,-0.004285812,0.002792358,0.000715256,0,
00:08.6,-0.004291534,0.002786636,0.000715256,0,
00:08.6,-0.004314423,0.002780914,0.000715256,0,
00:08.6,-0.004314423,0.002780914,0.000715256,0,
00:08.6,-0.004291534,0.002792358,0.000715256,0,
00:08.6,-0.00428009,0.00279808,0.000715256,0,
00:08.6,-0.00428009,0.00279808,0.000715256,0,
00:08.6,-0.004291534,0.00279808,0.000715256,0,
00:08.6,-0.004314423,0.002786636,0.000715256,0,
00:08.6,-0.004314423,0.002780914,0.000715256,0,
00:08.6,-0.004297256,0.002786636,0.000715256,0,
00:08.6,-0.004291534,0.002792358,0.000715256,0,
00:08.6,-0.004285812,0.002792358,0.000715256,0,
00:08.6,-0.004285812,0.00279808,0.000720978,0,
00:08.6,-0.00428009,0.00279808,0.000720978,0,
00:08.6,-0.004285812,0.00279808,0.000720978,0,
00:08.7,-0.004308701,0.002792358,0.000715256,0,
00:08.7,-0.004297256,0.002792358,0.000715256,0,
00:08.7,-0.004285812,0.002792358,0.000720978,0,
00:08.7,-0.00428009,0.002792358,0.000720978,0,
00:08.7,-0.00428009,0.002792358,0.000715256,0,
00:08.7,-0.004268646,0.002792358,0.000715256,0,
00:08.7,-0.00428009,0.002792358,0.000720978,0,
00:08.7,-0.004297256,0.002786636,0.000720978,0,
00:08.7,-0.004291534,0.002786636,0.000720978,0,
00:08.7,-0.00428009,0.002792358,0.000715256,0,
00:08.7,-0.004297256,0.002786636,0.000720978,0,
00:08.7,-0.004302979,0.002786636,0.000720978,0,
00:08.7,-0.004291534,0.002792358,0.000720978,0,
00:08.7,-0.00428009,0.00279808,0.000720978,0,
00:08.7,-0.00428009,0.00279808,0.000720978,0,
00:08.7,-0.004285812,0.002792358,0.000715256,0,
00:08.7,-0.004285812,0.002792358,0.000720978,0,
00:08.7,-0.004274368,0.00279808,0.000720978,0,
00:08.7,-0.004274368,0.002792358,0.000720978,0,
00:08.7,-0.004274368,0.00279808,0.000720978,0,
00:08.7,-0.004274368,0.002792358,0.000715256,0,
00:08.7,-0.004274368,0.002792358,0.000720978,0,
00:08.7,-0.004291534,0.00279808,0.000720978,0,
00:08.7,-0.00428009,0.002792358,0.000720978,0,
00:08.7,-0.004257202,0.00279808,0.000720978,0,
00:08.8,-0.004257202,0.00279808,0.000720978,0,
00:08.8,-0.004274368,0.002792358,0.000720978,0,
00:08.8,-0.00428009,0.002792358,0.000720978,0,
00:08.8,-0.00428009,0.002792358,0.000720978,0,
00:08.8,-0.004274368,0.002792358,0.000720978,0,
00:08.8,-0.004268646,0.002792358,0.000720978,0,
00:08.8,-0.00428009,0.002792358,0.000720978,0,
00:08.8,-0.004285812,0.002792358,0.000720978,0,
00:08.8,-0.004257202,0.00279808,0.000720978,0,
00:08.8,-0.00425148,0.00279808,0.000720978,0,
00:08.8,-0.004274368,0.002792358,0.000720978,0,
00:08.8,-0.004285812,0.002786636,0.0007267,0,
00:08.8,-0.00428009,0.002786636,0.0007267,0,
00:08.8,-0.004268646,0.002792358,0.000720978,0,
00:08.8,-0.004274368,0.002792358,0.000720978,0,
00:08.8,-0.004274368,0.002786636,0.000720978,0,
00:08.8,-0.004268646,0.002792358,0.000720978,0,
00:08.8,-0.004268646,0.00279808,0.0007267,0,
00:08.8,-0.004274368,0.002792358,0.0007267,0,
00:08.8,-0.00425148,0.002792358,0.0007267,0,
00:08.8,-0.00425148,0.002792358,0.0007267,0,
00:08.8,-0.004274368,0.002792358,0.0007267,0,
00:08.8,-0.004274368,0.002792358,0.0007267,0,
00:08.8,-0.00428009,0.002792358,0.0007267,0,
00:08.8,-0.004257202,0.002792358,0.000720978,0,
00:08.9,-0.004240036,0.00279808,0.000720978,0,
00:08.9,-0.004240036,0.002803802,0.0007267,0,
00:08.9,-0.00425148,0.00279808,0.0007267,0,
00:08.9,-0.004274368,0.002786636,0.0007267,0,
00:08.9,-0.004274368,0.002786636,0.0007267,0,
00:08.9,-0.00425148,0.002792358,0.0007267,0,
00:08.9,-0.00425148,0.00279808,0.0007267,0,
00:08.9,-0.004268646,0.002792358,0.0007267,0,
00:08.9,-0.004268646,0.002792358,0.0007267,0,
00:08.9,-0.004257202,0.002792358,0.0007267,0,
00:08.9,-0.004257202,0.00279808,0.0007267,0,
00:08.9,-0.004257202,0.00279808,0.0007267,0,
00:08.9,-0.00425148,0.00279808,0.0007267,0,
00:08.9,-0.004245758,0.00279808,0.0007267,0,
00:08.9,-0.004262924,0.002792358,0.0007267,0,
00:08.9,-0.004268646,0.002792358,0.0007267,0,
00:08.9,-0.004262924,0.002792358,0.0007267,0,
00:08.9,-0.00425148,0.00279808,0.000732422,0,
00:08.9,-0.004234314,0.002803802,0.0007267,0,
00:08.9,-0.004240036,0.00279808,0.0007267,0,
00:08.9,-0.00425148,0.00279808,0.0007267,0,
00:08.9,-0.00425148,0.00279808,0.000732422,0,
00:08.9,-0.004257202,0.00279808,0.0007267,0,
00:08.9,-0.004268646,0.002792358,0.0007267,0,
00:08.9,-0.00428009,0.002786636,0.0007267,0,
00:09.0,-0.004262924,0.002792358,0.0007267,0,
00:09.0,-0.004245758,0.00279808,0.0007267,0,
00:09.0,-0.004234314,0.002803802,0.000732422,0,
00:09.0,-0.004228592,0.00279808,0.000732422,0,
00:09.0,-0.004234314,0.00279808,0.000732422,0,
00:09.0,-0.004240036,0.00279808,0.000732422,0,
00:09.0,-0.004240036,0.00279808,0.000732422,0,
00:09.0,-0.004245758,0.00279808,0.000732422,0,
00:09.0,-0.004257202,0.002792358,0.000732422,0,
00:09.0,-0.004257202,0.002792358,0.000732422,0,
00:09.0,-0.00425148,0.002792358,0.000732422,0,
00:09.0,-0.004234314,0.002792358,0.000732422,0,
00:00:09,-0.004240036,0.002792358,0.000732422,0,
00:09.0,-0.00425148,0.002792358,0.000732422,0,
00:09.0,-0.004240036,0.00279808,0.000732422,0,
00:09.0,-0.004234314,0.00279808,0.000732422,0,
00:09.0,-0.004245758,0.002786636,0.000732422,0,
00:09.0,-0.00425148,0.002792358,0.000732422,0,
00:09.0,-0.004262924,0.002786636,0.000732422,0,
00:09.0,-0.00425148,0.002786636,0.000732422,0,
00:09.0,-0.004234314,0.002792358,0.000732422,0,
00:09.0,-0.004234314,0.00279808,0.000732422,0,
00:09.0,-0.004240036,0.002792358,0.000732422,0,
00:09.0,-0.004240036,0.002792358,0.000732422,0,
00:09.0,-0.004245758,0.002786636,0.000732422,0,
00:09.1,-0.004245758,0.002786636,0.000732422,0,
00:09.1,-0.00425148,0.002786636,0.000738144,0,
00:09.1,-0.004240036,0.002792358,0.000738144,0,
00:09.1,-0.004228592,0.00279808,0.000738144,0,
00:09.1,-0.004245758,0.002786636,0.000738144,0,
00:09.1,-0.004245758,0.002786636,0.000732422,0,
00:09.1,-0.004240036,0.002786636,0.000732422,0,
00:09.1,-0.00422287,0.002792358,0.000732422,0,
00:09.1,-0.00422287,0.002792358,0.000732422,0,
00:09.1,-0.004228592,0.002792358,0.000732422,0,
00:09.1,-0.00422287,0.002792358,0.000732422,0,
00:09.1,-0.004234314,0.00279808,0.000732422,0,
00:09.1,-0.004245758,0.002792358,0.000738144,0,
00:09.1,-0.004234314,0.002786636,0.000738144,0,
00:09.1,-0.004228592,0.002786636,0.000732422,0,
00:09.1,-0.00422287,0.002786636,0.000732422,0,
00:09.1,-0.00422287,0.002792358,0.000738144,0,
00:09.1,-0.004228592,0.002792358,0.000738144,0,
00:09.1,-0.00422287,0.002792358,0.000738144,0,
00:09.1,-0.004217148,0.002792358,0.000738144,0,
00:09.1,-0.004228592,0.002786636,0.000738144,0,
00:09.1,-0.004240036,0.002786636,0.000738144,0,
00:09.1,-0.004240036,0.002786636,0.000738144,0,
00:09.1,-0.004234314,0.002786636,0.000738144,0,
00:09.1,-0.004217148,0.002792358,0.000738144,0,
00:09.2,-0.00422287,0.002792358,0.000738144,0,
00:09.2,-0.004228592,0.002786636,0.000738144,0,
00:09.2,-0.004217148,0.002792358,0.000738144,0,
00:09.2,-0.004211426,0.002792358,0.000738144,0,
00:09.2,-0.004199982,0.00279808,0.000738144,0,
00:09.2,-0.004199982,0.002792358,0.000738144,0,
00:09.2,-0.004217148,0.002792358,0.000743866,0,
00:09.2,-0.004217148,0.002792358,0.000743866,0,
00:09.2,-0.004205704,0.002792358,0.000743866,0,
00:09.2,-0.004205704,0.002792358,0.000738144,0,
00:09.2,-0.004211426,0.002792358,0.000743866,0,
00:09.2,-0.00422287,0.002792358,0.000743866,0,
00:09.2,-0.004234314,0.002786636,0.000743866,0,
00:09.2,-0.004217148,0.002792358,0.000743866,0,
00:09.2,-0.004205704,0.002792358,0.000743866,0,
00:09.2,-0.004211426,0.002786636,0.000743866,0,
00:09.2,-0.00422287,0.002786636,0.000743866,0,
00:09.2,-0.00425148,0.002786636,0.000749588,0,
00:09.2,-0.004245758,0.002780914,0.000743866,0,
00:09.2,-0.004199982,0.002792358,0.000743866,0,
00:09.2,-0.004182816,0.002803802,0.000743866,0,
00:09.2,-0.00419426,0.00279808,0.000743866,0,
00:09.2,-0.00419426,0.00279808,0.000743866,0,
00:09.2,-0.00419426,0.00279808,0.000743866,0,
00:09.2,-0.004205704,0.00279808,0.000743866,0,
00:09.3,-0.004205704,0.002792358,0.000743866,0,
00:09.3,-0.004199982,0.00279808,0.000743866,0,
00:09.3,-0.004205704,0.002792358,0.000749588,0,
00:09.3,-0.004211426,0.002792358,0.000743866,0,
00:09.3,-0.004205704,0.002792358,0.000743866,0,
00:09.3,-0.00419426,0.002792358,0.000743866,0,
00:09.3,-0.00419426,0.002792358,0.000749588,0,
00:09.3,-0.00419426,0.00279808,0.000749588,0,
00:09.3,-0.004199982,0.002792358,0.000749588,0,
00:09.3,-0.004205704,0.002786636,0.000749588,0,
00:09.3,-0.004205704,0.002786636,0.000743866,0,
00:09.3,-0.004205704,0.002792358,0.000743866,0,
00:09.3,-0.00422287,0.002792358,0.000749588,0,
00:09.3,-0.004217148,0.002786636,0.000743866,0,
00:09.3,-0.004188538,0.002792358,0.000743866,0,
00:09.3,-0.004171371,0.00279808,0.000749588,0,
00:09.3,-0.00419426,0.002792358,0.000749588,0,
00:09.3,-0.004182816,0.00279808,0.000749588,0,
00:09.3,-0.004171371,0.00279808,0.000749588,0,
00:09.3,-0.004188538,0.002792358,0.000749588,0,
00:09.3,-0.004188538,0.002792358,0.000743866,0,
00:09.3,-0.00419426,0.002792358,0.000743866,0,
00:09.3,-0.004199982,0.002792358,0.000749588,0,
00:09.3,-0.00419426,0.002792358,0.000749588,0,
00:09.3,-0.004182816,0.002792358,0.000749588,0,
00:09.4,-0.004182816,0.002792358,0.000749588,0,
00:09.4,-0.004182816,0.002792358,0.000749588,0,
00:09.4,-0.004182816,0.00279808,0.000749588,0,
00:09.4,-0.004199982,0.002792358,0.000749588,0,
00:09.4,-0.004199982,0.002786636,0.000749588,0,
00:09.4,-0.00419426,0.002792358,0.000749588,0,
00:09.4,-0.004199982,0.002792358,0.000749588,0,
00:09.4,-0.004188538,0.002792358,0.000749588,0,
00:09.4,-0.004165649,0.00279808,0.000749588,0,
00:09.4,-0.00419426,0.002792358,0.000749588,0,
00:09.4,-0.004177094,0.002792358,0.000749588,0,
00:09.4,-0.004159927,0.002803802,0.00075531,0,
00:09.4,-0.004177094,0.00279808,0.00075531,0,
00:09.4,-0.004188538,0.002792358,0.00075531,0,
00:09.4,-0.004177094,0.002792358,0.00075531,0,
00:09.4,-0.004177094,0.002792358,0.000749588,0,
00:09.4,-0.004182816,0.002792358,0.000749588,0,
00:09.4,-0.004177094,0.002792358,0.00075531,0,
00:09.4,-0.004177094,0.002792358,0.000749588,0,
00:09.4,-0.004171371,0.002792358,0.000749588,0,
00:09.4,-0.004177094,0.002786636,0.000749588,0,
00:09.4,-0.004199982,0.002780914,0.00075531,0,
00:09.4,-0.00419426,0.002786636,0.00075531,0,
00:09.4,-0.004171371,0.002792358,0.00075531,0,
00:09.4,-0.004165649,0.002792358,0.000749588,0,
00:09.5,-0.004165649,0.002786636,0.000749588,0,
00:09.5,-0.004171371,0.002786636,0.000749588,0,
00:09.5,-0.004165649,0.002792358,0.00075531,0,
00:09.5,-0.004165649,0.002792358,0.00075531,0,
00:09.5,-0.004177094,0.002786636,0.00075531,0,
00:09.5,-0.004165649,0.002786636,0.00075531,0,
00:09.5,-0.004177094,0.002786636,0.00075531,0,
00:09.5,-0.004177094,0.002786636,0.00075531,0,
00:09.5,-0.004177094,0.002786636,0.00075531,0,
00:09.5,-0.004154205,0.002786636,0.00075531,0,
00:09.5,-0.004154205,0.002792358,0.00075531,0,
00:09.5,-0.004165649,0.002786636,0.00075531,0,
00:09.5,-0.004177094,0.002780914,0.00075531,0,
00:09.5,-0.004177094,0.002780914,0.00075531,0,
00:09.5,-0.004165649,0.002780914,0.00075531,0,
00:09.5,-0.004171371,0.002780914,0.00075531,0,
00:09.5,-0.004171371,0.002786636,0.00075531,0,
00:09.5,-0.004165649,0.002792358,0.000761032,0,
00:09.5,-0.004177094,0.002780914,0.00075531,0,
00:09.5,-0.004182816,0.002775192,0.00075531,0,
00:09.5,-0.004165649,0.002786636,0.000761032,0,
00:09.5,-0.004142761,0.002792358,0.000761032,0,
00:09.5,-0.004148483,0.002792358,0.000761032,0,
00:09.5,-0.004165649,0.002786636,0.000761032,0,
00:09.5,-0.004177094,0.002780914,0.000761032,0,
00:09.6,-0.004165649,0.002780914,0.000761032,0,
00:09.6,-0.004154205,0.002786636,0.000761032,0,
00:09.6,-0.004154205,0.002786636,0.000761032,0,
00:09.6,-0.004154205,0.002792358,0.000761032,0,
00:09.6,-0.004142761,0.002786636,0.000761032,0,
00:09.6,-0.004142761,0.002786636,0.000761032,0,
00:09.6,-0.004154205,0.002780914,0.000761032,0,
00:09.6,-0.004154205,0.002786636,0.000761032,0,
00:09.6,-0.004148483,0.002786636,0.000761032,0,
00:09.6,-0.004148483,0.002786636,0.000766754,0,
00:09.6,-0.004154205,0.002780914,0.000766754,0,
00:09.6,-0.004154205,0.002786636,0.000766754,0,
00:09.6,-0.004154205,0.002780914,0.000766754,0,
00:09.6,-0.004159927,0.002775192,0.000766754,0,
00:09.6,-0.004171371,0.002775192,0.000766754,0,
00:09.6,-0.004165649,0.002775192,0.000766754,0,
00:09.6,-0.004148483,0.002780914,0.000766754,0,
00:09.6,-0.004165649,0.002780914,0.000766754,0,
00:09.6,-0.004159927,0.002786636,0.000766754,0,
00:09.6,-0.004137039,0.002792358,0.000766754,0,
00:09.6,-0.004142761,0.002780914,0.000766754,0,
00:09.6,-0.004148483,0.002780914,0.000766754,0,
00:09.6,-0.004154205,0.002780914,0.000766754,0,
00:09.6,-0.004148483,0.002780914,0.000766754,0,
00:09.6,-0.004131317,0.002780914,0.000766754,0,
00:09.7,-0.004148483,0.002775192,0.000766754,0,
00:09.7,-0.004159927,0.002775192,0.000766754,0,
00:09.7,-0.004131317,0.002780914,0.000766754,0,
00:09.7,-0.004119873,0.002792358,0.000772476,0,
00:09.7,-0.004119873,0.002786636,0.000766754,0,
00:09.7,-0.004125595,0.002780914,0.000766754,0,
00:09.7,-0.004142761,0.002780914,0.000766754,0,
00:09.7,-0.004148483,0.002775192,0.000772476,0,
00:09.7,-0.004154205,0.002780914,0.000766754,0,
00:09.7,-0.004159927,0.002775192,0.000766754,0,
00:09.7,-0.004154205,0.002775192,0.000766754,0,
00:09.7,-0.004125595,0.002780914,0.000772476,0,
00:09.7,-0.004125595,0.002786636,0.000772476,0,
00:09.7,-0.004125595,0.002786636,0.000772476,0,
00:09.7,-0.004137039,0.002780914,0.000766754,0,
00:09.7,-0.004137039,0.002775192,0.000766754,0,
00:09.7,-0.004137039,0.002780914,0.000772476,0,
00:09.7,-0.004137039,0.002780914,0.000772476,0,
00:09.7,-0.004142761,0.002780914,0.000772476,0,
00:09.7,-0.004125595,0.002780914,0.000766754,0,
00:09.7,-0.004108429,0.002786636,0.000772476,0,
00:09.7,-0.004131317,0.002780914,0.000772476,0,
00:09.7,-0.004131317,0.002786636,0.000772476,0,
00:09.7,-0.004108429,0.002786636,0.000766754,0,
00:09.7,-0.004119873,0.002780914,0.000766754,0,
00:09.8,-0.004125595,0.002775192,0.000772476,0,
00:09.8,-0.004131317,0.002775192,0.000772476,0,
00:09.8,-0.004125595,0.002780914,0.000772476,0,
00:09.8,-0.004119873,0.002780914,0.000772476,0,
00:09.8,-0.004125595,0.002775192,0.000772476,0,
00:09.8,-0.004119873,0.002780914,0.000772476,0,
00:09.8,-0.004125595,0.002780914,0.000772476,0,
00:09.8,-0.004131317,0.002780914,0.000772476,0,
00:09.8,-0.004119873,0.002780914,0.000772476,0,
00:09.8,-0.004114151,0.002780914,0.000772476,0,
00:09.8,-0.004119873,0.002775192,0.000772476,0,
00:09.8,-0.004125595,0.002780914,0.000772476,0,
00:09.8,-0.004131317,0.002780914,0.000772476,0,
00:09.8,-0.004125595,0.002775192,0.000772476,0,
00:09.8,-0.004096985,0.002780914,0.000772476,0,
00:09.8,-0.004091263,0.002786636,0.000772476,0,
00:09.8,-0.004114151,0.002780914,0.000778198,0,
00:09.8,-0.004114151,0.002780914,0.000778198,0,
00:09.8,-0.004102707,0.002786636,0.000772476,0,
00:09.8,-0.004108429,0.002780914,0.000772476,0,
00:09.8,-0.004125595,0.002775192,0.000772476,0,
00:09.8,-0.004114151,0.002775192,0.000772476,0,
00:09.8,-0.004119873,0.002775192,0.000778198,0,
00:09.8,-0.004125595,0.002775192,0.000778198,0,
00:09.8,-0.004114151,0.002775192,0.000778198,0,
00:09.9,-0.004091263,0.002780914,0.000772476,0,
00:09.9,-0.004091263,0.002780914,0.000778198,0,
00:09.9,-0.004114151,0.002780914,0.000778198,0,
00:09.9,-0.004125595,0.002775192,0.000772476,0,
00:09.9,-0.004114151,0.00276947,0.000772476,0,
00:09.9,-0.004096985,0.002775192,0.000778198,0,
00:09.9,-0.004102707,0.002780914,0.000778198,0,
00:09.9,-0.004114151,0.002775192,0.000778198,0,
00:09.9,-0.004108429,0.00276947,0.000778198,0,
00:09.9,-0.004102707,0.00276947,0.000778198,0,
00:09.9,-0.004091263,0.002775192,0.000778198,0,
00:09.9,-0.004085541,0.002780914,0.000778198,0,
00:09.9,-0.004102707,0.002775192,0.00078392,0,
00:09.9,-0.004114151,0.00276947,0.000778198,0,
00:09.9,-0.004108429,0.00276947,0.000778198,0,
00:09.9,-0.004108429,0.002763748,0.000778198,0,
00:09.9,-0.004102707,0.00276947,0.000778198,0,
00:09.9,-0.004096985,0.002775192,0.00078392,0,
00:09.9,-0.004079819,0.002780914,0.000778198,0,
00:09.9,-0.004091263,0.00276947,0.000778198,0,
00:09.9,-0.004108429,0.00276947,0.000778198,0,
00:09.9,-0.004119873,0.002763748,0.000778198,0,
00:09.9,-0.004114151,0.00276947,0.000778198,0,
00:09.9,-0.004102707,0.002775192,0.000778198,0,
00:09.9,-0.004085541,0.00276947,0.000778198,0,
00:10.0,-0.004079819,0.00276947,0.000778198,0,
00:10.0,-0.004091263,0.002775192,0.000778198,0,
00:10.0,-0.004091263,0.002775192,0.00078392,0,
00:10.0,-0.004096985,0.00276947,0.000778198,0,
00:10.0,-0.004091263,0.00276947,0.000778198,0,
00:10.0,-0.004096985,0.00276947,0.000778198,0,
00:10.0,-0.004096985,0.002775192,0.00078392,0,
00:10.0,-0.004074097,0.002780914,0.00078392,0,
00:10.0,-0.004079819,0.002780914,0.00078392,0,
00:10.0,-0.004091263,0.002775192,0.00078392,0,
00:10.0,-0.004091263,0.00276947,0.00078392,0,
00:10.0,-0.004102707,0.002763748,0.00078392,0,
00:00:10,-0.004096985,0.00276947,0.00078392,0,
00:10.0,-0.004108429,0.00276947,0.00078392,0,
00:10.0,-0.004096985,0.00276947,0.00078392,0,
00:10.0,-0.004091263,0.00276947,0.00078392,0,
00:10.0,-0.004096985,0.00276947,0.00078392,0,
00:10.0,-0.004091263,0.002775192,0.000789642,0,
00:10.0,-0.004085541,0.002775192,0.00078392,0,
00:10.0,-0.004068375,0.002775192,0.00078392,0,
00:10.0,-0.004074097,0.00276947,0.00078392,0,
00:10.0,-0.004079819,0.00276947,0.000789642,0,
00:10.0,-0.004085541,0.00276947,0.000789642,0,
00:10.0,-0.004091263,0.00276947,0.000789642,0,
00:10.0,-0.004079819,0.00276947,0.000789642,0,
00:10.1,-0.004074097,0.002775192,0.00078392,0,
00:10.1,-0.004079819,0.002775192,0.000789642,0,
00:10.1,-0.004096985,0.00276947,0.000789642,0,
00:10.1,-0.004079819,0.00276947,0.000789642,0,
00:10.1,-0.004068375,0.00276947,0.000789642,0,
00:10.1,-0.004068375,0.00276947,0.00078392,0,
00:10.1,-0.004074097,0.00276947,0.000789642,0,
00:10.1,-0.004085541,0.00276947,0.000789642,0,
00:10.1,-0.004091263,0.002763748,0.000789642,0,
