Elapsed_Time,EMG1,EMG2,EMG3,BioRadio Event,Unnamed: 5
00:00:00,-0.002758026,0.002637863,-0.004766464,0,
00:00.0,-0.002792358,0.002620697,-0.004760742,0,
00:00.0,-0.002826691,0.002540588,-0.004823685,0,
00:00.0,-0.002832413,0.002563477,-0.004772186,0,
00:00.0,-0.002820969,0.002580643,-0.004772186,0,
00:00.0,-0.002803802,0.002574921,-0.004789352,0,
00:00.0,-0.002786636,0.002580643,-0.004737854,0,
00:00.0,-0.002780914,0.002620697,-0.004743576,0,
00:00.0,-0.002775192,0.002620697,-0.004817963,0,
00:00.0,-0.002746582,0.002666473,-0.004875183,0,
00:00.0,-0.002838135,0.002529144,-0.004823685,0,
00:00.0,-0.002820969,0.002557755,-0.004766464,0,
00:00.0,-0.002780914,0.002614975,-0.004795074,0,
00:00.1,-0.002763748,0.002649307,-0.004880905,0,
00:00.1,-0.002780914,0.002580643,-0.004846573,0,
00:00.1,-0.002843857,0.002552032,-0.004720688,0,
00:00.1,-0.002803802,0.002586365,-0.004766464,0,
00:00.1,-0.00276947,0.002626419,-0.00478363,0,
00:00.1,-0.002780914,0.002609253,-0.00475502,0,
00:00.1,-0.002832413,0.002557755,-0.004777908,0,
00:00.1,-0.002809525,0.002586365,-0.004789352,0,
00:00.1,-0.002792358,0.002586365,-0.004800797,0,
00:00.1,-0.00279808,0.002603531,-0.004772186,0,
00:00.1,-0.002792358,0.002603531,-0.00472641,0,
00:00.1,-0.002763748,0.002632141,-0.004743576,0,
00:00.1,-0.002792358,0.002580643,-0.004795074,0,
00:00.1,-0.002838135,0.002523422,-0.004823685,0,
00:00.1,-0.002803802,0.002574921,-0.004795074,0,
00:00.1,-0.002758026,0.002643585,-0.004777908,0,
00:00.1,-0.002752304,0.002649307,-0.004732132,0,
00:00.1,-0.002849579,0.002557755,-0.004806519,0,
00:00.1,-0.002826691,0.002540588,-0.004892349,0,
00:00.1,-0.002803802,0.002557755,-0.004800797,0,
00:00.1,-0.002780914,0.002597809,-0.004772186,0,
00:00.1,-0.002729416,0.002706528,-0.004812241,0,
00:00.1,-0.002786636,0.002580643,-0.004869461,0,
00:00.1,-0.002815247,0.00254631,-0.004737854,0,
00:00.1,-0.002809525,0.002569199,-0.004737854,0,
00:00.2,-0.002780914,0.002580643,-0.004720688,0,
00:00.2,-0.002815247,0.002540588,-0.004846573,0,
00:00.2,-0.00279808,0.002552032,-0.004760742,0,
00:00.2,-0.002775192,0.002609253,-0.004766464,0,
00:00.2,-0.002803802,0.002592087,-0.004852295,0,
00:00.2,-0.002809525,0.002603531,-0.004772186,0,
00:00.2,-0.002792358,0.002609253,-0.004800797,0,
00:00.2,-0.002792358,0.002597809,-0.004817963,0,
00:00.2,-0.002786636,0.002563477,-0.00478363,0,
00:00.2,-0.002792358,0.002569199,-0.004789352,0,
00:00.2,-0.00279808,0.002574921,-0.004737854,0,
00:00.2,-0.002780914,0.002597809,-0.004714966,0,
00:00.2,-0.002820969,0.002552032,-0.004812241,0,
00:00.2,-0.002803802,0.002580643,-0.004817963,0,
00:00.2,-0.00279808,0.002586365,-0.00478363,0,
00:00.2,-0.002803802,0.002563477,-0.00478363,0,
00:00.2,-0.002780914,0.002592087,-0.004806519,0,
00:00.2,-0.00276947,0.002620697,-0.004835129,0,
00:00.2,-0.002780914,0.002620697,-0.004852295,0,
00:00.2,-0.002792358,0.002574921,-0.004772186,0,
00:00.2,-0.002820969,0.002540588,-0.004737854,0,
00:00.2,-0.00279808,0.002569199,-0.004766464,0,
00:00.2,-0.002786636,0.002614975,-0.004823685,0,
00:00.2,-0.002758026,0.002643585,-0.004829407,0,
00:00.2,-0.002792358,0.002552032,-0.004800797,0,
00:00.3,-0.002803802,0.002580643,-0.00478363,0,
00:00.3,-0.002809525,0.00254631,-0.004720688,0,
00:00.3,-0.002780914,0.002569199,-0.004760742,0,
00:00.3,-0.002786636,0.002586365,-0.004766464,0,
00:00.3,-0.002792358,0.002574921,-0.004806519,0,
00:00.3,-0.002763748,0.002637863,-0.004886627,0,
00:00.3,-0.002815247,0.002569199,-0.00472641,0,
00:00.3,-0.00279808,0.002569199,-0.004737854,0,
00:00.3,-0.002792358,0.002574921,-0.004737854,0,
00:00.3,-0.002803802,0.00254631,-0.004806519,0,
00:00.3,-0.002780914,0.002586365,-0.004812241,0,
00:00.3,-0.002775192,0.002614975,-0.004806519,0,
00:00.3,-0.00279808,0.002580643,-0.004840851,0,
00:00.3,-0.002786636,0.002574921,-0.004789352,0,
00:00.3,-0.002775192,0.002586365,-0.004795074,0,
00:00.3,-0.002780914,0.002632141,-0.004812241,0,
00:00.3,-0.00279808,0.002603531,-0.004852295,0,
00:00.3,-0.002803802,0.002580643,-0.004743576,0,
00:00.3,-0.002786636,0.002569199,-0.004766464,0,
00:00.3,-0.002763748,0.002569199,-0.004760742,0,
00:00.3,-0.002803802,0.002563477,-0.004777908,0,
00:00.3,-0.002803802,0.002574921,-0.004812241,0,
00:00.3,-0.002792358,0.002603531,-0.004789352,0,
00:00.3,-0.00276947,0.002597809,-0.004800797,0,
00:00.3,-0.002780914,0.002614975,-0.004823685,0,
00:00.4,-0.002758026,0.002609253,-0.004829407,0,
00:00.4,-0.002786636,0.002569199,-0.00478363,0,
00:00.4,-0.002809525,0.00254631,-0.004766464,0,
00:00.4,-0.002803802,0.002557755,-0.004766464,0,
00:00.4,-0.002780914,0.002574921,-0.00475502,0,
00:00.4,-0.002786636,0.002609253,-0.004835129,0,
00:00.4,-0.002763748,0.002637863,-0.004898071,0,
00:00.4,-0.002780914,0.002574921,-0.004812241,0,
00:00.4,-0.002775192,0.002574921,-0.004806519,0,
00:00.4,-0.002775192,0.002603531,-0.00475502,0,
00:00.4,-0.002780914,0.002592087,-0.004737854,0,
00:00.4,-0.002803802,0.00254631,-0.004749298,0,
00:00.4,-0.002792358,0.002557755,-0.004795074,0,
00:00.4,-0.00276947,0.002586365,-0.004732132,0,
00:00.4,-0.00276947,0.002580643,-0.004812241,0,
00:00.4,-0.002809525,0.002563477,-0.004829407,0,
00:00.4,-0.00279808,0.002597809,-0.004812241,0,
00:00.4,-0.002775192,0.002626419,-0.004823685,0,
00:00.4,-0.002775192,0.002592087,-0.004812241,0,
00:00.4,-0.002780914,0.002586365,-0.004846573,0,
00:00.4,-0.00279808,0.002569199,-0.004777908,0,
00:00.4,-0.002780914,0.002574921,-0.004720688,0,
00:00.4,-0.002786636,0.002574921,-0.004829407,0,
00:00.4,-0.00276947,0.002586365,-0.004840851,0,
00:00.4,-0.002775192,0.002592087,-0.004760742,0,
00:00.5,-0.002815247,0.002586365,-0.004812241,0,
00:00.5,-0.002786636,0.002563477,-0.004777908,0,
00:00.5,-0.002803802,0.002574921,-0.004766464,0,
00:00.5,-0.002780914,0.002557755,-0.004858017,0,
00:00.5,-0.002775192,0.002586365,-0.004840851,0,
00:00.5,-0.002786636,0.002592087,-0.004795074,0,
00:00.5,-0.00279808,0.002592087,-0.004789352,0,
00:00.5,-0.002786636,0.002574921,-0.004777908,0,
00:00.5,-0.002775192,0.002620697,-0.004840851,0,
00:00.5,-0.002763748,0.002603531,-0.004823685,0,
00:00.5,-0.002758026,0.002597809,-0.004806519,0,
00:00.5,-0.002780914,0.002563477,-0.004858017,0,
00:00.5,-0.002815247,0.002563477,-0.00475502,0,
00:00.5,-0.002803802,0.002569199,-0.00475502,0,
00:00.5,-0.00279808,0.002569199,-0.004772186,0,
00:00.5,-0.002780914,0.002637863,-0.00478363,0,
00:00.5,-0.002792358,0.002580643,-0.004852295,0,
00:00.5,-0.002792358,0.002552032,-0.004829407,0,
00:00.5,-0.002780914,0.002569199,-0.004789352,0,
00:00.5,-0.002752304,0.002586365,-0.004749298,0,
00:00.5,-0.002763748,0.002574921,-0.004812241,0,
00:00.5,-0.002815247,0.002540588,-0.004840851,0,
00:00.5,-0.002815247,0.002563477,-0.004817963,0,
00:00.5,-0.002792358,0.002563477,-0.004795074,0,
00:00.5,-0.002775192,0.002580643,-0.004795074,0,
00:00.6,-0.002775192,0.002597809,-0.00478363,0,
00:00.6,-0.002746582,0.002614975,-0.004806519,0,
00:00.6,-0.002786636,0.002597809,-0.004875183,0,
00:00.6,-0.002775192,0.002586365,-0.00478363,0,
00:00.6,-0.002780914,0.002574921,-0.004777908,0,
00:00.6,-0.002803802,0.002586365,-0.004846573,0,
00:00.6,-0.002803802,0.002569199,-0.004806519,0,
00:00.6,-0.002786636,0.002557755,-0.004766464,0,
00:00.6,-0.002786636,0.002563477,-0.004789352,0,
00:00.6,-0.002763748,0.002580643,-0.004806519,0,
00:00.6,-0.002746582,0.002609253,-0.004806519,0,
00:00.6,-0.002775192,0.002592087,-0.004869461,0,
00:00.6,-0.002803802,0.002632141,-0.004823685,0,
00:00.6,-0.002786636,0.002586365,-0.004709244,0,
00:00.6,-0.002729416,0.002592087,-0.004732132,0,
00:00.6,-0.002815247,0.002540588,-0.004892349,0,
00:00.6,-0.002809525,0.00254631,-0.00478363,0,
00:00.6,-0.002780914,0.002574921,-0.0046978,0,
00:00.6,-0.002758026,0.002597809,-0.004772186,0,
00:00.6,-0.002809525,0.002552032,-0.004812241,0,
00:00.6,-0.002803802,0.002563477,-0.004760742,0,
00:00.6,-0.002780914,0.002614975,-0.004869461,0,
00:00.6,-0.002758026,0.002592087,-0.004829407,0,
00:00.6,-0.002775192,0.002552032,-0.004823685,0,
00:00.6,-0.002786636,0.002586365,-0.004846573,0,
00:00.7,-0.002752304,0.002603531,-0.004777908,0,
00:00.7,-0.002780914,0.002580643,-0.004789352,0,
00:00.7,-0.002809525,0.002586365,-0.004858017,0,
00:00.7,-0.002809525,0.002563477,-0.004732132,0,
00:00.7,-0.00279808,0.002574921,-0.004743576,0,
00:00.7,-0.002775192,0.002580643,-0.004823685,0,
00:00.7,-0.00276947,0.002609253,-0.004806519,0,
00:00.7,-0.002780914,0.002592087,-0.004817963,0,
00:00.7,-0.002815247,0.00254631,-0.00478363,0,
00:00.7,-0.002780914,0.002569199,-0.004749298,0,
00:00.7,-0.002752304,0.002597809,-0.00472641,0,
00:00.7,-0.002775192,0.002609253,-0.004732132,0,
00:00.7,-0.002809525,0.002552032,-0.004863739,0,
00:00.7,-0.002809525,0.002563477,-0.004823685,0,
00:00.7,-0.002786636,0.002580643,-0.004789352,0,
00:00.7,-0.002792358,0.002563477,-0.004817963,0,
00:00.7,-0.002775192,0.002620697,-0.00478363,0,
00:00.7,-0.002775192,0.002597809,-0.004806519,0,
00:00.7,-0.00276947,0.002569199,-0.004858017,0,
00:00.7,-0.002780914,0.002563477,-0.004772186,0,
00:00.7,-0.00276947,0.002580643,-0.004766464,0,
00:00.7,-0.002763748,0.002569199,-0.004852295,0,
00:00.7,-0.002820969,0.002557755,-0.004737854,0,
00:00.7,-0.002792358,0.002603531,-0.004766464,0,
00:00.7,-0.002792358,0.002586365,-0.00478363,0,
00:00.8,-0.002775192,0.002569199,-0.004800797,0,
00:00.8,-0.002780914,0.002574921,-0.004766464,0,
00:00.8,-0.002758026,0.002592087,-0.004749298,0,
00:00.8,-0.002752304,0.002614975,-0.004795074,0,
00:00.8,-0.002809525,0.002597809,-0.004829407,0,
00:00.8,-0.002809525,0.002586365,-0.004812241,0,
00:00.8,-0.00279808,0.002557755,-0.004806519,0,
00:00.8,-0.002775192,0.002569199,-0.004760742,0,
00:00.8,-0.002775192,0.002586365,-0.004777908,0,
00:00.8,-0.00279808,0.002569199,-0.004789352,0,
00:00.8,-0.002775192,0.002592087,-0.004795074,0,
00:00.8,-0.002786636,0.002592087,-0.00475502,0,
00:00.8,-0.002809525,0.002552032,-0.004743576,0,
00:00.8,-0.00279808,0.002574921,-0.004795074,0,
00:00.8,-0.002775192,0.002592087,-0.004777908,0,
00:00.8,-0.002729416,0.002614975,-0.004777908,0,
00:00.8,-0.00276947,0.002580643,-0.004789352,0,
00:00.8,-0.002809525,0.002563477,-0.004772186,0,
00:00.8,-0.002763748,0.002597809,-0.00478363,0,
00:00.8,-0.002786636,0.002557755,-0.004737854,0,
00:00.8,-0.002792358,0.002569199,-0.004835129,0,
00:00.8,-0.00279808,0.002586365,-0.004800797,0,
00:00.8,-0.00279808,0.002609253,-0.004800797,0,
00:00.8,-0.00279808,0.002620697,-0.004772186,0,
00:00.8,-0.002780914,0.002603531,-0.004795074,0,
00:00.9,-0.002780914,0.002574921,-0.004714966,0,
00:00.9,-0.002763748,0.002603531,-0.004732132,0,
00:00.9,-0.002758026,0.002569199,-0.004800797,0,
00:00.9,-0.002792358,0.002540588,-0.00475502,0,
00:00.9,-0.002809525,0.002552032,-0.004732132,0,
00:00.9,-0.00276947,0.002614975,-0.004737854,0,
00:00.9,-0.002786636,0.002586365,-0.004749298,0,
00:00.9,-0.002803802,0.002569199,-0.004812241,0,
00:00.9,-0.002792358,0.002557755,-0.004795074,0,
00:00.9,-0.002780914,0.002580643,-0.004749298,0,
00:00.9,-0.00276947,0.002597809,-0.004760742,0,
00:00.9,-0.002803802,0.002569199,-0.004795074,0,
00:00.9,-0.00279808,0.002574921,-0.004800797,0,
00:00.9,-0.002752304,0.002620697,-0.004737854,0,
00:00.9,-0.002729416,0.002620697,-0.004823685,0,
00:00.9,-0.002786636,0.002597809,-0.004795074,0,
00:00.9,-0.002809525,0.002540588,-0.004743576,0,
00:00.9,-0.002803802,0.002592087,-0.004795074,0,
00:00.9,-0.002792358,0.002603531,-0.004732132,0,
00:00.9,-0.002786636,0.002574921,-0.004709244,0,
00:00.9,-0.00279808,0.00254631,-0.004720688,0,
00:00.9,-0.002786636,0.002557755,-0.00472641,0,
00:00.9,-0.002786636,0.002557755,-0.00472641,0,
00:00.9,-0.002780914,0.002586365,-0.00472641,0,
00:00.9,-0.002752304,0.002655029,-0.004714966,0,
00:01.0,-0.002746582,0.002632141,-0.004863739,0,
00:01.0,-0.002763748,0.002586365,-0.004743576,0,
00:01.0,-0.002815247,0.002603531,-0.004789352,0,
00:01.0,-0.002780914,0.002586365,-0.004732132,0,
00:01.0,-0.00279808,0.002552032,-0.0046978,0,
00:01.0,-0.002792358,0.002569199,-0.004703522,0,
00:01.0,-0.00276947,0.002597809,-0.004732132,0,
00:01.0,-0.002803802,0.002574921,-0.004749298,0,
00:01.0,-0.002786636,0.002574921,-0.004772186,0,
00:01.0,-0.00279808,0.002563477,-0.004720688,0,
00:01.0,-0.002809525,0.00254631,-0.00475502,0,
00:01.0,-0.002763748,0.002609253,-0.004732132,0,
00:00:01,-0.002758026,0.002597809,-0.004812241,0,
00:01.0,-0.002803802,0.002563477,-0.004714966,0,
00:01.0,-0.002792358,0.002597809,-0.004743576,0,
00:01.0,-0.002803802,0.002557755,-0.0046978,0,
00:01.0,-0.002792358,0.002580643,-0.004692078,0,
00:01.0,-0.002786636,0.002557755,-0.004743576,0,
00:01.0,-0.002763748,0.002597809,-0.004777908,0,
00:01.0,-0.00274086,0.002655029,-0.004743576,0,
00:01.0,-0.002752304,0.002649307,-0.004766464,0,
00:01.0,-0.002792358,0.002563477,-0.004686356,0,
00:01.0,-0.002809525,0.002569199,-0.00472641,0,
00:01.0,-0.002820969,0.002534866,-0.004714966,0,
00:01.0,-0.002809525,0.00254631,-0.004709244,0,
00:01.1,-0.002780914,0.002563477,-0.004680634,0,
00:01.1,-0.00276947,0.002592087,-0.004634857,0,
00:01.1,-0.00279808,0.002563477,-0.004766464,0,
00:01.1,-0.002792358,0.002563477,-0.004772186,0,
00:01.1,-0.002775192,0.002603531,-0.004772186,0,
00:01.1,-0.002775192,0.002632141,-0.004772186,0,
00:01.1,-0.002758026,0.002592087,-0.004749298,0,
00:01.1,-0.00279808,0.002574921,-0.00472641,0,
00:01.1,-0.002809525,0.002569199,-0.004663467,0,
00:01.1,-0.002803802,0.002574921,-0.004663467,0,
00:01.1,-0.002792358,0.002569199,-0.0046978,0,
00:01.1,-0.00279808,0.002557755,-0.004709244,0,
00:01.1,-0.002792358,0.002574921,-0.004709244,0,
00:01.1,-0.002746582,0.002614975,-0.004657745,0,
00:01.1,-0.002723694,0.002586365,-0.004652023,0,
00:01.1,-0.00276947,0.002660751,-0.004903793,0,
00:01.1,-0.002786636,0.002603531,-0.004772186,0,
00:01.1,-0.002815247,0.002557755,-0.0046978,0,
00:01.1,-0.002775192,0.002574921,-0.004674911,0,
00:01.1,-0.002780914,0.002563477,-0.004669189,0,
00:01.1,-0.002826691,0.002529144,-0.004680634,0,
00:01.1,-0.002775192,0.002586365,-0.004640579,0,
00:01.1,-0.002780914,0.002580643,-0.004652023,0,
00:01.1,-0.002826691,0.002534866,-0.004732132,0,
00:01.1,-0.002803802,0.002540588,-0.00472641,0,
00:01.2,-0.002758026,0.002592087,-0.004720688,0,
00:01.2,-0.002729416,0.002695084,-0.004772186,0,
00:01.2,-0.002763748,0.002637863,-0.004657745,0,
00:01.2,-0.002786636,0.002563477,-0.004709244,0,
00:01.2,-0.00279808,0.00254631,-0.004732132,0,
00:01.2,-0.002792358,0.002552032,-0.004692078,0,
00:01.2,-0.00279808,0.002563477,-0.004680634,0,
00:01.2,-0.002752304,0.002603531,-0.0046978,0,
00:01.2,-0.002752304,0.002597809,-0.004657745,0,
00:01.2,-0.002815247,0.002569199,-0.004732132,0,
00:01.2,-0.002803802,0.002540588,-0.004680634,0,
00:01.2,-0.002763748,0.002603531,-0.004606247,0,
00:01.2,-0.002763748,0.002614975,-0.004623413,0,
00:01.2,-0.002786636,0.002609253,-0.004732132,0,
00:01.2,-0.00279808,0.002574921,-0.004749298,0,
00:01.2,-0.002792358,0.002552032,-0.004640579,0,
00:01.2,-0.00274086,0.002603531,-0.004577637,0,
00:01.2,-0.002820969,0.002552032,-0.004686356,0,
00:01.2,-0.002780914,0.002563477,-0.00472641,0,
00:01.2,-0.00274086,0.002637863,-0.004709244,0,
00:01.2,-0.002729416,0.002649307,-0.004629135,0,
00:01.2,-0.002763748,0.002597809,-0.004674911,0,
00:01.2,-0.002803802,0.002597809,-0.004703522,0,
00:01.2,-0.002826691,0.002534866,-0.0046978,0,
00:01.2,-0.00276947,0.002574921,-0.004629135,0,
00:01.3,-0.002809525,0.002569199,-0.004640579,0,
00:01.3,-0.002763748,0.002609253,-0.004577637,0,
00:01.3,-0.00279808,0.002563477,-0.004743576,0,
00:01.3,-0.00276947,0.002586365,-0.0046978,0,
00:01.3,-0.002792358,0.002586365,-0.004674911,0,
00:01.3,-0.002780914,0.002597809,-0.004629135,0,
00:01.3,-0.002735138,0.002637863,-0.004571915,0,
00:01.3,-0.002826691,0.00254631,-0.004737854,0,
00:01.3,-0.002786636,0.002597809,-0.004686356,0,
00:01.3,-0.002792358,0.002563477,-0.004652023,0,
00:01.3,-0.002752304,0.002592087,-0.004623413,0,
00:01.3,-0.002809525,0.002609253,-0.004554749,0,
00:01.3,-0.002758026,0.002603531,-0.004669189,0,
00:01.3,-0.002786636,0.002574921,-0.004692078,0,
00:01.3,-0.002780914,0.002603531,-0.004606247,0,
00:01.3,-0.002803802,0.002563477,-0.004686356,0,
00:01.3,-0.002786636,0.002620697,-0.004714966,0,
00:01.3,-0.002786636,0.002592087,-0.004737854,0,
00:01.3,-0.00279808,0.002580643,-0.004640579,0,
00:01.3,-0.002775192,0.002603531,-0.004692078,0,
00:01.3,-0.00276947,0.002569199,-0.004669189,0,
00:01.3,-0.002786636,0.002614975,-0.004623413,0,
00:01.3,-0.002792358,0.002592087,-0.004617691,0,
00:01.3,-0.002786636,0.002569199,-0.004629135,0,
00:01.3,-0.002792358,0.002592087,-0.004634857,0,
00:01.4,-0.002775192,0.002592087,-0.004571915,0,
00:01.4,-0.00279808,0.002580643,-0.004617691,0,
00:01.4,-0.002809525,0.002574921,-0.004680634,0,
00:01.4,-0.002792358,0.002574921,-0.004652023,0,
00:01.4,-0.00276947,0.002592087,-0.004686356,0,
00:01.4,-0.002786636,0.002603531,-0.004663467,0,
00:01.4,-0.002786636,0.002603531,-0.004617691,0,
00:01.4,-0.002792358,0.002592087,-0.004657745,0,
00:01.4,-0.002786636,0.002614975,-0.004669189,0,
00:01.4,-0.00276947,0.002637863,-0.004652023,0,
00:01.4,-0.002786636,0.002592087,-0.004600525,0,
00:01.4,-0.002792358,0.002574921,-0.004583359,0,
00:01.4,-0.00279808,0.002563477,-0.004623413,0,
00:01.4,-0.002815247,0.002569199,-0.004640579,0,
00:01.4,-0.002803802,0.002586365,-0.004600525,0,
00:01.4,-0.002803802,0.002597809,-0.004623413,0,
00:01.4,-0.002803802,0.002574921,-0.004674911,0,
00:01.4,-0.002792358,0.002580643,-0.004640579,0,
00:01.4,-0.00276947,0.002586365,-0.004611969,0,
00:01.4,-0.002775192,0.002597809,-0.004554749,0,
00:01.4,-0.002775192,0.002580643,-0.004611969,0,
00:01.4,-0.002826691,0.002597809,-0.004686356,0,
00:01.4,-0.002815247,0.002592087,-0.004640579,0,
00:01.4,-0.002775192,0.002586365,-0.004657745,0,
00:01.4,-0.002746582,0.002626419,-0.004669189,0,
00:01.5,-0.00279808,0.002609253,-0.004566193,0,
00:01.5,-0.00279808,0.002563477,-0.004554749,0,
00:01.5,-0.002786636,0.002580643,-0.004549026,0,
00:01.5,-0.002803802,0.002597809,-0.004583359,0,
00:01.5,-0.002803802,0.002580643,-0.004657745,0,
00:01.5,-0.00279808,0.002586365,-0.004680634,0,
00:01.5,-0.002746582,0.002597809,-0.004594803,0,
00:01.5,-0.002735138,0.00268364,-0.004543304,0,
00:01.5,-0.002815247,0.002592087,-0.004686356,0,
00:01.5,-0.002815247,0.00254631,-0.004600525,0,
00:01.5,-0.002803802,0.002563477,-0.004577637,0,
00:01.5,-0.00279808,0.002580643,-0.004623413,0,
00:01.5,-0.002763748,0.002609253,-0.004646301,0,
00:01.5,-0.002780914,0.002597809,-0.004686356,0,
00:01.5,-0.002803802,0.002592087,-0.004589081,0,
00:01.5,-0.002803802,0.002592087,-0.004594803,0,
00:01.5,-0.00279808,0.002586365,-0.004543304,0,
00:01.5,-0.002775192,0.002597809,-0.004537582,0,
00:01.5,-0.002775192,0.002609253,-0.004589081,0,
00:01.5,-0.002780914,0.002626419,-0.004589081,0,
00:01.5,-0.002763748,0.002614975,-0.004543304,0,
00:01.5,-0.002763748,0.002637863,-0.004537582,0,
00:01.5,-0.002815247,0.00254631,-0.004606247,0,
00:01.5,-0.002820969,0.002552032,-0.004623413,0,
00:01.5,-0.002803802,0.002569199,-0.004640579,0,
00:01.6,-0.002746582,0.002620697,-0.004497528,0,
00:01.6,-0.002780914,0.002609253,-0.004589081,0,
00:01.6,-0.002815247,0.002586365,-0.004686356,0,
00:01.6,-0.002792358,0.002592087,-0.004594803,0,
00:01.6,-0.002809525,0.002574921,-0.004554749,0,
00:01.6,-0.002775192,0.002603531,-0.004589081,0,
00:01.6,-0.002775192,0.002614975,-0.004686356,0,
00:01.6,-0.00279808,0.002609253,-0.004629135,0,
00:01.6,-0.002786636,0.002643585,-0.004537582,0,
00:01.6,-0.002763748,0.002580643,-0.004589081,0,
00:01.6,-0.002780914,0.002574921,-0.004623413,0,
00:01.6,-0.002775192,0.002609253,-0.004560471,0,
00:01.6,-0.002803802,0.002580643,-0.004514694,0,
00:01.6,-0.002809525,0.002586365,-0.004606247,0,
00:01.6,-0.002803802,0.002569199,-0.004554749,0,
00:01.6,-0.002803802,0.002592087,-0.004543304,0,
00:01.6,-0.002780914,0.002603531,-0.004537582,0,
00:01.6,-0.002746582,0.002643585,-0.004600525,0,
00:01.6,-0.002803802,0.002586365,-0.004606247,0,
00:01.6,-0.002809525,0.002569199,-0.004560471,0,
00:01.6,-0.002792358,0.002580643,-0.004566193,0,
00:01.6,-0.002786636,0.002609253,-0.004537582,0,
00:01.6,-0.002786636,0.002603531,-0.004589081,0,
00:01.6,-0.002780914,0.002609253,-0.004629135,0,
00:01.6,-0.00276947,0.002626419,-0.004554749,0,
00:01.7,-0.002803802,0.002580643,-0.004589081,0,
00:01.7,-0.002809525,0.002563477,-0.004566193,0,
00:01.7,-0.002809525,0.002597809,-0.004600525,0,
00:01.7,-0.00279808,0.002614975,-0.004549026,0,
00:01.7,-0.00274086,0.002626419,-0.004520416,0,
00:01.7,-0.002792358,0.002569199,-0.004583359,0,
00:01.7,-0.002820969,0.002580643,-0.004589081,0,
00:01.7,-0.002792358,0.002586365,-0.004554749,0,
00:01.7,-0.002780914,0.002592087,-0.004583359,0,
00:01.7,-0.002786636,0.002592087,-0.004554749,0,
00:01.7,-0.002780914,0.002626419,-0.004617691,0,
00:01.7,-0.002792358,0.002609253,-0.004537582,0,
00:01.7,-0.002786636,0.002620697,-0.004571915,0,
00:01.7,-0.002792358,0.002603531,-0.004571915,0,
00:01.7,-0.002775192,0.002597809,-0.004537582,0,
00:01.7,-0.00279808,0.002586365,-0.004594803,0,
00:01.7,-0.002815247,0.002557755,-0.004583359,0,
00:01.7,-0.002792358,0.002580643,-0.004554749,0,
00:01.7,-0.002786636,0.002586365,-0.004508972,0,
00:01.7,-0.002786636,0.002592087,-0.004566193,0,
00:01.7,-0.00279808,0.002574921,-0.004583359,0,
00:01.7,-0.00279808,0.002592087,-0.004571915,0,
00:01.7,-0.002780914,0.002626419,-0.00453186,0,
00:01.7,-0.00279808,0.002597809,-0.004577637,0,
00:01.7,-0.00276947,0.002609253,-0.004526138,0,
00:01.8,-0.002786636,0.002614975,-0.004600525,0,
00:01.8,-0.002815247,0.002603531,-0.004571915,0,
00:01.8,-0.002815247,0.002574921,-0.00453186,0,
00:01.8,-0.002792358,0.002574921,-0.004577637,0,
00:01.8,-0.002786636,0.002592087,-0.004543304,0,
00:01.8,-0.002763748,0.002626419,-0.004594803,0,
00:01.8,-0.002792358,0.002614975,-0.004549026,0,
00:01.8,-0.002792358,0.002597809,-0.004554749,0,
00:01.8,-0.002792358,0.002569199,-0.004560471,0,
00:01.8,-0.00279808,0.002592087,-0.004514694,0,
00:01.8,-0.002792358,0.002632141,-0.004508972,0,
00:01.8,-0.002786636,0.002672195,-0.004549026,0,
00:01.8,-0.00279808,0.002586365,-0.004583359,0,
00:01.8,-0.002792358,0.002574921,-0.004571915,0,
00:01.8,-0.002763748,0.002603531,-0.004537582,0,
00:01.8,-0.002763748,0.002609253,-0.004554749,0,
00:01.8,-0.002815247,0.002597809,-0.004571915,0,
00:01.8,-0.002820969,0.002574921,-0.004520416,0,
00:01.8,-0.002792358,0.002597809,-0.004537582,0,
00:01.8,-0.002786636,0.002586365,-0.004571915,0,
00:01.8,-0.002775192,0.002620697,-0.004560471,0,
00:01.8,-0.002786636,0.002637863,-0.004486084,0,
00:01.8,-0.002775192,0.002632141,-0.004497528,0,
00:01.8,-0.002752304,0.002609253,-0.004549026,0,
00:01.8,-0.002803802,0.002580643,-0.004571915,0,
00:01.9,-0.002809525,0.002569199,-0.004549026,0,
00:01.9,-0.00279808,0.002580643,-0.00453186,0,
00:01.9,-0.00279808,0.002597809,-0.004554749,0,
00:01.9,-0.002803802,0.002580643,-0.004520416,0,
00:01.9,-0.00279808,0.002597809,-0.004526138,0,
00:01.9,-0.002792358,0.002592087,-0.004537582,0,
00:01.9,-0.002792358,0.002597809,-0.004543304,0,
00:01.9,-0.002792358,0.002609253,-0.004537582,0,
00:01.9,-0.002735138,0.002672195,-0.004583359,0,
00:01.9,-0.002689362,0.002746582,-0.004617691,0,
00:01.9,-0.002763748,0.002666473,-0.004526138,0,
00:01.9,-0.002786636,0.002637863,-0.004526138,0,
00:01.9,-0.002809525,0.002569199,-0.004514694,0,
00:01.9,-0.002809525,0.002523422,-0.00450325,0,
00:01.9,-0.002820969,0.002552032,-0.004554749,0,
00:01.9,-0.002803802,0.002569199,-0.004526138,0,
00:01.9,-0.002803802,0.002580643,-0.004508972,0,
00:01.9,-0.00279808,0.002592087,-0.004526138,0,
00:01.9,-0.002792358,0.002597809,-0.004526138,0,
00:01.9,-0.002792358,0.002597809,-0.00453186,0,
00:01.9,-0.00279808,0.002592087,-0.004537582,0,
00:01.9,-0.002803802,0.002592087,-0.004537582,0,
00:01.9,-0.002792358,0.002597809,-0.004537582,0,
00:01.9,-0.002786636,0.002609253,-0.004537582,0,
00:01.9,-0.002786636,0.002609253,-0.004537582,0,
00:02.0,-0.002763748,0.002626419,-0.004514694,0,
00:02.0,-0.002723694,0.00279808,-0.004617691,0,
00:02.0,-0.002700806,0.00271225,-0.00472641,0,
00:02.0,-0.002780914,0.002534866,-0.004480362,0,
00:02.0,-0.00279808,0.002557755,-0.004423141,0,
00:02.0,-0.002780914,0.002557755,-0.004508972,0,
00:02.0,-0.002815247,0.002592087,-0.004549026,0,
00:02.0,-0.002803802,0.002580643,-0.004434586,0,
00:02.0,-0.002803802,0.002580643,-0.004480362,0,
00:02.0,-0.002803802,0.002603531,-0.004520416,0,
00:02.0,-0.002786636,0.002609253,-0.00450325,0,
00:02.0,-0.00279808,0.002597809,-0.004526138,0,
00:00:02,-0.002786636,0.002632141,-0.004554749,0,
00:02.0,-0.002775192,0.002637863,-0.004560471,0,
00:02.0,-0.002780914,0.002614975,-0.004480362,0,
00:02.0,-0.002780914,0.002609253,-0.004514694,0,
00:02.0,-0.002792358,0.002614975,-0.004526138,0,
00:02.0,-0.002786636,0.002597809,-0.004571915,0,
00:02.0,-0.002803802,0.002563477,-0.004486084,0,
00:02.0,-0.002803802,0.002597809,-0.004508972,0,
00:02.0,-0.002780914,0.002609253,-0.004537582,0,
00:02.0,-0.002752304,0.002637863,-0.004571915,0,
00:02.0,-0.00279808,0.002626419,-0.004514694,0,
00:02.0,-0.002792358,0.002626419,-0.004537582,0,
00:02.0,-0.002786636,0.002626419,-0.004520416,0,
00:02.1,-0.002786636,0.002592087,-0.004497528,0,
00:02.1,-0.002792358,0.002614975,-0.004537582,0,
00:02.1,-0.002809525,0.002597809,-0.004497528,0,
00:02.1,-0.002803802,0.002603531,-0.004491806,0,
00:02.1,-0.002746582,0.002660751,-0.004537582,0,
00:02.1,-0.002735138,0.002614975,-0.004600525,0,
00:02.1,-0.002780914,0.002637863,-0.004514694,0,
00:02.1,-0.002815247,0.002620697,-0.004491806,0,
00:02.1,-0.002792358,0.002609253,-0.004463196,0,
00:02.1,-0.002792358,0.002557755,-0.004554749,0,
00:02.1,-0.002809525,0.002586365,-0.004514694,0,
00:02.1,-0.002786636,0.002620697,-0.004491806,0,
00:02.1,-0.002792358,0.002620697,-0.004491806,0,
00:02.1,-0.00279808,0.002592087,-0.00450325,0,
00:02.1,-0.00279808,0.002586365,-0.004514694,0,
00:02.1,-0.002786636,0.002586365,-0.004520416,0,
00:02.1,-0.002786636,0.002597809,-0.004520416,0,
00:02.1,-0.002780914,0.002620697,-0.004543304,0,
00:02.1,-0.00276947,0.002643585,-0.004508972,0,
00:02.1,-0.002763748,0.002655029,-0.004571915,0,
00:02.1,-0.002780914,0.002637863,-0.004543304,0,
00:02.1,-0.002786636,0.002603531,-0.004491806,0,
00:02.1,-0.00276947,0.002626419,-0.004514694,0,
00:02.1,-0.002780914,0.002620697,-0.004491806,0,
00:02.1,-0.002792358,0.002620697,-0.004486084,0,
00:02.2,-0.002786636,0.002592087,-0.00453186,0,
00:02.2,-0.002809525,0.002592087,-0.004543304,0,
00:02.2,-0.002775192,0.002660751,-0.004486084,0,
00:02.2,-0.002775192,0.002643585,-0.004543304,0,
00:02.2,-0.002786636,0.002592087,-0.004497528,0,
00:02.2,-0.00279808,0.002597809,-0.004457474,0,
00:02.2,-0.00279808,0.002597809,-0.004514694,0,
00:02.2,-0.002786636,0.002603531,-0.004514694,0,
00:02.2,-0.002786636,0.002609253,-0.004508972,0,
00:02.2,-0.002786636,0.002614975,-0.00453186,0,
00:02.2,-0.002786636,0.002609253,-0.004520416,0,
00:02.2,-0.00279808,0.002597809,-0.004497528,0,
00:02.2,-0.002786636,0.002649307,-0.004508972,0,
00:02.2,-0.00276947,0.002666473,-0.004486084,0,
00:02.2,-0.002717972,0.002632141,-0.004463196,0,
00:02.2,-0.002758026,0.002637863,-0.004652023,0,
00:02.2,-0.002826691,0.002540588,-0.004526138,0,
00:02.2,-0.002826691,0.002563477,-0.004434586,0,
00:02.2,-0.002809525,0.002603531,-0.00447464,0,
00:02.2,-0.00279808,0.002597809,-0.004491806,0,
00:02.2,-0.002792358,0.002597809,-0.00450325,0,
00:02.2,-0.00279808,0.002609253,-0.00450325,0,
00:02.2,-0.002792358,0.002614975,-0.00450325,0,
00:02.2,-0.002763748,0.002666473,-0.004508972,0,
00:02.2,-0.002700806,0.002775192,-0.004623413,0,
00:02.3,-0.002723694,0.00268364,-0.004629135,0,
00:02.3,-0.002763748,0.002609253,-0.004486084,0,
00:02.3,-0.002775192,0.002609253,-0.00453186,0,
00:02.3,-0.002815247,0.002574921,-0.004360199,0,
00:02.3,-0.002826691,0.002563477,-0.004457474,0,
00:02.3,-0.002809525,0.002586365,-0.004480362,0,
00:02.3,-0.002803802,0.002586365,-0.004497528,0,
00:02.3,-0.002792358,0.002603531,-0.00450325,0,
00:02.3,-0.002786636,0.002609253,-0.004508972,0,
00:02.3,-0.002786636,0.002609253,-0.004508972,0,
00:02.3,-0.002792358,0.002603531,-0.004514694,0,
00:02.3,-0.00279808,0.002609253,-0.004514694,0,
00:02.3,-0.00279808,0.002609253,-0.004514694,0,
00:02.3,-0.002792358,0.002632141,-0.004514694,0,
00:02.3,-0.002786636,0.002637863,-0.004514694,0,
00:02.3,-0.002763748,0.002637863,-0.004508972,0,
00:02.3,-0.002735138,0.002637863,-0.004577637,0,
00:02.3,-0.002723694,0.002660751,-0.004629135,0,
00:02.3,-0.002735138,0.002700806,-0.004537582,0,
00:02.3,-0.002792358,0.002603531,-0.00447464,0,
00:02.3,-0.002826691,0.002563477,-0.004451752,0,
00:02.3,-0.002815247,0.002580643,-0.00450325,0,
00:02.3,-0.002803802,0.002603531,-0.004457474,0,
00:02.3,-0.00279808,0.002597809,-0.00450325,0,
00:02.3,-0.002786636,0.002603531,-0.004497528,0,
00:02.4,-0.002763748,0.002632141,-0.004508972,0,
00:02.4,-0.002758026,0.002655029,-0.004491806,0,
00:02.4,-0.00276947,0.002700806,-0.004571915,0,
00:02.4,-0.00274086,0.002655029,-0.004600525,0,
00:02.4,-0.002763748,0.002632141,-0.004468918,0,
00:02.4,-0.002780914,0.002643585,-0.004463196,0,
00:02.4,-0.002752304,0.002614975,-0.004577637,0,
00:02.4,-0.00279808,0.002557755,-0.004520416,0,
00:02.4,-0.002792358,0.002592087,-0.004428864,0,
00:02.4,-0.002775192,0.002637863,-0.004486084,0,
00:02.4,-0.00276947,0.002677917,-0.004497528,0,
00:02.4,-0.002815247,0.002574921,-0.004543304,0,
00:02.4,-0.002803802,0.002586365,-0.004497528,0,
00:02.4,-0.002786636,0.002597809,-0.004497528,0,
00:02.4,-0.002763748,0.002632141,-0.004549026,0,
00:02.4,-0.00279808,0.002626419,-0.00450325,0,
00:02.4,-0.00279808,0.002614975,-0.004491806,0,
00:02.4,-0.002775192,0.002620697,-0.004537582,0,
00:02.4,-0.00274086,0.002672195,-0.004554749,0,
00:02.4,-0.002723694,0.00268364,-0.004554749,0,
00:02.4,-0.002803802,0.002626419,-0.004451752,0,
00:02.4,-0.002792358,0.002603531,-0.004486084,0,
00:02.4,-0.002780914,0.002620697,-0.004468918,0,
00:02.4,-0.002729416,0.002660751,-0.004497528,0,
00:02.4,-0.002775192,0.002632141,-0.004549026,0,
00:02.5,-0.002775192,0.002614975,-0.00453186,0,
00:02.5,-0.002763748,0.002632141,-0.00447464,0,
00:02.5,-0.002803802,0.002580643,-0.004497528,0,
00:02.5,-0.002815247,0.002597809,-0.004543304,0,
00:02.5,-0.002809525,0.002603531,-0.004486084,0,
00:02.5,-0.002786636,0.002609253,-0.004520416,0,
00:02.5,-0.00274086,0.002672195,-0.004560471,0,
00:02.5,-0.00274086,0.002700806,-0.004508972,0,
00:02.5,-0.002752304,0.002626419,-0.004560471,0,
00:02.5,-0.002735138,0.002689362,-0.004629135,0,
00:02.5,-0.002792358,0.002609253,-0.004537582,0,
00:02.5,-0.002803802,0.002609253,-0.004428864,0,
00:02.5,-0.002803802,0.002603531,-0.004405975,0,
00:02.5,-0.002803802,0.002626419,-0.004549026,0,
00:02.5,-0.002792358,0.002597809,-0.004526138,0,
00:02.5,-0.002780914,0.002626419,-0.00447464,0,
00:02.5,-0.002792358,0.002626419,-0.004554749,0,
00:02.5,-0.002792358,0.002620697,-0.00453186,0,
00:02.5,-0.002803802,0.002609253,-0.00447464,0,
00:02.5,-0.002780914,0.002603531,-0.004486084,0,
00:02.5,-0.002780914,0.002609253,-0.004508972,0,
00:02.5,-0.002786636,0.002609253,-0.004543304,0,
00:02.5,-0.002792358,0.002614975,-0.004514694,0,
00:02.5,-0.002792358,0.002643585,-0.004508972,0,
00:02.5,-0.002775192,0.002637863,-0.00450325,0,
00:02.6,-0.002775192,0.002643585,-0.004594803,0,
00:02.6,-0.002792358,0.002649307,-0.004549026,0,
00:02.6,-0.002792358,0.002592087,-0.004537582,0,
00:02.6,-0.00276947,0.002626419,-0.004514694,0,
00:02.6,-0.00274086,0.002672195,-0.004623413,0,
00:02.6,-0.002780914,0.002626419,-0.004491806,0,
00:02.6,-0.002815247,0.002614975,-0.00453186,0,
00:02.6,-0.002780914,0.002637863,-0.004486084,0,
00:02.6,-0.002786636,0.002649307,-0.00453186,0,
00:02.6,-0.00279808,0.002637863,-0.004560471,0,
00:02.6,-0.002803802,0.002597809,-0.004491806,0,
00:02.6,-0.002775192,0.002597809,-0.004486084,0,
00:02.6,-0.002786636,0.002632141,-0.004554749,0,
00:02.6,-0.00276947,0.002672195,-0.004583359,0,
00:02.6,-0.002775192,0.002666473,-0.004560471,0,
00:02.6,-0.002815247,0.002592087,-0.004468918,0,
00:02.6,-0.002792358,0.002609253,-0.004514694,0,
00:02.6,-0.00279808,0.002655029,-0.004623413,0,
00:02.6,-0.002786636,0.002637863,-0.004554749,0,
00:02.6,-0.002780914,0.002643585,-0.004497528,0,
00:02.6,-0.00276947,0.002637863,-0.004583359,0,
00:02.6,-0.00276947,0.002626419,-0.004520416,0,
00:02.6,-0.00279808,0.002643585,-0.004543304,0,
00:02.6,-0.002780914,0.002603531,-0.004594803,0,
00:02.6,-0.002763748,0.002643585,-0.00453186,0,
00:02.7,-0.002792358,0.002637863,-0.004537582,0,
00:02.7,-0.00279808,0.002620697,-0.00450325,0,
00:02.7,-0.002780914,0.002620697,-0.004554749,0,
00:02.7,-0.00279808,0.002632141,-0.004537582,0,
00:02.7,-0.00279808,0.002614975,-0.004508972,0,
00:02.7,-0.002746582,0.002637863,-0.004554749,0,
00:02.7,-0.002758026,0.002655029,-0.004554749,0,
00:02.7,-0.002809525,0.002597809,-0.00453186,0,
00:02.7,-0.002803802,0.002614975,-0.00453186,0,
00:02.7,-0.002786636,0.002643585,-0.00453186,0,
00:02.7,-0.002763748,0.002666473,-0.004554749,0,
00:02.7,-0.002752304,0.002677917,-0.004566193,0,
00:02.7,-0.002763748,0.002666473,-0.004611969,0,
00:02.7,-0.00279808,0.002603531,-0.00453186,0,
00:02.7,-0.002832413,0.002586365,-0.004508972,0,
00:02.7,-0.002815247,0.002592087,-0.004554749,0,
00:02.7,-0.002758026,0.002649307,-0.004594803,0,
00:02.7,-0.002775192,0.002643585,-0.004583359,0,
00:02.7,-0.002792358,0.002632141,-0.004526138,0,
00:02.7,-0.002780914,0.002632141,-0.004549026,0,
00:02.7,-0.002786636,0.002632141,-0.004549026,0,
00:02.7,-0.002786636,0.002626419,-0.004497528,0,
00:02.7,-0.00276947,0.002643585,-0.004508972,0,
00:02.7,-0.002723694,0.002672195,-0.00453186,0,
00:02.7,-0.002792358,0.002695084,-0.004611969,0,
00:02.8,-0.002786636,0.002660751,-0.004640579,0,
00:02.8,-0.002792358,0.002569199,-0.00453186,0,
00:02.8,-0.002809525,0.002609253,-0.004526138,0,
00:02.8,-0.002803802,0.002597809,-0.004560471,0,
00:02.8,-0.002780914,0.002620697,-0.004566193,0,
00:02.8,-0.002780914,0.002626419,-0.00453186,0,
00:02.8,-0.002809525,0.002614975,-0.004514694,0,
00:02.8,-0.00279808,0.002614975,-0.004543304,0,
00:02.8,-0.00279808,0.002620697,-0.004554749,0,
00:02.8,-0.00279808,0.002626419,-0.004560471,0,
00:02.8,-0.002780914,0.002672195,-0.004554749,0,
00:02.8,-0.002758026,0.002695084,-0.0046978,0,
00:02.8,-0.00274086,0.002655029,-0.004566193,0,
00:02.8,-0.002717972,0.002717972,-0.004514694,0,
00:02.8,-0.00279808,0.002620697,-0.004663467,0,
00:02.8,-0.00276947,0.002677917,-0.004520416,0,
00:02.8,-0.00279808,0.002592087,-0.004571915,0,
00:02.8,-0.002809525,0.002614975,-0.00453186,0,
00:02.8,-0.002775192,0.002637863,-0.004543304,0,
00:02.8,-0.002832413,0.002614975,-0.004508972,0,
00:02.8,-0.00279808,0.002614975,-0.004594803,0,
00:02.8,-0.002780914,0.002632141,-0.004583359,0,
00:02.8,-0.002815247,0.002614975,-0.004549026,0,
00:02.8,-0.002780914,0.002620697,-0.004537582,0,
00:02.8,-0.002792358,0.002609253,-0.004560471,0,
00:02.9,-0.002803802,0.002666473,-0.004566193,0,
00:02.9,-0.002758026,0.002723694,-0.00453186,0,
00:02.9,-0.00276947,0.002637863,-0.004537582,0,
00:02.9,-0.00276947,0.002672195,-0.004692078,0,
00:02.9,-0.00276947,0.002660751,-0.004646301,0,
00:02.9,-0.002803802,0.002597809,-0.004577637,0,
00:02.9,-0.002815247,0.002569199,-0.004497528,0,
00:02.9,-0.002792358,0.002620697,-0.004549026,0,
00:02.9,-0.002803802,0.002660751,-0.004566193,0,
00:02.9,-0.002780914,0.002655029,-0.004514694,0,
00:02.9,-0.002809525,0.002632141,-0.004549026,0,
00:02.9,-0.002820969,0.002614975,-0.004594803,0,
00:02.9,-0.002775192,0.002637863,-0.004594803,0,
00:02.9,-0.002780914,0.002660751,-0.004623413,0,
00:02.9,-0.002729416,0.00271225,-0.004480362,0,
00:02.9,-0.002637863,0.002729416,-0.004600525,0,
00:02.9,-0.002820969,0.002632141,-0.004669189,0,
00:02.9,-0.002775192,0.00279808,-0.004600525,0,
00:02.9,-0.002809525,0.002660751,-0.004646301,0,
00:02.9,-0.002849579,0.0025177,-0.004491806,0,
00:02.9,-0.002792358,0.002609253,-0.004526138,0,
00:02.9,-0.002752304,0.002660751,-0.004554749,0,
00:02.9,-0.00279808,0.002637863,-0.004577637,0,
00:02.9,-0.002763748,0.002637863,-0.004514694,0,
00:02.9,-0.002832413,0.002632141,-0.004652023,0,
00:03.0,-0.002792358,0.002677917,-0.004543304,0,
00:03.0,-0.002792358,0.002643585,-0.004560471,0,
00:03.0,-0.002792358,0.002637863,-0.004594803,0,
00:03.0,-0.002832413,0.002597809,-0.004566193,0,
00:03.0,-0.002820969,0.002603531,-0.004571915,0,
00:03.0,-0.002809525,0.002649307,-0.004589081,0,
00:03.0,-0.002786636,0.002660751,-0.004583359,0,
00:03.0,-0.002792358,0.002655029,-0.004657745,0,
00:03.0,-0.002809525,0.002637863,-0.004571915,0,
00:03.0,-0.002820969,0.002643585,-0.004560471,0,
00:03.0,-0.002803802,0.002614975,-0.004594803,0,
00:03.0,-0.002803802,0.002643585,-0.004560471,0,
00:00:03,-0.002780914,0.002632141,-0.004594803,0,
00:03.0,-0.002775192,0.002672195,-0.004611969,0,
00:03.0,-0.002746582,0.002706528,-0.004692078,0,
00:03.0,-0.002838135,0.002609253,-0.004606247,0,
00:03.0,-0.002803802,0.002660751,-0.004571915,0,
00:03.0,-0.002820969,0.002614975,-0.004583359,0,
00:03.0,-0.002820969,0.002620697,-0.004514694,0,
00:03.0,-0.002803802,0.002637863,-0.004600525,0,
00:03.0,-0.00279808,0.002614975,-0.004640579,0,
00:03.0,-0.00279808,0.002689362,-0.004549026,0,
00:03.0,-0.002815247,0.002689362,-0.004692078,0,
00:03.0,-0.002803802,0.002626419,-0.004634857,0,
00:03.0,-0.002780914,0.002614975,-0.004480362,0,
00:03.1,-0.002803802,0.002620697,-0.004560471,0,
00:03.1,-0.002832413,0.002632141,-0.004611969,0,
00:03.1,-0.002803802,0.002614975,-0.004623413,0,
00:03.1,-0.002820969,0.002614975,-0.004623413,0,
00:03.1,-0.002775192,0.002649307,-0.004606247,0,
00:03.1,-0.002763748,0.002655029,-0.004617691,0,
00:03.1,-0.002832413,0.002609253,-0.004571915,0,
00:03.1,-0.002832413,0.002637863,-0.00453186,0,
00:03.1,-0.002815247,0.002620697,-0.004554749,0,
00:03.1,-0.002809525,0.002637863,-0.004594803,0,
00:03.1,-0.002815247,0.002632141,-0.004583359,0,
00:03.1,-0.002815247,0.002649307,-0.004577637,0,
00:03.1,-0.002786636,0.002660751,-0.004589081,0,
00:03.1,-0.002809525,0.002626419,-0.004589081,0,
00:03.1,-0.002820969,0.002643585,-0.004657745,0,
00:03.1,-0.002809525,0.002660751,-0.004566193,0,
00:03.1,-0.002826691,0.002655029,-0.004611969,0,
00:03.1,-0.002803802,0.002643585,-0.004663467,0,
00:03.1,-0.002826691,0.002626419,-0.004537582,0,
00:03.1,-0.002786636,0.002666473,-0.004606247,0,
00:03.1,-0.002758026,0.002677917,-0.004692078,0,
00:03.1,-0.002820969,0.002597809,-0.004634857,0,
00:03.1,-0.002861023,0.002592087,-0.00447464,0,
00:03.1,-0.002809525,0.002649307,-0.004560471,0,
00:03.1,-0.002792358,0.002660751,-0.004663467,0,
00:03.2,-0.002809525,0.002660751,-0.004549026,0,
00:03.2,-0.002826691,0.002586365,-0.004543304,0,
00:03.2,-0.002838135,0.002626419,-0.004594803,0,
00:03.2,-0.002803802,0.002677917,-0.004577637,0,
00:03.2,-0.002815247,0.002643585,-0.004583359,0,
00:03.2,-0.002826691,0.002649307,-0.004571915,0,
00:03.2,-0.002832413,0.002620697,-0.004634857,0,
00:03.2,-0.002803802,0.002649307,-0.004606247,0,
00:03.2,-0.002809525,0.002655029,-0.004543304,0,
00:03.2,-0.002792358,0.002723694,-0.004652023,0,
00:03.2,-0.002758026,0.002706528,-0.0046978,0,
00:03.2,-0.002792358,0.002592087,-0.004526138,0,
00:03.2,-0.002849579,0.002586365,-0.004594803,0,
00:03.2,-0.002815247,0.002723694,-0.004629135,0,
00:03.2,-0.002832413,0.00268364,-0.004589081,0,
00:03.2,-0.002843857,0.002609253,-0.00450325,0,
00:03.2,-0.00279808,0.002620697,-0.004571915,0,
00:03.2,-0.002820969,0.002666473,-0.004623413,0,
00:03.2,-0.002855301,0.002637863,-0.004583359,0,
00:03.2,-0.002792358,0.002620697,-0.004549026,0,
00:03.2,-0.002826691,0.002626419,-0.004566193,0,
00:03.2,-0.002780914,0.002700806,-0.004594803,0,
00:03.2,-0.002849579,0.002655029,-0.004571915,0,
00:03.2,-0.002826691,0.00268364,-0.004611969,0,
00:03.2,-0.002826691,0.002660751,-0.004617691,0,
00:03.3,-0.002849579,0.002620697,-0.004583359,0,
00:03.3,-0.002849579,0.002614975,-0.004577637,0,
00:03.3,-0.002838135,0.002649307,-0.004577637,0,
00:03.3,-0.002809525,0.002672195,-0.004680634,0,
00:03.3,-0.002815247,0.002666473,-0.004554749,0,
00:03.3,-0.002820969,0.002700806,-0.004508972,0,
00:03.3,-0.002826691,0.002649307,-0.004606247,0,
00:03.3,-0.002843857,0.002637863,-0.004583359,0,
00:03.3,-0.002843857,0.002614975,-0.004549026,0,
00:03.3,-0.002826691,0.002655029,-0.004549026,0,
00:03.3,-0.002786636,0.002700806,-0.004634857,0,
00:03.3,-0.002803802,0.002666473,-0.004663467,0,
00:03.3,-0.002838135,0.002666473,-0.004566193,0,
00:03.3,-0.002843857,0.00268364,-0.004594803,0,
00:03.3,-0.002815247,0.002677917,-0.004657745,0,
00:03.3,-0.002843857,0.002614975,-0.004571915,0,
00:03.3,-0.002843857,0.002632141,-0.004520416,0,
00:03.3,-0.002803802,0.002660751,-0.004543304,0,
00:03.3,-0.002815247,0.002695084,-0.004543304,0,
00:03.3,-0.002832413,0.002677917,-0.004577637,0,
00:03.3,-0.002838135,0.002666473,-0.004606247,0,
00:03.3,-0.002849579,0.002626419,-0.004611969,0,
00:03.3,-0.002855301,0.002649307,-0.004566193,0,
00:03.3,-0.002838135,0.002666473,-0.004549026,0,
00:03.3,-0.002838135,0.002649307,-0.00453186,0,
00:03.4,-0.002855301,0.002660751,-0.004594803,0,
00:03.4,-0.002843857,0.002632141,-0.004566193,0,
00:03.4,-0.002843857,0.002643585,-0.004554749,0,
00:03.4,-0.002826691,0.002677917,-0.004560471,0,
00:03.4,-0.002786636,0.002735138,-0.004577637,0,
00:03.4,-0.002838135,0.00268364,-0.004669189,0,
00:03.4,-0.002855301,0.002637863,-0.004537582,0,
00:03.4,-0.002792358,0.00271225,-0.004611969,0,
00:03.4,-0.002792358,0.002695084,-0.004606247,0,
00:03.4,-0.002843857,0.002649307,-0.004583359,0,
00:03.4,-0.002843857,0.002666473,-0.004577637,0,
00:03.4,-0.002878189,0.002666473,-0.004560471,0,
00:03.4,-0.002878189,0.002626419,-0.004514694,0,
00:03.4,-0.002861023,0.002660751,-0.004526138,0,
00:03.4,-0.002849579,0.002677917,-0.004577637,0,
00:03.4,-0.002843857,0.002689362,-0.004577637,0,
00:03.4,-0.002832413,0.002695084,-0.004611969,0,
00:03.4,-0.002815247,0.002729416,-0.004589081,0,
00:03.4,-0.002872467,0.002689362,-0.004594803,0,
00:03.4,-0.002883911,0.002632141,-0.004537582,0,
00:03.4,-0.002832413,0.002666473,-0.004514694,0,
00:03.4,-0.002815247,0.002655029,-0.004623413,0,
00:03.4,-0.002872467,0.002649307,-0.004577637,0,
00:03.4,-0.002849579,0.00268364,-0.004526138,0,
00:03.4,-0.002843857,0.002672195,-0.004520416,0,
00:03.5,-0.002809525,0.002689362,-0.004629135,0,
00:03.5,-0.002815247,0.002666473,-0.004617691,0,
00:03.5,-0.002866745,0.002689362,-0.004566193,0,
00:03.5,-0.002872467,0.002689362,-0.004497528,0,
00:03.5,-0.002855301,0.002695084,-0.004554749,0,
00:03.5,-0.002832413,0.002695084,-0.004640579,0,
00:03.5,-0.002872467,0.002649307,-0.004543304,0,
00:03.5,-0.002861023,0.002689362,-0.004514694,0,
00:03.5,-0.002843857,0.002706528,-0.004560471,0,
00:03.5,-0.002855301,0.00271225,-0.004560471,0,
00:03.5,-0.002815247,0.002695084,-0.00450325,0,
00:03.5,-0.002878189,0.002655029,-0.004560471,0,
00:03.5,-0.002878189,0.00268364,-0.004583359,0,
00:03.5,-0.002861023,0.00271225,-0.004583359,0,
00:03.5,-0.002861023,0.002677917,-0.004560471,0,
00:03.5,-0.002861023,0.002655029,-0.004554749,0,
00:03.5,-0.002843857,0.002672195,-0.004623413,0,
00:03.5,-0.002838135,0.00268364,-0.004508972,0,
00:03.5,-0.002872467,0.002700806,-0.004554749,0,
00:03.5,-0.002855301,0.002695084,-0.00453186,0,
00:03.5,-0.002866745,0.002643585,-0.004594803,0,
00:03.5,-0.002878189,0.002672195,-0.004611969,0,
00:03.5,-0.002872467,0.00268364,-0.004514694,0,
00:03.5,-0.002849579,0.002706528,-0.00453186,0,
00:03.5,-0.002855301,0.002717972,-0.004560471,0,
00:03.6,-0.002838135,0.002723694,-0.004623413,0,
00:03.6,-0.002855301,0.002729416,-0.004549026,0,
00:03.6,-0.002832413,0.00271225,-0.004491806,0,
00:03.6,-0.002832413,0.002723694,-0.004571915,0,
00:03.6,-0.002866745,0.002723694,-0.004646301,0,
00:03.6,-0.002901077,0.002660751,-0.00450325,0,
00:03.6,-0.002889633,0.002649307,-0.004508972,0,
00:03.6,-0.002883911,0.002672195,-0.004526138,0,
00:03.6,-0.002861023,0.002706528,-0.004606247,0,
00:03.6,-0.002843857,0.002735138,-0.004543304,0,
00:03.6,-0.002809525,0.002729416,-0.004594803,0,
00:03.6,-0.002843857,0.002758026,-0.004583359,0,
00:03.6,-0.002906799,0.002666473,-0.00453186,0,
00:03.6,-0.002895355,0.002706528,-0.004486084,0,
00:03.6,-0.002872467,0.002717972,-0.004508972,0,
00:03.6,-0.002861023,0.002689362,-0.00453186,0,
00:03.6,-0.002832413,0.002735138,-0.004583359,0,
00:03.6,-0.002866745,0.002717972,-0.004566193,0,
00:03.6,-0.002889633,0.00271225,-0.004508972,0,
00:03.6,-0.002889633,0.002700806,-0.004537582,0,
00:03.6,-0.002878189,0.002723694,-0.00453186,0,
00:03.6,-0.002878189,0.00271225,-0.004520416,0,
00:03.6,-0.002872467,0.002689362,-0.004549026,0,
00:03.6,-0.002809525,0.002786636,-0.004669189,0,
00:03.6,-0.002838135,0.002758026,-0.004577637,0,
00:03.7,-0.002895355,0.002723694,-0.00444603,0,
00:03.7,-0.002866745,0.002706528,-0.004526138,0,
00:03.7,-0.002861023,0.002735138,-0.004583359,0,
00:03.7,-0.002861023,0.002706528,-0.00450325,0,
00:03.7,-0.002889633,0.002729416,-0.004537582,0,
00:03.7,-0.002878189,0.002706528,-0.004520416,0,
00:03.7,-0.002883911,0.00271225,-0.004543304,0,
00:03.7,-0.002895355,0.00274086,-0.004560471,0,
00:03.7,-0.002883911,0.002717972,-0.004543304,0,
00:03.7,-0.002889633,0.002689362,-0.004514694,0,
00:03.7,-0.002861023,0.002723694,-0.004514694,0,
00:03.7,-0.002815247,0.002780914,-0.004497528,0,
00:03.7,-0.002838135,0.002763748,-0.004629135,0,
00:03.7,-0.002912521,0.00271225,-0.004566193,0,
00:03.7,-0.002912521,0.002706528,-0.004486084,0,
00:03.7,-0.002889633,0.002723694,-0.004497528,0,
00:03.7,-0.002878189,0.002735138,-0.004549026,0,
00:03.7,-0.002878189,0.002758026,-0.004560471,0,
00:03.7,-0.002878189,0.002735138,-0.004514694,0,
00:03.7,-0.002878189,0.002758026,-0.004526138,0,
00:03.7,-0.002878189,0.002758026,-0.004549026,0,
00:03.7,-0.002849579,0.002763748,-0.004583359,0,
00:03.7,-0.002815247,0.002752304,-0.004606247,0,
00:03.7,-0.002866745,0.002758026,-0.004583359,0,
00:03.7,-0.002878189,0.00279808,-0.004520416,0,
00:03.8,-0.00293541,0.002723694,-0.004405975,0,
00:03.8,-0.002912521,0.002706528,-0.004508972,0,
00:03.8,-0.002895355,0.002729416,-0.004537582,0,
00:03.8,-0.002889633,0.002729416,-0.004520416,0,
00:03.8,-0.002901077,0.002729416,-0.00453186,0,
00:03.8,-0.002889633,0.002729416,-0.004520416,0,
00:03.8,-0.002878189,0.002752304,-0.00453186,0,
00:03.8,-0.002878189,0.002786636,-0.00453186,0,
00:03.8,-0.002861023,0.002752304,-0.004549026,0,
00:03.8,-0.002809525,0.002843857,-0.004606247,0,
00:03.8,-0.002815247,0.002861023,-0.004640579,0,
00:03.8,-0.002866745,0.002758026,-0.004566193,0,
00:03.8,-0.002889633,0.002752304,-0.004508972,0,
00:03.8,-0.002895355,0.002780914,-0.004543304,0,
00:03.8,-0.002923965,0.002717972,-0.00447464,0,
00:03.8,-0.002918243,0.002729416,-0.004457474,0,
00:03.8,-0.002906799,0.002752304,-0.00450325,0,
00:03.8,-0.002895355,0.002735138,-0.004514694,0,
00:03.8,-0.002901077,0.002746582,-0.004520416,0,
00:03.8,-0.002889633,0.002752304,-0.004526138,0,
00:03.8,-0.002889633,0.002758026,-0.004526138,0,
00:03.8,-0.002895355,0.002763748,-0.004526138,0,
00:03.8,-0.002878189,0.00279808,-0.004514694,0,
00:03.8,-0.002883911,0.002803802,-0.00450325,0,
00:03.8,-0.002838135,0.002803802,-0.004549026,0,
00:03.9,-0.002809525,0.002826691,-0.004760742,0,
00:03.9,-0.002895355,0.002752304,-0.004520416,0,
00:03.9,-0.002929688,0.002786636,-0.004514694,0,
00:03.9,-0.002878189,0.002803802,-0.004468918,0,
00:03.9,-0.002861023,0.002786636,-0.004497528,0,
00:03.9,-0.002889633,0.002746582,-0.004520416,0,
00:03.9,-0.002929688,0.002723694,-0.004497528,0,
00:03.9,-0.002906799,0.002752304,-0.004520416,0,
00:03.9,-0.002906799,0.002752304,-0.004520416,0,
00:03.9,-0.002912521,0.002752304,-0.004537582,0,
00:03.9,-0.002895355,0.00276947,-0.00453186,0,
00:03.9,-0.002883911,0.002786636,-0.004549026,0,
00:03.9,-0.002883911,0.00279808,-0.004543304,0,
00:03.9,-0.002883911,0.002803802,-0.004497528,0,
00:03.9,-0.002889633,0.00279808,-0.004497528,0,
00:03.9,-0.002866745,0.00279808,-0.004594803,0,
00:03.9,-0.002883911,0.002780914,-0.004554749,0,
00:03.9,-0.002872467,0.002803802,-0.00453186,0,
00:03.9,-0.002883911,0.00279808,-0.004600525,0,
00:03.9,-0.002912521,0.002775192,-0.004577637,0,
00:03.9,-0.002901077,0.002780914,-0.004451752,0,
00:03.9,-0.002901077,0.002792358,-0.00447464,0,
00:03.9,-0.002906799,0.002809525,-0.004491806,0,
00:03.9,-0.002889633,0.002786636,-0.004520416,0,
00:03.9,-0.002895355,0.002820969,-0.004520416,0,
00:04.0,-0.002878189,0.002849579,-0.004549026,0,
00:04.0,-0.002866745,0.002763748,-0.004606247,0,
00:04.0,-0.002883911,0.002815247,-0.004497528,0,
00:04.0,-0.002883911,0.002792358,-0.004457474,0,
00:04.0,-0.002923965,0.002775192,-0.004543304,0,
00:04.0,-0.002912521,0.002763748,-0.00450325,0,
00:04.0,-0.002912521,0.00276947,-0.004520416,0,
00:04.0,-0.002918243,0.002786636,-0.004526138,0,
00:04.0,-0.002912521,0.00279808,-0.004554749,0,
00:04.0,-0.002906799,0.00279808,-0.004554749,0,
00:04.0,-0.002906799,0.002803802,-0.00450325,0,
00:04.0,-0.002901077,0.002780914,-0.004537582,0,
00:00:04,-0.002895355,0.00279808,-0.004520416,0,
00:04.0,-0.002901077,0.002803802,-0.00453186,0,
00:04.0,-0.002878189,0.002809525,-0.004571915,0,
00:04.0,-0.002809525,0.002918243,-0.0046978,0,
00:04.0,-0.00279808,0.002958298,-0.004571915,0,
00:04.0,-0.002855301,0.002775192,-0.004434586,0,
00:04.0,-0.002923965,0.002809525,-0.004571915,0,
00:04.0,-0.002912521,0.00279808,-0.004577637,0,
00:04.0,-0.002923965,0.00279808,-0.004491806,0,
00:04.0,-0.002941132,0.002763748,-0.004400253,0,
00:04.0,-0.002929688,0.002775192,-0.00450325,0,
00:04.0,-0.002923965,0.002786636,-0.004526138,0,
00:04.0,-0.002923965,0.00279808,-0.004514694,0,
00:04.1,-0.002918243,0.002803802,-0.00453186,0,
00:04.1,-0.002912521,0.002815247,-0.00453186,0,
00:04.1,-0.002912521,0.002815247,-0.00453186,0,
00:04.1,-0.002901077,0.002809525,-0.00453186,0,
00:04.1,-0.002901077,0.002838135,-0.004537582,0,
00:04.1,-0.002889633,0.002843857,-0.004560471,0,
00:04.1,-0.002861023,0.002826691,-0.004577637,0,
00:04.1,-0.002866745,0.002843857,-0.004611969,0,
00:04.1,-0.002883911,0.002861023,-0.004508972,0,
00:04.1,-0.002923965,0.002820969,-0.00447464,0,
00:04.1,-0.002923965,0.002861023,-0.004526138,0,
00:04.1,-0.002889633,0.002872467,-0.004549026,0,
00:04.1,-0.002883911,0.002815247,-0.004549026,0,
00:04.1,-0.002901077,0.002832413,-0.004520416,0,
00:04.1,-0.002923965,0.002809525,-0.004520416,0,
00:04.1,-0.002918243,0.00279808,-0.004560471,0,
00:04.1,-0.002872467,0.002820969,-0.004549026,0,
00:04.1,-0.002889633,0.002838135,-0.004577637,0,
00:04.1,-0.002923965,0.002832413,-0.00450325,0,
00:04.1,-0.002918243,0.002820969,-0.004497528,0,
00:04.1,-0.002923965,0.002803802,-0.004508972,0,
00:04.1,-0.002912521,0.002843857,-0.004520416,0,
00:04.1,-0.002895355,0.002855301,-0.00453186,0,
00:04.1,-0.002889633,0.002832413,-0.004560471,0,
00:04.1,-0.002895355,0.002861023,-0.004526138,0,
00:04.2,-0.002878189,0.002820969,-0.004554749,0,
00:04.2,-0.002878189,0.002838135,-0.004554749,0,
00:04.2,-0.002923965,0.002820969,-0.004577637,0,
00:04.2,-0.002912521,0.002838135,-0.004526138,0,
00:04.2,-0.002883911,0.002843857,-0.00450325,0,
00:04.2,-0.002855301,0.002883911,-0.004583359,0,
00:04.2,-0.002906799,0.002878189,-0.004526138,0,
00:04.2,-0.002895355,0.002855301,-0.00453186,0,
00:04.2,-0.002906799,0.002815247,-0.00450325,0,
00:04.2,-0.002901077,0.002815247,-0.004497528,0,
00:04.2,-0.002855301,0.002849579,-0.004480362,0,
00:04.2,-0.002901077,0.002843857,-0.004566193,0,
00:04.2,-0.002923965,0.002826691,-0.004554749,0,
00:04.2,-0.002923965,0.002815247,-0.004526138,0,
00:04.2,-0.002889633,0.002849579,-0.004526138,0,
00:04.2,-0.002923965,0.002849579,-0.004566193,0,
00:04.2,-0.002889633,0.002820969,-0.004577637,0,
00:04.2,-0.002883911,0.002826691,-0.004549026,0,
00:04.2,-0.002889633,0.002866745,-0.004583359,0,
00:04.2,-0.002889633,0.002861023,-0.004594803,0,
00:04.2,-0.002912521,0.002838135,-0.004497528,0,
00:04.2,-0.002912521,0.002861023,-0.004480362,0,
00:04.2,-0.002906799,0.002849579,-0.004537582,0,
00:04.2,-0.002866745,0.002906799,-0.004560471,0,
00:04.2,-0.002889633,0.002843857,-0.004583359,0,
00:04.3,-0.002929688,0.002809525,-0.004497528,0,
00:04.3,-0.002906799,0.002815247,-0.004497528,0,
00:04.3,-0.002912521,0.002826691,-0.004520416,0,
00:04.3,-0.002866745,0.002895355,-0.00453186,0,
00:04.3,-0.002826691,0.002929688,-0.004600525,0,
00:04.3,-0.002929688,0.002838135,-0.004554749,0,
00:04.3,-0.002923965,0.002815247,-0.004549026,0,
00:04.3,-0.002918243,0.002826691,-0.004514694,0,
00:04.3,-0.002878189,0.002861023,-0.004520416,0,
00:04.3,-0.002895355,0.002866745,-0.004663467,0,
00:04.3,-0.002923965,0.002861023,-0.004571915,0,
00:04.3,-0.002895355,0.002861023,-0.00444603,0,
00:04.3,-0.002906799,0.002832413,-0.004526138,0,
00:04.3,-0.002923965,0.002849579,-0.004514694,0,
00:04.3,-0.002918243,0.002855301,-0.00453186,0,
00:04.3,-0.002906799,0.002872467,-0.004543304,0,
00:04.3,-0.002883911,0.002901077,-0.004549026,0,
00:04.3,-0.002883911,0.002889633,-0.004583359,0,
00:04.3,-0.002878189,0.002838135,-0.004617691,0,
00:04.3,-0.002901077,0.002878189,-0.004589081,0,
00:04.3,-0.002918243,0.002878189,-0.00447464,0,
00:04.3,-0.002906799,0.002855301,-0.004486084,0,
00:04.3,-0.002912521,0.002855301,-0.004571915,0,
00:04.3,-0.002866745,0.002866745,-0.004537582,0,
00:04.3,-0.002872467,0.002906799,-0.004560471,0,
00:04.4,-0.002918243,0.002872467,-0.004589081,0,
00:04.4,-0.002912521,0.002855301,-0.004549026,0,
00:04.4,-0.002901077,0.002872467,-0.004634857,0,
00:04.4,-0.002912521,0.002838135,-0.00453186,0,
00:04.4,-0.002912521,0.002861023,-0.004463196,0,
00:04.4,-0.002889633,0.002861023,-0.004508972,0,
00:04.4,-0.002912521,0.002872467,-0.004600525,0,
00:04.4,-0.002912521,0.002861023,-0.004543304,0,
00:04.4,-0.002906799,0.002912521,-0.004497528,0,
00:04.4,-0.002901077,0.002861023,-0.004514694,0,
00:04.4,-0.002895355,0.002855301,-0.004549026,0,
00:04.4,-0.002906799,0.002861023,-0.004549026,0,
00:04.4,-0.002895355,0.002855301,-0.004571915,0,
00:04.4,-0.002855301,0.002906799,-0.004663467,0,
00:04.4,-0.002912521,0.002878189,-0.004600525,0,
00:04.4,-0.002918243,0.002889633,-0.004491806,0,
00:04.4,-0.002918243,0.002889633,-0.00453186,0,
00:04.4,-0.002901077,0.002861023,-0.004571915,0,
00:04.4,-0.002923965,0.002861023,-0.004508972,0,
00:04.4,-0.002895355,0.002895355,-0.004543304,0,
00:04.4,-0.002883911,0.002889633,-0.004646301,0,
00:04.4,-0.002895355,0.002872467,-0.004526138,0,
00:04.4,-0.002883911,0.002906799,-0.004508972,0,
00:04.4,-0.002906799,0.002866745,-0.004514694,0,
00:04.4,-0.002929688,0.002878189,-0.004554749,0,
00:04.5,-0.002906799,0.002912521,-0.004543304,0,
00:04.5,-0.002889633,0.002826691,-0.004600525,0,
00:04.5,-0.002912521,0.002861023,-0.004560471,0,
00:04.5,-0.002906799,0.002872467,-0.004560471,0,
00:04.5,-0.002906799,0.002901077,-0.00453186,0,
00:04.5,-0.002912521,0.002901077,-0.004543304,0,
00:04.5,-0.002906799,0.002866745,-0.004600525,0,
00:04.5,-0.002912521,0.002878189,-0.004583359,0,
00:04.5,-0.002889633,0.002883911,-0.004594803,0,
00:04.5,-0.002878189,0.002883911,-0.00450325,0,
00:04.5,-0.002866745,0.002946854,-0.004589081,0,
00:04.5,-0.002918243,0.002883911,-0.004571915,0,
00:04.5,-0.002918243,0.002809525,-0.004491806,0,
00:04.5,-0.002901077,0.002866745,-0.004554749,0,
00:04.5,-0.002866745,0.002958298,-0.004611969,0,
00:04.5,-0.002901077,0.002872467,-0.004508972,0,
00:04.5,-0.002929688,0.002855301,-0.004560471,0,
00:04.5,-0.002906799,0.002883911,-0.004566193,0,
00:04.5,-0.002866745,0.002918243,-0.004583359,0,
00:04.5,-0.002883911,0.002889633,-0.004577637,0,
00:04.5,-0.002923965,0.002872467,-0.004560471,0,
00:04.5,-0.002929688,0.002855301,-0.004554749,0,
00:04.5,-0.002906799,0.002866745,-0.004549026,0,
00:04.5,-0.002895355,0.002901077,-0.004577637,0,
00:04.5,-0.002906799,0.002889633,-0.004617691,0,
00:04.6,-0.002895355,0.00293541,-0.004549026,0,
00:04.6,-0.002895355,0.002906799,-0.004566193,0,
00:04.6,-0.002912521,0.002826691,-0.004606247,0,
00:04.6,-0.002883911,0.002901077,-0.004520416,0,
00:04.6,-0.002883911,0.002901077,-0.004560471,0,
00:04.6,-0.002901077,0.002889633,-0.004600525,0,
00:04.6,-0.002906799,0.002878189,-0.00453186,0,
00:04.6,-0.002912521,0.002889633,-0.004566193,0,
00:04.6,-0.002901077,0.002889633,-0.004514694,0,
00:04.6,-0.002906799,0.002883911,-0.004571915,0,
00:04.6,-0.002901077,0.002872467,-0.004554749,0,
00:04.6,-0.002895355,0.002883911,-0.004577637,0,
00:04.6,-0.002872467,0.002901077,-0.004589081,0,
00:04.6,-0.002866745,0.002918243,-0.004634857,0,
00:04.6,-0.002901077,0.002883911,-0.004634857,0,
00:04.6,-0.002923965,0.002849579,-0.004491806,0,
00:04.6,-0.002895355,0.002878189,-0.004520416,0,
00:04.6,-0.002906799,0.002889633,-0.004566193,0,
00:04.6,-0.002906799,0.002912521,-0.004589081,0,
00:04.6,-0.002901077,0.002878189,-0.004606247,0,
00:04.6,-0.002889633,0.002889633,-0.004600525,0,
00:04.6,-0.002889633,0.002912521,-0.004600525,0,
00:04.6,-0.002878189,0.002901077,-0.004634857,0,
00:04.6,-0.002901077,0.002883911,-0.004606247,0,
00:04.6,-0.002901077,0.002912521,-0.004577637,0,
00:04.7,-0.002883911,0.002855301,-0.004549026,0,
00:04.7,-0.002901077,0.002901077,-0.00453186,0,
00:04.7,-0.002889633,0.002923965,-0.004549026,0,
00:04.7,-0.002889633,0.002889633,-0.004577637,0,
00:04.7,-0.002895355,0.002895355,-0.004600525,0,
00:04.7,-0.002889633,0.002878189,-0.004646301,0,
00:04.7,-0.002906799,0.002889633,-0.004611969,0,
00:04.7,-0.002901077,0.002883911,-0.004560471,0,
00:04.7,-0.002901077,0.002889633,-0.004554749,0,
00:04.7,-0.002912521,0.002878189,-0.004600525,0,
00:04.7,-0.002912521,0.002872467,-0.004589081,0,
00:04.7,-0.002901077,0.002878189,-0.004583359,0,
00:04.7,-0.002889633,0.002901077,-0.004577637,0,
00:04.7,-0.002855301,0.002929688,-0.004600525,0,
00:04.7,-0.002883911,0.002952576,-0.004686356,0,
00:04.7,-0.002906799,0.002889633,-0.004560471,0,
00:04.7,-0.002901077,0.002849579,-0.004571915,0,
00:04.7,-0.002872467,0.002878189,-0.004571915,0,
00:04.7,-0.002872467,0.002946854,-0.004646301,0,
00:04.7,-0.002883911,0.002912521,-0.004594803,0,
00:04.7,-0.002889633,0.002929688,-0.004629135,0,
00:04.7,-0.002889633,0.002923965,-0.004680634,0,
00:04.7,-0.002906799,0.002820969,-0.00450325,0,
00:04.7,-0.002912521,0.002849579,-0.004526138,0,
00:04.7,-0.002906799,0.002889633,-0.004589081,0,
00:04.8,-0.002889633,0.002883911,-0.004600525,0,
00:04.8,-0.002872467,0.002912521,-0.004606247,0,
00:04.8,-0.002878189,0.002912521,-0.004600525,0,
00:04.8,-0.002906799,0.002883911,-0.004629135,0,
00:04.8,-0.002889633,0.002866745,-0.004577637,0,
00:04.8,-0.002889633,0.002958298,-0.004571915,0,
00:04.8,-0.002883911,0.002895355,-0.004652023,0,
00:04.8,-0.002883911,0.002883911,-0.004566193,0,
00:04.8,-0.002889633,0.002929688,-0.004600525,0,
00:04.8,-0.002901077,0.002895355,-0.0046978,0,
00:04.8,-0.002883911,0.002872467,-0.004577637,0,
00:04.8,-0.002901077,0.002883911,-0.004543304,0,
00:04.8,-0.002906799,0.002906799,-0.004560471,0,
00:04.8,-0.002878189,0.002901077,-0.004652023,0,
00:04.8,-0.002861023,0.002912521,-0.004600525,0,
00:04.8,-0.002895355,0.002866745,-0.004623413,0,
00:04.8,-0.002889633,0.002906799,-0.004617691,0,
00:04.8,-0.002901077,0.002895355,-0.004571915,0,
00:04.8,-0.002889633,0.002912521,-0.004577637,0,
00:04.8,-0.002895355,0.002901077,-0.004611969,0,
00:04.8,-0.002889633,0.002901077,-0.004652023,0,
00:04.8,-0.002889633,0.002861023,-0.004583359,0,
00:04.8,-0.002901077,0.002889633,-0.004600525,0,
00:04.8,-0.002889633,0.002923965,-0.004640579,0,
00:04.8,-0.002889633,0.002889633,-0.004606247,0,
00:04.9,-0.002872467,0.002838135,-0.004686356,0,
00:04.9,-0.002878189,0.002906799,-0.004560471,0,
00:04.9,-0.002861023,0.002923965,-0.004623413,0,
00:04.9,-0.002912521,0.002889633,-0.004543304,0,
00:04.9,-0.002895355,0.002912521,-0.004577637,0,
00:04.9,-0.002878189,0.002918243,-0.004640579,0,
00:04.9,-0.002883911,0.002878189,-0.004611969,0,
00:04.9,-0.002901077,0.002878189,-0.004594803,0,
00:04.9,-0.002906799,0.002889633,-0.004594803,0,
00:04.9,-0.002895355,0.002889633,-0.004611969,0,
00:04.9,-0.002895355,0.002878189,-0.004611969,0,
00:04.9,-0.002895355,0.002889633,-0.004606247,0,
00:04.9,-0.002883911,0.002912521,-0.004611969,0,
00:04.9,-0.002843857,0.00293541,-0.004634857,0,
00:04.9,-0.002815247,0.002981186,-0.004674911,0,
00:04.9,-0.002832413,0.002958298,-0.004686356,0,
00:04.9,-0.002895355,0.002861023,-0.004589081,0,
00:04.9,-0.002889633,0.002866745,-0.004634857,0,
00:04.9,-0.002895355,0.002906799,-0.004634857,0,
00:04.9,-0.002906799,0.002906799,-0.004686356,0,
00:04.9,-0.002906799,0.002861023,-0.004571915,0,
00:04.9,-0.002912521,0.002872467,-0.004537582,0,
00:04.9,-0.002901077,0.002878189,-0.004571915,0,
00:04.9,-0.002895355,0.002878189,-0.004600525,0,
00:04.9,-0.002895355,0.002889633,-0.004606247,0,
00:05.0,-0.002883911,0.002872467,-0.004617691,0,
00:05.0,-0.002883911,0.002889633,-0.004617691,0,
00:05.0,-0.002872467,0.002889633,-0.004623413,0,
00:05.0,-0.002849579,0.002941132,-0.004674911,0,
00:05.0,-0.002866745,0.00293541,-0.004657745,0,
00:05.0,-0.002849579,0.002912521,-0.004657745,0,
00:05.0,-0.002866745,0.002861023,-0.004657745,0,
00:05.0,-0.002906799,0.002849579,-0.004571915,0,
00:05.0,-0.002901077,0.002895355,-0.004583359,0,
00:05.0,-0.002878189,0.002923965,-0.004600525,0,
00:05.0,-0.002883911,0.002878189,-0.004606247,0,
00:05.0,-0.002878189,0.002901077,-0.004634857,0,
00:00:05,-0.002872467,0.002912521,-0.004623413,0,
00:05.0,-0.002849579,0.002923965,-0.004617691,0,
00:05.0,-0.002838135,0.00296402,-0.004669189,0,
00:05.0,-0.002883911,0.002895355,-0.004680634,0,
00:05.0,-0.002883911,0.002878189,-0.004652023,0,
00:05.0,-0.002889633,0.002883911,-0.004577637,0,
00:05.0,-0.002901077,0.002838135,-0.004589081,0,
00:05.0,-0.002878189,0.002895355,-0.004617691,0,
00:05.0,-0.002855301,0.002941132,-0.004634857,0,
00:05.0,-0.002849579,0.002883911,-0.004674911,0,
00:05.0,-0.002895355,0.002843857,-0.004634857,0,
00:05.0,-0.002878189,0.002883911,-0.004606247,0,
00:05.0,-0.002883911,0.002883911,-0.004611969,0,
00:05.1,-0.002878189,0.002878189,-0.004646301,0,
00:05.1,-0.002872467,0.002883911,-0.004652023,0,
00:05.1,-0.002866745,0.002906799,-0.004594803,0,
00:05.1,-0.002866745,0.002923965,-0.004652023,0,
00:05.1,-0.002861023,0.002889633,-0.004629135,0,
00:05.1,-0.002861023,0.002906799,-0.004623413,0,
00:05.1,-0.002855301,0.002878189,-0.004646301,0,
00:05.1,-0.002889633,0.002906799,-0.004634857,0,
00:05.1,-0.002895355,0.002883911,-0.004629135,0,
00:05.1,-0.002883911,0.002883911,-0.004657745,0,
00:05.1,-0.002861023,0.002901077,-0.004663467,0,
00:05.1,-0.002843857,0.002941132,-0.004617691,0,
00:05.1,-0.002872467,0.002912521,-0.004629135,0,
00:05.1,-0.002849579,0.002918243,-0.004640579,0,
00:05.1,-0.002838135,0.002941132,-0.004680634,0,
00:05.1,-0.002872467,0.002866745,-0.004669189,0,
00:05.1,-0.002901077,0.002815247,-0.004583359,0,
00:05.1,-0.002889633,0.002855301,-0.004600525,0,
00:05.1,-0.002889633,0.002866745,-0.004657745,0,
00:05.1,-0.002883911,0.002883911,-0.004629135,0,
00:05.1,-0.002866745,0.002872467,-0.004640579,0,
00:05.1,-0.002861023,0.002906799,-0.004669189,0,
00:05.1,-0.002872467,0.002883911,-0.004629135,0,
00:05.1,-0.002855301,0.002906799,-0.004634857,0,
00:05.1,-0.002815247,0.002946854,-0.004703522,0,
00:05.2,-0.002855301,0.002952576,-0.004669189,0,
00:05.2,-0.002889633,0.002872467,-0.004623413,0,
00:05.2,-0.002889633,0.002843857,-0.004600525,0,
00:05.2,-0.002883911,0.002878189,-0.004629135,0,
00:05.2,-0.002855301,0.002929688,-0.004652023,0,
00:05.2,-0.002861023,0.002901077,-0.0046978,0,
00:05.2,-0.002861023,0.002849579,-0.004674911,0,
00:05.2,-0.002872467,0.002883911,-0.004600525,0,
00:05.2,-0.002872467,0.002895355,-0.004617691,0,
00:05.2,-0.002855301,0.002866745,-0.004634857,0,
00:05.2,-0.002861023,0.002889633,-0.004640579,0,
00:05.2,-0.002872467,0.002866745,-0.004640579,0,
00:05.2,-0.002861023,0.002866745,-0.004652023,0,
00:05.2,-0.002861023,0.002861023,-0.004652023,0,
00:05.2,-0.002878189,0.002872467,-0.004674911,0,
00:05.2,-0.002866745,0.002906799,-0.004629135,0,
00:05.2,-0.002861023,0.002923965,-0.004663467,0,
00:05.2,-0.002855301,0.002895355,-0.004646301,0,
00:05.2,-0.002861023,0.002849579,-0.004652023,0,
00:05.2,-0.002855301,0.002901077,-0.004680634,0,
00:05.2,-0.002809525,0.002986908,-0.004743576,0,
00:05.2,-0.002815247,0.00293541,-0.00475502,0,
00:05.2,-0.002901077,0.002849579,-0.004577637,0,
00:05.2,-0.002895355,0.002826691,-0.004600525,0,
00:05.2,-0.002872467,0.002861023,-0.004594803,0,
00:05.3,-0.002866745,0.002872467,-0.004646301,0,
00:05.3,-0.002878189,0.002889633,-0.004674911,0,
00:05.3,-0.002878189,0.002872467,-0.004640579,0,
00:05.3,-0.002872467,0.002878189,-0.004634857,0,
00:05.3,-0.002866745,0.002872467,-0.004646301,0,
00:05.3,-0.002861023,0.002883911,-0.004652023,0,
00:05.3,-0.002832413,0.002958298,-0.004652023,0,
00:05.3,-0.002786636,0.00299263,-0.004737854,0,
00:05.3,-0.002815247,0.002929688,-0.004800797,0,
00:05.3,-0.002878189,0.002838135,-0.004657745,0,
00:05.3,-0.002872467,0.002855301,-0.004640579,0,
00:05.3,-0.002872467,0.002861023,-0.004583359,0,
00:05.3,-0.002878189,0.002861023,-0.004600525,0,
00:05.3,-0.002883911,0.002866745,-0.004646301,0,
00:05.3,-0.002878189,0.002872467,-0.004657745,0,
00:05.3,-0.002866745,0.002872467,-0.004657745,0,
00:05.3,-0.002861023,0.002878189,-0.004663467,0,
00:05.3,-0.002866745,0.002878189,-0.004663467,0,
00:05.3,-0.002872467,0.002878189,-0.004663467,0,
00:05.3,-0.002872467,0.002866745,-0.004669189,0,
00:05.3,-0.002861023,0.002872467,-0.004669189,0,
00:05.3,-0.002843857,0.002878189,-0.004663467,0,
00:05.3,-0.002809525,0.002941132,-0.004646301,0,
00:05.3,-0.00276947,0.002998352,-0.00475502,0,
00:05.3,-0.002820969,0.002843857,-0.004714966,0,
00:05.4,-0.002849579,0.002941132,-0.004629135,0,
00:05.4,-0.002866745,0.002906799,-0.004669189,0,
00:05.4,-0.002889633,0.002832413,-0.004692078,0,
00:05.4,-0.002861023,0.002832413,-0.004669189,0,
00:05.4,-0.002855301,0.002872467,-0.004640579,0,
00:05.4,-0.002866745,0.002883911,-0.004680634,0,
00:05.4,-0.002866745,0.002872467,-0.004640579,0,
00:05.4,-0.002872467,0.002855301,-0.004669189,0,
00:05.4,-0.002826691,0.002883911,-0.004720688,0,
00:05.4,-0.002815247,0.00293541,-0.004720688,0,
00:05.4,-0.002826691,0.002918243,-0.004623413,0,
00:05.4,-0.002820969,0.002901077,-0.004623413,0,
00:05.4,-0.002866745,0.002901077,-0.004686356,0,
00:05.4,-0.002849579,0.002878189,-0.004674911,0,
00:05.4,-0.002849579,0.002861023,-0.004686356,0,
00:05.4,-0.002866745,0.002866745,-0.004692078,0,
00:05.4,-0.002866745,0.002883911,-0.004674911,0,
00:05.4,-0.002861023,0.002855301,-0.004640579,0,
00:05.4,-0.002855301,0.002883911,-0.004646301,0,
00:05.4,-0.002838135,0.002883911,-0.004686356,0,
00:05.4,-0.002826691,0.002878189,-0.004657745,0,
00:05.4,-0.002872467,0.002826691,-0.004652023,0,
00:05.4,-0.002855301,0.002872467,-0.004686356,0,
00:05.4,-0.002855301,0.002866745,-0.004709244,0,
00:05.4,-0.002843857,0.002866745,-0.004686356,0,
00:05.5,-0.002843857,0.002878189,-0.004663467,0,
00:05.5,-0.002849579,0.002878189,-0.004657745,0,
00:05.5,-0.002861023,0.002861023,-0.004674911,0,
00:05.5,-0.002855301,0.002889633,-0.004692078,0,
00:05.5,-0.002838135,0.002889633,-0.004720688,0,
00:05.5,-0.002838135,0.002866745,-0.004669189,0,
00:05.5,-0.002843857,0.002901077,-0.004657745,0,
00:05.5,-0.002855301,0.002883911,-0.0046978,0,
00:05.5,-0.002849579,0.002855301,-0.004714966,0,
00:05.5,-0.002832413,0.002855301,-0.004686356,0,
00:05.5,-0.002843857,0.002878189,-0.004737854,0,
00:05.5,-0.002826691,0.00293541,-0.004692078,0,
00:05.5,-0.002838135,0.002923965,-0.004623413,0,
00:05.5,-0.002861023,0.002838135,-0.004692078,0,
00:05.5,-0.002861023,0.002861023,-0.004703522,0,
00:05.5,-0.002849579,0.002843857,-0.004674911,0,
00:05.5,-0.002849579,0.002843857,-0.004680634,0,
00:05.5,-0.002849579,0.002843857,-0.004652023,0,
00:05.5,-0.002838135,0.002889633,-0.004634857,0,
00:05.5,-0.002826691,0.002866745,-0.004703522,0,
00:05.5,-0.002832413,0.002866745,-0.004743576,0,
00:05.5,-0.002832413,0.002855301,-0.004674911,0,
00:05.5,-0.002832413,0.002889633,-0.004674911,0,
00:05.5,-0.002866745,0.002872467,-0.004743576,0,
00:05.5,-0.002849579,0.002855301,-0.0046978,0,
00:05.6,-0.002838135,0.002878189,-0.004646301,0,
00:05.6,-0.002849579,0.002855301,-0.004669189,0,
00:05.6,-0.002861023,0.002843857,-0.004692078,0,
00:05.6,-0.002838135,0.002861023,-0.004686356,0,
00:05.6,-0.002826691,0.002855301,-0.004669189,0,
00:05.6,-0.002838135,0.002849579,-0.004720688,0,
00:05.6,-0.002832413,0.002906799,-0.004772186,0,
00:05.6,-0.002832413,0.002883911,-0.004680634,0,
00:05.6,-0.002826691,0.002906799,-0.004674911,0,
00:05.6,-0.002832413,0.002855301,-0.0046978,0,
00:05.6,-0.002820969,0.002843857,-0.004669189,0,
00:05.6,-0.002849579,0.002843857,-0.004743576,0,
00:05.6,-0.002815247,0.002906799,-0.0046978,0,
00:05.6,-0.002849579,0.002883911,-0.0046978,0,
00:05.6,-0.002855301,0.002878189,-0.004692078,0,
00:05.6,-0.002843857,0.002843857,-0.0046978,0,
00:05.6,-0.002803802,0.002878189,-0.004760742,0,
00:05.6,-0.002855301,0.002820969,-0.004669189,0,
00:05.6,-0.002838135,0.002855301,-0.004634857,0,
00:05.6,-0.002843857,0.002843857,-0.004669189,0,
00:05.6,-0.002843857,0.002838135,-0.004703522,0,
00:05.6,-0.002809525,0.002872467,-0.00472641,0,
00:05.6,-0.002826691,0.002866745,-0.004686356,0,
00:05.6,-0.002849579,0.002855301,-0.004680634,0,
00:05.6,-0.002843857,0.002838135,-0.004686356,0,
00:05.7,-0.002832413,0.002843857,-0.004714966,0,
00:05.7,-0.002826691,0.002855301,-0.004760742,0,
00:05.7,-0.002832413,0.002866745,-0.004692078,0,
00:05.7,-0.002838135,0.002866745,-0.004674911,0,
00:05.7,-0.00279808,0.002912521,-0.00472641,0,
00:05.7,-0.002775192,0.002923965,-0.004720688,0,
00:05.7,-0.002803802,0.002912521,-0.004703522,0,
00:05.7,-0.002861023,0.002861023,-0.004800797,0,
00:05.7,-0.002849579,0.002815247,-0.004669189,0,
00:05.7,-0.002843857,0.002832413,-0.004657745,0,
00:05.7,-0.002843857,0.002838135,-0.004674911,0,
00:05.7,-0.002832413,0.002843857,-0.0046978,0,
00:05.7,-0.002820969,0.002866745,-0.004720688,0,
00:05.7,-0.002826691,0.002861023,-0.004663467,0,
00:05.7,-0.002815247,0.002838135,-0.004680634,0,
00:05.7,-0.002838135,0.002809525,-0.00472641,0,
00:05.7,-0.002832413,0.002849579,-0.004732132,0,
00:05.7,-0.00279808,0.002866745,-0.004692078,0,
00:05.7,-0.002820969,0.002866745,-0.004743576,0,
00:05.7,-0.002826691,0.002866745,-0.004732132,0,
00:05.7,-0.002838135,0.002861023,-0.004692078,0,
00:05.7,-0.002843857,0.002861023,-0.004692078,0,
00:05.7,-0.002843857,0.002843857,-0.004743576,0,
00:05.7,-0.002826691,0.002883911,-0.0046978,0,
00:05.7,-0.002826691,0.002878189,-0.00478363,0,
00:05.8,-0.002809525,0.002832413,-0.004674911,0,
00:05.8,-0.00279808,0.002855301,-0.004663467,0,
00:05.8,-0.002809525,0.002866745,-0.004737854,0,
00:05.8,-0.002803802,0.002843857,-0.004686356,0,
00:05.8,-0.002820969,0.002866745,-0.004703522,0,
00:05.8,-0.002843857,0.002843857,-0.004709244,0,
00:05.8,-0.002820969,0.002855301,-0.004703522,0,
00:05.8,-0.002809525,0.002843857,-0.0046978,0,
00:05.8,-0.002815247,0.002832413,-0.004743576,0,
00:05.8,-0.002826691,0.002843857,-0.004760742,0,
00:05.8,-0.002826691,0.002815247,-0.004680634,0,
00:05.8,-0.002826691,0.002855301,-0.004680634,0,
00:05.8,-0.002826691,0.002849579,-0.004760742,0,
00:05.8,-0.002838135,0.002832413,-0.0046978,0,
00:05.8,-0.00279808,0.002923965,-0.00478363,0,
00:05.8,-0.002815247,0.002843857,-0.004800797,0,
00:05.8,-0.002826691,0.002826691,-0.004669189,0,
00:05.8,-0.002792358,0.002861023,-0.004703522,0,
00:05.8,-0.002815247,0.002838135,-0.004720688,0,
00:05.8,-0.002838135,0.002820969,-0.004674911,0,
00:05.8,-0.002838135,0.002832413,-0.004703522,0,
00:05.8,-0.002820969,0.002826691,-0.00472641,0,
00:05.8,-0.002815247,0.002872467,-0.004703522,0,
00:05.8,-0.002792358,0.002866745,-0.004743576,0,
00:05.8,-0.002820969,0.002820969,-0.004703522,0,
00:05.9,-0.002826691,0.002849579,-0.004703522,0,
00:05.9,-0.002803802,0.002843857,-0.004714966,0,
00:05.9,-0.002832413,0.002849579,-0.00472641,0,
00:05.9,-0.002838135,0.002838135,-0.004720688,0,
00:05.9,-0.002826691,0.002838135,-0.00475502,0,
00:05.9,-0.002815247,0.002843857,-0.004749298,0,
00:05.9,-0.002815247,0.002855301,-0.00475502,0,
00:05.9,-0.00279808,0.002861023,-0.004686356,0,
00:05.9,-0.002803802,0.002855301,-0.004709244,0,
00:05.9,-0.002820969,0.002832413,-0.004737854,0,
00:05.9,-0.002809525,0.002855301,-0.004749298,0,
00:05.9,-0.002815247,0.002826691,-0.00475502,0,
00:05.9,-0.002826691,0.002843857,-0.004709244,0,
00:05.9,-0.002815247,0.002843857,-0.004674911,0,
00:05.9,-0.002815247,0.002843857,-0.004720688,0,
00:05.9,-0.002815247,0.002809525,-0.004766464,0,
00:05.9,-0.002832413,0.002815247,-0.00475502,0,
00:05.9,-0.002832413,0.002815247,-0.004714966,0,
00:05.9,-0.002815247,0.002872467,-0.004806519,0,
00:05.9,-0.002792358,0.002883911,-0.004777908,0,
00:05.9,-0.002792358,0.002855301,-0.004646301,0,
00:05.9,-0.002815247,0.002832413,-0.004692078,0,
00:05.9,-0.002838135,0.002803802,-0.004737854,0,
00:05.9,-0.002820969,0.002849579,-0.004703522,0,
00:05.9,-0.002803802,0.002872467,-0.0046978,0,
00:06.0,-0.002792358,0.002826691,-0.004737854,0,
00:06.0,-0.00279808,0.002838135,-0.004743576,0,
00:06.0,-0.002792358,0.002883911,-0.004777908,0,
00:06.0,-0.002832413,0.002838135,-0.004732132,0,
00:06.0,-0.002815247,0.002820969,-0.004720688,0,
00:06.0,-0.002826691,0.002826691,-0.004732132,0,
00:06.0,-0.002815247,0.002872467,-0.004720688,0,
00:06.0,-0.00279808,0.002872467,-0.004760742,0,
00:06.0,-0.002803802,0.002803802,-0.004692078,0,
00:06.0,-0.002820969,0.002815247,-0.004766464,0,
00:06.0,-0.002815247,0.002820969,-0.004720688,0,
00:06.0,-0.002809525,0.002815247,-0.004703522,0,
00:00:06,-0.00279808,0.002872467,-0.004749298,0,
00:06.0,-0.002803802,0.002838135,-0.004806519,0,
00:06.0,-0.002838135,0.002820969,-0.004692078,0,
00:06.0,-0.002809525,0.002838135,-0.00472641,0,
00:06.0,-0.002792358,0.002872467,-0.004766464,0,
00:06.0,-0.00279808,0.002815247,-0.004789352,0,
00:06.0,-0.002809525,0.002843857,-0.004703522,0,
00:06.0,-0.002826691,0.002820969,-0.004686356,0,
00:06.0,-0.00279808,0.002838135,-0.004720688,0,
00:06.0,-0.002786636,0.002878189,-0.004795074,0,
00:06.0,-0.002809525,0.002809525,-0.004772186,0,
00:06.0,-0.002820969,0.002832413,-0.004674911,0,
00:06.0,-0.002792358,0.002855301,-0.004703522,0,
00:06.1,-0.002809525,0.002843857,-0.004737854,0,
00:06.1,-0.002826691,0.002803802,-0.004760742,0,
00:06.1,-0.002820969,0.002792358,-0.00472641,0,
00:06.1,-0.00279808,0.002849579,-0.004760742,0,
00:06.1,-0.002792358,0.002861023,-0.004772186,0,
00:06.1,-0.002809525,0.002826691,-0.004772186,0,
00:06.1,-0.002809525,0.002815247,-0.00472641,0,
00:06.1,-0.002809525,0.002826691,-0.004795074,0,
00:06.1,-0.002820969,0.002832413,-0.004720688,0,
00:06.1,-0.002792358,0.002832413,-0.004714966,0,
00:06.1,-0.002809525,0.002820969,-0.004749298,0,
00:06.1,-0.002803802,0.002861023,-0.004714966,0,
00:06.1,-0.002775192,0.002826691,-0.004766464,0,
00:06.1,-0.002826691,0.002803802,-0.0046978,0,
00:06.1,-0.002815247,0.002803802,-0.004703522,0,
00:06.1,-0.002809525,0.002820969,-0.004766464,0,
00:06.1,-0.002780914,0.002832413,-0.004737854,0,
00:06.1,-0.002809525,0.002843857,-0.004737854,0,
00:06.1,-0.002815247,0.002861023,-0.004732132,0,
00:06.1,-0.002792358,0.002849579,-0.004766464,0,
00:06.1,-0.002792358,0.002843857,-0.004852295,0,
00:06.1,-0.002809525,0.002786636,-0.00475502,0,
00:06.1,-0.002809525,0.002792358,-0.004709244,0,
00:06.1,-0.00279808,0.002826691,-0.004777908,0,
00:06.1,-0.002809525,0.002809525,-0.004812241,0,
00:06.2,-0.00279808,0.002820969,-0.004800797,0,
00:06.2,-0.00279808,0.002820969,-0.004703522,0,
00:06.2,-0.002792358,0.002843857,-0.004674911,0,
00:06.2,-0.002803802,0.002838135,-0.004737854,0,
00:06.2,-0.002792358,0.002826691,-0.004737854,0,
00:06.2,-0.002803802,0.002803802,-0.004749298,0,
00:06.2,-0.002803802,0.002803802,-0.004812241,0,
00:06.2,-0.002780914,0.002826691,-0.004835129,0,
00:06.2,-0.002775192,0.002849579,-0.004680634,0,
00:06.2,-0.002826691,0.00279808,-0.00472641,0,
00:06.2,-0.002832413,0.002792358,-0.004743576,0,
00:06.2,-0.002803802,0.002826691,-0.004812241,0,
00:06.2,-0.002786636,0.002832413,-0.004766464,0,
00:06.2,-0.002815247,0.002820969,-0.00472641,0,
00:06.2,-0.002815247,0.002883911,-0.004795074,0,
00:06.2,-0.002780914,0.002861023,-0.004789352,0,
00:06.2,-0.002775192,0.002832413,-0.004732132,0,
00:06.2,-0.002820969,0.002763748,-0.004720688,0,
00:06.2,-0.002803802,0.002775192,-0.00478363,0,
00:06.2,-0.00279808,0.002786636,-0.00475502,0,
00:06.2,-0.002809525,0.002786636,-0.004743576,0,
00:06.2,-0.002803802,0.002832413,-0.004766464,0,
00:06.2,-0.002786636,0.002820969,-0.004766464,0,
00:06.2,-0.002780914,0.00279808,-0.004772186,0,
00:06.2,-0.002809525,0.002820969,-0.004777908,0,
00:06.3,-0.00279808,0.002866745,-0.00478363,0,
00:06.3,-0.002803802,0.002820969,-0.004760742,0,
00:06.3,-0.002803802,0.002803802,-0.004760742,0,
00:06.3,-0.002809525,0.002809525,-0.00478363,0,
00:06.3,-0.002809525,0.002780914,-0.004743576,0,
00:06.3,-0.00276947,0.002832413,-0.004789352,0,
00:06.3,-0.00279808,0.002826691,-0.004800797,0,
00:06.3,-0.002803802,0.002826691,-0.0046978,0,
00:06.3,-0.002780914,0.002861023,-0.00478363,0,
00:06.3,-0.00279808,0.002826691,-0.00478363,0,
00:06.3,-0.002815247,0.002792358,-0.004772186,0,
00:06.3,-0.002792358,0.002775192,-0.00478363,0,
00:06.3,-0.002792358,0.002826691,-0.004772186,0,
00:06.3,-0.00276947,0.002883911,-0.004795074,0,
00:06.3,-0.002775192,0.002815247,-0.004760742,0,
00:06.3,-0.002780914,0.002809525,-0.004800797,0,
00:06.3,-0.002792358,0.00279808,-0.004840851,0,
00:06.3,-0.002792358,0.002803802,-0.004743576,0,
00:06.3,-0.00279808,0.002786636,-0.00472641,0,
00:06.3,-0.002803802,0.002826691,-0.004743576,0,
00:06.3,-0.00279808,0.002866745,-0.004772186,0,
00:06.3,-0.002809525,0.002775192,-0.004777908,0,
00:06.3,-0.002803802,0.002792358,-0.004749298,0,
00:06.3,-0.002763748,0.002861023,-0.004772186,0,
00:06.3,-0.002786636,0.002826691,-0.004835129,0,
00:06.4,-0.002809525,0.002803802,-0.004800797,0,
00:06.4,-0.002792358,0.00279808,-0.004760742,0,
00:06.4,-0.002792358,0.002820969,-0.004720688,0,
00:06.4,-0.002803802,0.00279808,-0.004823685,0,
00:06.4,-0.002786636,0.00279808,-0.004869461,0,
00:06.4,-0.002780914,0.00279808,-0.00475502,0,
00:06.4,-0.002792358,0.00279808,-0.004766464,0,
00:06.4,-0.002792358,0.002820969,-0.004760742,0,
00:06.4,-0.00279808,0.002820969,-0.004772186,0,
00:06.4,-0.002803802,0.00279808,-0.004777908,0,
00:06.4,-0.002780914,0.00276947,-0.004777908,0,
00:06.4,-0.002729416,0.002826691,-0.004840851,0,
00:06.4,-0.002729416,0.002918243,-0.004926682,0,
00:06.4,-0.002809525,0.002843857,-0.004760742,0,
00:06.4,-0.002815247,0.002815247,-0.004714966,0,
00:06.4,-0.002780914,0.002809525,-0.004749298,0,
00:06.4,-0.002792358,0.002786636,-0.004806519,0,
00:06.4,-0.002820969,0.002763748,-0.004772186,0,
00:06.4,-0.002826691,0.002786636,-0.004760742,0,
00:06.4,-0.002809525,0.002803802,-0.004789352,0,
00:06.4,-0.002792358,0.002820969,-0.004829407,0,
00:06.4,-0.002792358,0.002809525,-0.00478363,0,
00:06.4,-0.00276947,0.002820969,-0.004812241,0,
00:06.4,-0.00276947,0.002820969,-0.004772186,0,
00:06.4,-0.002792358,0.00279808,-0.00478363,0,
00:06.5,-0.002775192,0.002809525,-0.004772186,0,
00:06.5,-0.002786636,0.002826691,-0.004829407,0,
00:06.5,-0.002792358,0.002786636,-0.004795074,0,
00:06.5,-0.002803802,0.002763748,-0.004795074,0,
00:06.5,-0.00279808,0.002758026,-0.004829407,0,
00:06.5,-0.002803802,0.002820969,-0.004840851,0,
00:06.5,-0.002775192,0.00279808,-0.00475502,0,
00:06.5,-0.00271225,0.002883911,-0.004817963,0,
00:06.5,-0.002792358,0.002883911,-0.004835129,0,
00:06.5,-0.002820969,0.002803802,-0.00478363,0,
00:06.5,-0.00276947,0.002809525,-0.004795074,0,
00:06.5,-0.002758026,0.002786636,-0.004795074,0,
00:06.5,-0.002820969,0.002792358,-0.004732132,0,
00:06.5,-0.002815247,0.002815247,-0.00478363,0,
00:06.5,-0.002792358,0.002792358,-0.004772186,0,
00:06.5,-0.002786636,0.002775192,-0.004812241,0,
00:06.5,-0.00279808,0.002803802,-0.004823685,0,
00:06.5,-0.002809525,0.002786636,-0.004817963,0,
00:06.5,-0.002815247,0.002775192,-0.004812241,0,
00:06.5,-0.00279808,0.002792358,-0.00478363,0,
00:06.5,-0.002775192,0.002780914,-0.004795074,0,
00:06.5,-0.00276947,0.002809525,-0.004800797,0,
00:06.5,-0.002780914,0.002820969,-0.004840851,0,
00:06.5,-0.00276947,0.002820969,-0.004943848,0,
00:06.5,-0.002758026,0.002809525,-0.004829407,0,
00:06.6,-0.002792358,0.002792358,-0.004720688,0,
00:06.6,-0.002792358,0.002792358,-0.00475502,0,
00:06.6,-0.002786636,0.002786636,-0.004817963,0,
00:06.6,-0.00276947,0.002820969,-0.00478363,0,
00:06.6,-0.002763748,0.002832413,-0.004800797,0,
00:06.6,-0.002775192,0.002883911,-0.004812241,0,
00:06.6,-0.00279808,0.002763748,-0.004732132,0,
00:06.6,-0.002792358,0.002792358,-0.004846573,0,
00:06.6,-0.002763748,0.002792358,-0.004806519,0,
00:06.6,-0.002775192,0.002786636,-0.00478363,0,
00:06.6,-0.00279808,0.002815247,-0.004846573,0,
00:06.6,-0.002809525,0.002763748,-0.004875183,0,
00:06.6,-0.00279808,0.002792358,-0.00478363,0,
00:06.6,-0.00279808,0.002826691,-0.004823685,0,
00:06.6,-0.00279808,0.002786636,-0.004806519,0,
00:06.6,-0.00279808,0.002752304,-0.004777908,0,
00:06.6,-0.002780914,0.002786636,-0.004789352,0,
00:06.6,-0.002786636,0.00276947,-0.004817963,0,
00:06.6,-0.00276947,0.002786636,-0.004812241,0,
00:06.6,-0.002763748,0.002843857,-0.004823685,0,
00:06.6,-0.002780914,0.002820969,-0.004829407,0,
00:06.6,-0.002792358,0.00276947,-0.004829407,0,
00:06.6,-0.002775192,0.002763748,-0.004800797,0,
00:06.6,-0.00276947,0.002832413,-0.004852295,0,
00:06.6,-0.002792358,0.002780914,-0.004766464,0,
00:06.7,-0.002775192,0.002780914,-0.004795074,0,
00:06.7,-0.002792358,0.002792358,-0.004795074,0,
00:06.7,-0.002786636,0.002786636,-0.004840851,0,
00:06.7,-0.00274086,0.002809525,-0.00478363,0,
00:06.7,-0.00274086,0.002820969,-0.004875183,0,
00:06.7,-0.002809525,0.002780914,-0.004932404,0,
00:06.7,-0.002809525,0.00276947,-0.004737854,0,
00:06.7,-0.002803802,0.002775192,-0.004795074,0,
00:06.7,-0.002792358,0.002780914,-0.004829407,0,
00:06.7,-0.002786636,0.002809525,-0.004800797,0,
00:06.7,-0.002775192,0.002780914,-0.004812241,0,
00:06.7,-0.002758026,0.002775192,-0.004812241,0,
00:06.7,-0.002786636,0.002803802,-0.004846573,0,
00:06.7,-0.002786636,0.002775192,-0.004835129,0,
00:06.7,-0.002780914,0.002780914,-0.004812241,0,
00:06.7,-0.002775192,0.002809525,-0.004806519,0,
00:06.7,-0.002780914,0.00279808,-0.004835129,0,
00:06.7,-0.002775192,0.002820969,-0.004938126,0,
00:06.7,-0.002780914,0.002792358,-0.004840851,0,
00:06.7,-0.002792358,0.002775192,-0.004800797,0,
00:06.7,-0.002792358,0.00274086,-0.004766464,0,
00:06.7,-0.002758026,0.002792358,-0.004835129,0,
00:06.7,-0.002752304,0.002809525,-0.004846573,0,
00:06.7,-0.00279808,0.002820969,-0.004812241,0,
00:06.7,-0.002780914,0.002752304,-0.004840851,0,
00:06.8,-0.002792358,0.002752304,-0.004800797,0,
00:06.8,-0.002803802,0.002780914,-0.004812241,0,
00:06.8,-0.00279808,0.002780914,-0.004817963,0,
00:06.8,-0.00279808,0.00276947,-0.004835129,0,
00:06.8,-0.002792358,0.00276947,-0.004835129,0,
00:06.8,-0.002780914,0.002820969,-0.004835129,0,
00:06.8,-0.002746582,0.002872467,-0.004835129,0,
00:06.8,-0.002752304,0.002815247,-0.004926682,0,
00:06.8,-0.002758026,0.002820969,-0.004892349,0,
00:06.8,-0.002786636,0.002752304,-0.004720688,0,
00:06.8,-0.002775192,0.002752304,-0.004823685,0,
00:06.8,-0.002775192,0.002763748,-0.004880905,0,
00:06.8,-0.002786636,0.002758026,-0.004777908,0,
00:06.8,-0.00279808,0.002775192,-0.004840851,0,
00:06.8,-0.00279808,0.00276947,-0.004840851,0,
00:06.8,-0.002792358,0.002775192,-0.004817963,0,
00:06.8,-0.002792358,0.002780914,-0.004812241,0,
00:06.8,-0.002786636,0.002786636,-0.004829407,0,
00:06.8,-0.002780914,0.002780914,-0.004846573,0,
00:06.8,-0.002786636,0.002775192,-0.004840851,0,
00:06.8,-0.002752304,0.002843857,-0.004846573,0,
00:06.8,-0.002717972,0.002878189,-0.004892349,0,
00:06.8,-0.002752304,0.002792358,-0.004938126,0,
00:06.8,-0.002792358,0.00274086,-0.004880905,0,
00:06.8,-0.002803802,0.002752304,-0.004800797,0,
00:06.9,-0.00279808,0.002809525,-0.004829407,0,
00:06.9,-0.00279808,0.002735138,-0.004789352,0,
00:06.9,-0.002803802,0.002752304,-0.004829407,0,
00:06.9,-0.002792358,0.002763748,-0.004852295,0,
00:06.9,-0.002792358,0.00276947,-0.004880905,0,
00:06.9,-0.002786636,0.00276947,-0.004852295,0,
00:06.9,-0.002792358,0.00276947,-0.004812241,0,
00:06.9,-0.002792358,0.002775192,-0.004817963,0,
00:06.9,-0.00279808,0.002775192,-0.004835129,0,
00:06.9,-0.00279808,0.00276947,-0.004840851,0,
00:06.9,-0.002792358,0.002752304,-0.004846573,0,
00:06.9,-0.00276947,0.002775192,-0.004858017,0,
00:06.9,-0.00274086,0.002872467,-0.004898071,0,
00:06.9,-0.002758026,0.002906799,-0.004880905,0,
00:06.9,-0.002758026,0.002826691,-0.004875183,0,
00:06.9,-0.002775192,0.00271225,-0.004898071,0,
00:06.9,-0.002786636,0.002746582,-0.004812241,0,
00:06.9,-0.002786636,0.002735138,-0.004817963,0,
00:06.9,-0.002803802,0.002752304,-0.004806519,0,
00:06.9,-0.002792358,0.002775192,-0.004852295,0,
00:06.9,-0.002792358,0.002775192,-0.004869461,0,
00:06.9,-0.002792358,0.00276947,-0.004846573,0,
00:06.9,-0.002809525,0.00274086,-0.004823685,0,
00:06.9,-0.002780914,0.002786636,-0.004829407,0,
00:06.9,-0.002763748,0.00279808,-0.004892349,0,
00:07.0,-0.002815247,0.002746582,-0.004835129,0,
00:07.0,-0.002803802,0.00276947,-0.004812241,0,
00:07.0,-0.002815247,0.002763748,-0.004840851,0,
00:07.0,-0.002792358,0.002780914,-0.004869461,0,
00:07.0,-0.002786636,0.002775192,-0.004863739,0,
00:07.0,-0.002780914,0.002786636,-0.004858017,0,
00:07.0,-0.002780914,0.002809525,-0.004852295,0,
00:07.0,-0.00279808,0.002746582,-0.004846573,0,
00:07.0,-0.002803802,0.002780914,-0.004817963,0,
00:07.0,-0.002792358,0.002746582,-0.004869461,0,
00:07.0,-0.002786636,0.002763748,-0.004875183,0,
00:07.0,-0.002809525,0.002758026,-0.004869461,0,
00:00:07,-0.002792358,0.002809525,-0.004858017,0,
00:07.0,-0.002792358,0.002786636,-0.004875183,0,
00:07.0,-0.002758026,0.002758026,-0.004903793,0,
00:07.0,-0.002792358,0.002752304,-0.004835129,0,
00:07.0,-0.002820969,0.002723694,-0.004789352,0,
00:07.0,-0.00279808,0.002723694,-0.004835129,0,
00:07.0,-0.002792358,0.002763748,-0.004858017,0,
00:07.0,-0.002803802,0.002792358,-0.004886627,0,
00:07.0,-0.002758026,0.002803802,-0.004835129,0,
00:07.0,-0.002763748,0.002780914,-0.004880905,0,
00:07.0,-0.002809525,0.002786636,-0.004840851,0,
00:07.0,-0.002775192,0.00279808,-0.004800797,0,
00:07.0,-0.00279808,0.002758026,-0.004846573,0,
00:07.1,-0.002815247,0.002763748,-0.004915237,0,
00:07.1,-0.00279808,0.00276947,-0.004858017,0,
00:07.1,-0.002803802,0.002735138,-0.004829407,0,
00:07.1,-0.00279808,0.00274086,-0.004846573,0,
00:07.1,-0.002792358,0.002758026,-0.004869461,0,
00:07.1,-0.002792358,0.002775192,-0.004909515,0,
00:07.1,-0.002803802,0.002735138,-0.004829407,0,
00:07.1,-0.00279808,0.002752304,-0.004812241,0,
00:07.1,-0.002803802,0.00276947,-0.004829407,0,
00:07.1,-0.002775192,0.002826691,-0.004903793,0,
00:07.1,-0.002752304,0.002792358,-0.004880905,0,
00:07.1,-0.002780914,0.002758026,-0.004835129,0,
00:07.1,-0.00279808,0.002758026,-0.004823685,0,
00:07.1,-0.002803802,0.002758026,-0.004903793,0,
00:07.1,-0.002815247,0.002752304,-0.004817963,0,
00:07.1,-0.002803802,0.002752304,-0.004823685,0,
00:07.1,-0.002786636,0.00276947,-0.004880905,0,
00:07.1,-0.00279808,0.00279808,-0.004886627,0,
00:07.1,-0.002809525,0.002775192,-0.004840851,0,
00:07.1,-0.002803802,0.002746582,-0.004817963,0,
00:07.1,-0.002809525,0.00274086,-0.004835129,0,
00:07.1,-0.002803802,0.00274086,-0.004863739,0,
00:07.1,-0.002786636,0.002746582,-0.004863739,0,
00:07.1,-0.002803802,0.002752304,-0.004846573,0,
00:07.1,-0.002815247,0.00274086,-0.004852295,0,
00:07.2,-0.00279808,0.002775192,-0.004852295,0,
00:07.2,-0.002803802,0.002758026,-0.004863739,0,
00:07.2,-0.002803802,0.002752304,-0.004858017,0,
00:07.2,-0.002809525,0.002763748,-0.004852295,0,
00:07.2,-0.002803802,0.002775192,-0.004858017,0,
00:07.2,-0.00279808,0.002780914,-0.004858017,0,
00:07.2,-0.002792358,0.00276947,-0.004869461,0,
00:07.2,-0.00279808,0.002763748,-0.004835129,0,
00:07.2,-0.002780914,0.002809525,-0.004869461,0,
00:07.2,-0.002792358,0.002735138,-0.004869461,0,
00:07.2,-0.002826691,0.002752304,-0.004852295,0,
00:07.2,-0.002820969,0.002780914,-0.004892349,0,
00:07.2,-0.002809525,0.002775192,-0.004863739,0,
00:07.2,-0.002815247,0.002735138,-0.004800797,0,
00:07.2,-0.002792358,0.002735138,-0.004892349,0,
00:07.2,-0.002763748,0.002752304,-0.004869461,0,
00:07.2,-0.002815247,0.002786636,-0.004812241,0,
00:07.2,-0.002826691,0.002735138,-0.004806519,0,
00:07.2,-0.002820969,0.00274086,-0.004823685,0,
00:07.2,-0.002803802,0.002729416,-0.004858017,0,
00:07.2,-0.002820969,0.002723694,-0.004863739,0,
00:07.2,-0.00279808,0.002758026,-0.004886627,0,
00:07.2,-0.00279808,0.002752304,-0.004823685,0,
00:07.2,-0.002815247,0.002746582,-0.004823685,0,
00:07.2,-0.002803802,0.002758026,-0.004863739,0,
00:07.3,-0.00279808,0.002763748,-0.004886627,0,
00:07.3,-0.002803802,0.002752304,-0.004926682,0,
00:07.3,-0.002809525,0.002752304,-0.004835129,0,
00:07.3,-0.002809525,0.002758026,-0.004812241,0,
00:07.3,-0.002832413,0.002717972,-0.004823685,0,
00:07.3,-0.002826691,0.002758026,-0.004869461,0,
00:07.3,-0.002826691,0.002775192,-0.004823685,0,
00:07.3,-0.002832413,0.002729416,-0.004835129,0,
00:07.3,-0.002820969,0.00274086,-0.004835129,0,
00:07.3,-0.002815247,0.002752304,-0.004840851,0,
00:07.3,-0.002820969,0.002723694,-0.004852295,0,
00:07.3,-0.002775192,0.002792358,-0.004869461,0,
00:07.3,-0.002729416,0.002855301,-0.004955292,0,
00:07.3,-0.002809525,0.002763748,-0.004938126,0,
00:07.3,-0.002832413,0.002729416,-0.004840851,0,
00:07.3,-0.002838135,0.00274086,-0.004749298,0,
00:07.3,-0.002843857,0.002763748,-0.004812241,0,
00:07.3,-0.002826691,0.002717972,-0.004823685,0,
00:07.3,-0.002832413,0.00271225,-0.004846573,0,
00:07.3,-0.002838135,0.002717972,-0.004835129,0,
00:07.3,-0.002832413,0.002735138,-0.004835129,0,
00:07.3,-0.002832413,0.002723694,-0.004846573,0,
00:07.3,-0.002826691,0.002729416,-0.004852295,0,
00:07.3,-0.002826691,0.00274086,-0.004852295,0,
00:07.3,-0.002820969,0.002746582,-0.004852295,0,
00:07.4,-0.002803802,0.002792358,-0.004858017,0,
00:07.4,-0.002758026,0.002820969,-0.004915237,0,
00:07.4,-0.002700806,0.002803802,-0.004955292,0,
00:07.4,-0.002780914,0.002820969,-0.004903793,0,
00:07.4,-0.002872467,0.002763748,-0.004817963,0,
00:07.4,-0.002855301,0.002695084,-0.004817963,0,
00:07.4,-0.002826691,0.002723694,-0.004863739,0,
00:07.4,-0.002855301,0.002717972,-0.004817963,0,
00:07.4,-0.002849579,0.002735138,-0.004777908,0,
00:07.4,-0.002832413,0.00274086,-0.004829407,0,
00:07.4,-0.002826691,0.002729416,-0.004863739,0,
00:07.4,-0.002832413,0.00274086,-0.004812241,0,
00:07.4,-0.002843857,0.002746582,-0.004852295,0,
00:07.4,-0.002826691,0.002758026,-0.004869461,0,
00:07.4,-0.002792358,0.002803802,-0.004858017,0,
00:07.4,-0.002792358,0.002786636,-0.004852295,0,
00:07.4,-0.002809525,0.002792358,-0.004886627,0,
00:07.4,-0.002855301,0.002723694,-0.004846573,0,
00:07.4,-0.002838135,0.00274086,-0.004852295,0,
00:07.4,-0.002843857,0.002689362,-0.004846573,0,
00:07.4,-0.002832413,0.002717972,-0.004840851,0,
00:07.4,-0.002826691,0.002758026,-0.004840851,0,
00:07.4,-0.002832413,0.002729416,-0.004829407,0,
00:07.4,-0.002815247,0.00274086,-0.004898071,0,
00:07.4,-0.002803802,0.002752304,-0.004880905,0,
00:07.5,-0.002820969,0.002746582,-0.004800797,0,
00:07.5,-0.002855301,0.002746582,-0.004840851,0,
00:07.5,-0.002855301,0.002763748,-0.004840851,0,
00:07.5,-0.002849579,0.002723694,-0.004835129,0,
00:07.5,-0.002843857,0.002700806,-0.004829407,0,
00:07.5,-0.002838135,0.002729416,-0.004846573,0,
00:07.5,-0.002826691,0.002752304,-0.004852295,0,
00:07.5,-0.002820969,0.002775192,-0.004886627,0,
00:07.5,-0.00279808,0.002786636,-0.004858017,0,
00:07.5,-0.002815247,0.002746582,-0.004852295,0,
00:07.5,-0.002832413,0.002758026,-0.004863739,0,
00:07.5,-0.002832413,0.00274086,-0.004835129,0,
00:07.5,-0.002866745,0.002723694,-0.004823685,0,
00:07.5,-0.002861023,0.002717972,-0.004840851,0,
00:07.5,-0.002843857,0.002735138,-0.004829407,0,
00:07.5,-0.002826691,0.002752304,-0.004863739,0,
00:07.5,-0.002826691,0.002717972,-0.004892349,0,
00:07.5,-0.00279808,0.002809525,-0.004875183,0,
00:07.5,-0.002815247,0.002780914,-0.004869461,0,
00:07.5,-0.002838135,0.00274086,-0.004880905,0,
00:07.5,-0.002815247,0.00276947,-0.004858017,0,
00:07.5,-0.002832413,0.002763748,-0.00478363,0,
00:07.5,-0.002878189,0.002706528,-0.004800797,0,
00:07.5,-0.002861023,0.002746582,-0.004817963,0,
00:07.5,-0.002855301,0.00271225,-0.004840851,0,
00:07.6,-0.002843857,0.002706528,-0.004835129,0,
00:07.6,-0.002826691,0.002780914,-0.004840851,0,
00:07.6,-0.002820969,0.002763748,-0.004880905,0,
00:07.6,-0.002861023,0.002752304,-0.004863739,0,
00:07.6,-0.002866745,0.002717972,-0.004835129,0,
00:07.6,-0.002843857,0.00274086,-0.004880905,0,
00:07.6,-0.002838135,0.002729416,-0.004858017,0,
00:07.6,-0.002838135,0.002729416,-0.004846573,0,
00:07.6,-0.002849579,0.002729416,-0.004817963,0,
00:07.6,-0.002855301,0.002723694,-0.004829407,0,
00:07.6,-0.002843857,0.002729416,-0.004840851,0,
00:07.6,-0.002826691,0.002780914,-0.004840851,0,
00:07.6,-0.002758026,0.002849579,-0.004846573,0,
00:07.6,-0.002735138,0.002815247,-0.005001068,0,
00:07.6,-0.002855301,0.002729416,-0.004909515,0,
00:07.6,-0.002872467,0.002723694,-0.004743576,0,
00:07.6,-0.002883911,0.002689362,-0.004835129,0,
00:07.6,-0.002861023,0.002717972,-0.004852295,0,
00:07.6,-0.002866745,0.002723694,-0.00478363,0,
00:07.6,-0.002866745,0.002729416,-0.004812241,0,
00:07.6,-0.002855301,0.002729416,-0.004829407,0,
00:07.6,-0.002855301,0.002735138,-0.004840851,0,
00:07.6,-0.002855301,0.002735138,-0.004846573,0,
00:07.6,-0.002861023,0.002729416,-0.004840851,0,
00:07.6,-0.002855301,0.002735138,-0.004846573,0,
00:07.7,-0.002843857,0.002752304,-0.004858017,0,
00:07.7,-0.002820969,0.002889633,-0.004915237,0,
00:07.7,-0.002786636,0.002803802,-0.004961014,0,
00:07.7,-0.00279808,0.002786636,-0.004846573,0,
00:07.7,-0.002872467,0.002700806,-0.004812241,0,
00:07.7,-0.002866745,0.00271225,-0.004766464,0,
00:07.7,-0.002878189,0.00274086,-0.004835129,0,
00:07.7,-0.002866745,0.002723694,-0.004846573,0,
00:07.7,-0.002855301,0.00271225,-0.004840851,0,
00:07.7,-0.002855301,0.002735138,-0.004829407,0,
00:07.7,-0.002849579,0.002746582,-0.004835129,0,
00:07.7,-0.002843857,0.002758026,-0.004858017,0,
00:07.7,-0.002855301,0.00274086,-0.004869461,0,
00:07.7,-0.002838135,0.002758026,-0.004858017,0,
00:07.7,-0.002843857,0.002752304,-0.004823685,0,
00:07.7,-0.002866745,0.002729416,-0.004835129,0,
00:07.7,-0.002855301,0.002746582,-0.004835129,0,
00:07.7,-0.002826691,0.00279808,-0.004886627,0,
00:07.7,-0.002861023,0.002758026,-0.004858017,0,
00:07.7,-0.002872467,0.002717972,-0.004817963,0,
00:07.7,-0.002832413,0.00274086,-0.004898071,0,
00:07.7,-0.002843857,0.00276947,-0.004840851,0,
00:07.7,-0.002855301,0.00276947,-0.004840851,0,
00:07.7,-0.002826691,0.002763748,-0.004806519,0,
00:07.7,-0.002820969,0.002775192,-0.004800797,0,
00:07.8,-0.002861023,0.002786636,-0.004875183,0,
00:07.8,-0.002855301,0.002746582,-0.004903793,0,
00:07.8,-0.002878189,0.002689362,-0.004800797,0,
00:07.8,-0.002872467,0.002746582,-0.004800797,0,
00:07.8,-0.002855301,0.00276947,-0.004863739,0,
00:07.8,-0.002832413,0.002752304,-0.004858017,0,
00:07.8,-0.002866745,0.002717972,-0.004840851,0,
00:07.8,-0.002861023,0.00274086,-0.004800797,0,
00:07.8,-0.002832413,0.002780914,-0.004869461,0,
00:07.8,-0.002861023,0.002780914,-0.004915237,0,
00:07.8,-0.002878189,0.00274086,-0.004886627,0,
00:07.8,-0.002866745,0.002763748,-0.004806519,0,
00:07.8,-0.002861023,0.002752304,-0.004766464,0,
00:07.8,-0.002855301,0.002746582,-0.004852295,0,
00:07.8,-0.002855301,0.00274086,-0.004806519,0,
00:07.8,-0.002866745,0.002735138,-0.004823685,0,
00:07.8,-0.002866745,0.00274086,-0.004846573,0,
00:07.8,-0.002866745,0.002758026,-0.004817963,0,
00:07.8,-0.002849579,0.00279808,-0.004817963,0,
00:07.8,-0.002803802,0.002803802,-0.004846573,0,
00:07.8,-0.002820969,0.002826691,-0.004892349,0,
00:07.8,-0.002849579,0.00274086,-0.004846573,0,
00:07.8,-0.002866745,0.002729416,-0.004846573,0,
00:07.8,-0.002889633,0.00274086,-0.004823685,0,
00:07.8,-0.002889633,0.002780914,-0.004812241,0,
00:07.9,-0.002883911,0.002780914,-0.004846573,0,
00:07.9,-0.002849579,0.002746582,-0.004920959,0,
00:07.9,-0.002826691,0.002775192,-0.004915237,0,
00:07.9,-0.002872467,0.002746582,-0.00478363,0,
00:07.9,-0.002878189,0.00274086,-0.004777908,0,
00:07.9,-0.002866745,0.002746582,-0.004789352,0,
00:07.9,-0.002866745,0.002758026,-0.004806519,0,
00:07.9,-0.002861023,0.00276947,-0.004846573,0,
00:07.9,-0.002855301,0.00274086,-0.004858017,0,
00:07.9,-0.002843857,0.002792358,-0.004835129,0,
00:07.9,-0.002883911,0.002780914,-0.004800797,0,
00:07.9,-0.002878189,0.002735138,-0.004812241,0,
00:07.9,-0.002883911,0.002758026,-0.004835129,0,
00:07.9,-0.002872467,0.002752304,-0.004846573,0,
00:07.9,-0.002849579,0.002780914,-0.004869461,0,
00:07.9,-0.002866745,0.002763748,-0.004823685,0,
00:07.9,-0.002866745,0.002780914,-0.004846573,0,
00:07.9,-0.002872467,0.002763748,-0.004823685,0,
00:07.9,-0.002878189,0.002775192,-0.004812241,0,
00:07.9,-0.002878189,0.00276947,-0.004880905,0,
00:07.9,-0.002866745,0.00276947,-0.004840851,0,
00:07.9,-0.002866745,0.002763748,-0.004806519,0,
00:07.9,-0.002872467,0.002763748,-0.004840851,0,
00:07.9,-0.002849579,0.002752304,-0.004817963,0,
00:07.9,-0.002855301,0.002763748,-0.004858017,0,
00:08.0,-0.002861023,0.00276947,-0.004852295,0,
00:08.0,-0.002883911,0.002803802,-0.004829407,0,
00:08.0,-0.002878189,0.002786636,-0.004840851,0,
00:08.0,-0.002855301,0.002763748,-0.004829407,0,
00:08.0,-0.002895355,0.00276947,-0.004795074,0,
00:08.0,-0.002872467,0.002780914,-0.004829407,0,
00:08.0,-0.002861023,0.002780914,-0.004858017,0,
00:08.0,-0.002872467,0.002786636,-0.004920959,0,
00:08.0,-0.002866745,0.002792358,-0.004858017,0,
00:08.0,-0.002855301,0.002763748,-0.004749298,0,
00:08.0,-0.002889633,0.00274086,-0.004795074,0,
00:08.0,-0.002889633,0.002780914,-0.004806519,0,
00:00:08,-0.002878189,0.002763748,-0.004817963,0,
00:08.0,-0.002883911,0.002758026,-0.004852295,0,
00:08.0,-0.002883911,0.002775192,-0.004817963,0,
00:08.0,-0.002849579,0.00279808,-0.004806519,0,
00:08.0,-0.002855301,0.002792358,-0.004829407,0,
00:08.0,-0.002878189,0.002763748,-0.004829407,0,
00:08.0,-0.002895355,0.002763748,-0.004812241,0,
00:08.0,-0.002872467,0.002786636,-0.004823685,0,
00:08.0,-0.002832413,0.002849579,-0.004858017,0,
00:08.0,-0.002895355,0.00276947,-0.004817963,0,
00:08.0,-0.002889633,0.00274086,-0.004835129,0,
00:08.0,-0.002883911,0.002775192,-0.004823685,0,
00:08.0,-0.002895355,0.002786636,-0.004800797,0,
00:08.1,-0.002895355,0.002758026,-0.004812241,0,
00:08.1,-0.002895355,0.002758026,-0.004823685,0,
00:08.1,-0.002872467,0.002809525,-0.004817963,0,
00:08.1,-0.002872467,0.002849579,-0.004823685,0,
00:08.1,-0.002866745,0.002849579,-0.004829407,0,
00:08.1,-0.002849579,0.002746582,-0.004886627,0,
00:08.1,-0.002883911,0.00274086,-0.004846573,0,
00:08.1,-0.002889633,0.002780914,-0.00478363,0,
00:08.1,-0.002906799,0.002780914,-0.004806519,0,
00:08.1,-0.002872467,0.002775192,-0.004812241,0,
00:08.1,-0.002878189,0.00279808,-0.004829407,0,
00:08.1,-0.002872467,0.002826691,-0.004817963,0,
00:08.1,-0.002872467,0.002792358,-0.004869461,0,
00:08.1,-0.002901077,0.00279808,-0.004817963,0,
00:08.1,-0.002906799,0.002775192,-0.004743576,0,
00:08.1,-0.002883911,0.002780914,-0.004789352,0,
00:08.1,-0.002889633,0.002803802,-0.004777908,0,
00:08.1,-0.002866745,0.002786636,-0.004880905,0,
00:08.1,-0.002855301,0.002815247,-0.004823685,0,
00:08.1,-0.002889633,0.002838135,-0.004795074,0,
00:08.1,-0.002872467,0.002809525,-0.004869461,0,
00:08.1,-0.002866745,0.00276947,-0.004858017,0,
00:08.1,-0.002906799,0.002786636,-0.004789352,0,
00:08.1,-0.002912521,0.002780914,-0.004806519,0,
00:08.1,-0.002901077,0.002809525,-0.004772186,0,
00:08.2,-0.002901077,0.002792358,-0.004795074,0,
00:08.2,-0.002889633,0.002786636,-0.004812241,0,
00:08.2,-0.002878189,0.002786636,-0.004823685,0,
00:08.2,-0.002861023,0.002826691,-0.004852295,0,
00:08.2,-0.002872467,0.002820969,-0.004835129,0,
00:08.2,-0.002849579,0.002872467,-0.004858017,0,
00:08.2,-0.002849579,0.002878189,-0.004932404,0,
00:08.2,-0.002889633,0.002763748,-0.004789352,0,
00:08.2,-0.002929688,0.002746582,-0.004732132,0,
00:08.2,-0.002912521,0.002780914,-0.004760742,0,
00:08.2,-0.002901077,0.002775192,-0.004806519,0,
00:08.2,-0.002889633,0.002809525,-0.004777908,0,
00:08.2,-0.002889633,0.002820969,-0.004789352,0,
00:08.2,-0.002889633,0.002780914,-0.004806519,0,
00:08.2,-0.002872467,0.002792358,-0.004880905,0,
00:08.2,-0.002889633,0.002792358,-0.004795074,0,
00:08.2,-0.002889633,0.002809525,-0.004800797,0,
00:08.2,-0.002895355,0.002838135,-0.004772186,0,
00:08.2,-0.002883911,0.002832413,-0.004817963,0,
00:08.2,-0.002889633,0.002809525,-0.004840851,0,
00:08.2,-0.002878189,0.002786636,-0.004772186,0,
00:08.2,-0.002878189,0.002815247,-0.004812241,0,
00:08.2,-0.002901077,0.002826691,-0.004823685,0,
00:08.2,-0.002878189,0.00279808,-0.004840851,0,
00:08.2,-0.002883911,0.00279808,-0.004795074,0,
00:08.3,-0.002872467,0.002826691,-0.004789352,0,
00:08.3,-0.002878189,0.002838135,-0.004789352,0,
00:08.3,-0.002883911,0.002820969,-0.004829407,0,
00:08.3,-0.002895355,0.00279808,-0.004852295,0,
00:08.3,-0.002901077,0.00279808,-0.004817963,0,
00:08.3,-0.002895355,0.002815247,-0.004760742,0,
00:08.3,-0.002889633,0.002826691,-0.00475502,0,
00:08.3,-0.002883911,0.002820969,-0.00478363,0,
00:08.3,-0.002895355,0.002820969,-0.004800797,0,
00:08.3,-0.002883911,0.002803802,-0.00478363,0,
00:08.3,-0.002883911,0.002843857,-0.004840851,0,
00:08.3,-0.002866745,0.002820969,-0.004840851,0,
00:08.3,-0.002878189,0.002786636,-0.004806519,0,
00:08.3,-0.002901077,0.002832413,-0.004829407,0,
00:08.3,-0.002906799,0.002792358,-0.004760742,0,
00:08.3,-0.002883911,0.002838135,-0.004789352,0,
00:08.3,-0.002855301,0.002889633,-0.004858017,0,
00:08.3,-0.002826691,0.002878189,-0.004817963,0,
00:08.3,-0.002878189,0.002878189,-0.004829407,0,
00:08.3,-0.002923965,0.00279808,-0.004800797,0,
00:08.3,-0.002918243,0.00276947,-0.004789352,0,
00:08.3,-0.002901077,0.002786636,-0.004749298,0,
00:08.3,-0.002906799,0.00279808,-0.004766464,0,
00:08.3,-0.002906799,0.00279808,-0.00478363,0,
00:08.3,-0.002901077,0.002809525,-0.004800797,0,
00:08.4,-0.002901077,0.002815247,-0.004800797,0,
00:08.4,-0.002895355,0.002815247,-0.004800797,0,
00:08.4,-0.002889633,0.002838135,-0.004795074,0,
00:08.4,-0.002872467,0.002861023,-0.004840851,0,
00:08.4,-0.002832413,0.002849579,-0.004875183,0,
00:08.4,-0.002826691,0.002883911,-0.004846573,0,
00:08.4,-0.002843857,0.002912521,-0.004749298,0,
00:08.4,-0.002895355,0.002820969,-0.00478363,0,
00:08.4,-0.002923965,0.002792358,-0.004720688,0,
00:08.4,-0.002923965,0.002815247,-0.004772186,0,
00:08.4,-0.002918243,0.002815247,-0.004806519,0,
00:08.4,-0.002912521,0.002792358,-0.004789352,0,
00:08.4,-0.002912521,0.002803802,-0.00478363,0,
00:08.4,-0.002906799,0.002815247,-0.004789352,0,
00:08.4,-0.002906799,0.002820969,-0.004789352,0,
00:08.4,-0.002901077,0.002826691,-0.004795074,0,
00:08.4,-0.002895355,0.002832413,-0.004795074,0,
00:08.4,-0.002901077,0.002832413,-0.004789352,0,
00:08.4,-0.002901077,0.002826691,-0.004795074,0,
00:08.4,-0.002895355,0.002826691,-0.004795074,0,
00:08.4,-0.002895355,0.002826691,-0.004795074,0,
00:08.4,-0.002895355,0.002826691,-0.004800797,0,
00:08.4,-0.002895355,0.002843857,-0.004800797,0,
00:08.4,-0.002855301,0.002895355,-0.004806519,0,
00:08.4,-0.002792358,0.00299263,-0.004880905,0,
00:08.5,-0.002849579,0.002849579,-0.00497818,0,
00:08.5,-0.002923965,0.00279808,-0.004737854,0,
00:08.5,-0.002912521,0.002838135,-0.004680634,0,
00:08.5,-0.002912521,0.002792358,-0.004772186,0,
00:08.5,-0.002923965,0.002792358,-0.004766464,0,
00:08.5,-0.002912521,0.002820969,-0.00475502,0,
00:08.5,-0.002895355,0.002832413,-0.004766464,0,
00:08.5,-0.002895355,0.002832413,-0.004777908,0,
00:08.5,-0.002895355,0.002826691,-0.00478363,0,
00:08.5,-0.002895355,0.002832413,-0.004789352,0,
00:08.5,-0.002895355,0.002832413,-0.004789352,0,
00:08.5,-0.002889633,0.002849579,-0.004795074,0,
00:08.5,-0.002826691,0.002918243,-0.004789352,0,
00:08.5,-0.002849579,0.002912521,-0.004858017,0,
00:08.5,-0.002866745,0.002889633,-0.004823685,0,
00:08.5,-0.002883911,0.002826691,-0.004892349,0,
00:08.5,-0.002895355,0.002820969,-0.004858017,0,
00:08.5,-0.002889633,0.002878189,-0.004686356,0,
00:08.5,-0.002895355,0.00279808,-0.004714966,0,
00:08.5,-0.002906799,0.002792358,-0.00475502,0,
00:08.5,-0.002895355,0.002820969,-0.004766464,0,
00:08.5,-0.002895355,0.002826691,-0.004812241,0,
00:08.5,-0.002901077,0.002855301,-0.004795074,0,
00:08.5,-0.002895355,0.002866745,-0.004766464,0,
00:08.5,-0.002901077,0.002849579,-0.004777908,0,
00:08.6,-0.002889633,0.002855301,-0.00478363,0,
00:08.6,-0.002883911,0.002861023,-0.004795074,0,
00:08.6,-0.002889633,0.002838135,-0.00478363,0,
00:08.6,-0.002889633,0.002838135,-0.004806519,0,
00:08.6,-0.002889633,0.002849579,-0.004795074,0,
00:08.6,-0.002889633,0.002843857,-0.004806519,0,
00:08.6,-0.002883911,0.002849579,-0.004795074,0,
00:08.6,-0.002889633,0.002843857,-0.00478363,0,
00:08.6,-0.002883911,0.002866745,-0.004766464,0,
00:08.6,-0.002866745,0.002855301,-0.00478363,0,
00:08.6,-0.002855301,0.002883911,-0.004829407,0,
00:08.6,-0.002872467,0.002872467,-0.004812241,0,
00:08.6,-0.002883911,0.002889633,-0.004863739,0,
00:08.6,-0.002912521,0.002838135,-0.004829407,0,
00:08.6,-0.002895355,0.002849579,-0.004737854,0,
00:08.6,-0.002883911,0.002861023,-0.004720688,0,
00:08.6,-0.002889633,0.002855301,-0.004749298,0,
00:08.6,-0.002878189,0.002855301,-0.004812241,0,
00:08.6,-0.002883911,0.002803802,-0.004766464,0,
00:08.6,-0.002895355,0.002855301,-0.004766464,0,
00:08.6,-0.002889633,0.002866745,-0.004737854,0,
00:08.6,-0.002895355,0.002866745,-0.004777908,0,
00:08.6,-0.002895355,0.002838135,-0.004795074,0,
00:08.6,-0.002889633,0.002832413,-0.004789352,0,
00:08.6,-0.002889633,0.002849579,-0.004772186,0,
00:08.7,-0.002889633,0.002872467,-0.00478363,0,
00:08.7,-0.002883911,0.002872467,-0.00478363,0,
00:08.7,-0.002878189,0.002883911,-0.004795074,0,
00:08.7,-0.002895355,0.002843857,-0.00478363,0,
00:08.7,-0.002878189,0.002878189,-0.004795074,0,
00:08.7,-0.002889633,0.002838135,-0.00475502,0,
00:08.7,-0.002889633,0.002843857,-0.004789352,0,
00:08.7,-0.002883911,0.002878189,-0.004806519,0,
00:08.7,-0.002895355,0.002849579,-0.004772186,0,
00:08.7,-0.002878189,0.002855301,-0.004835129,0,
00:08.7,-0.002878189,0.002878189,-0.004714966,0,
00:08.7,-0.002878189,0.002883911,-0.004777908,0,
00:08.7,-0.002889633,0.002849579,-0.004772186,0,
00:08.7,-0.002895355,0.002855301,-0.004760742,0,
00:08.7,-0.002912521,0.002883911,-0.004766464,0,
00:08.7,-0.002883911,0.002866745,-0.00475502,0,
00:08.7,-0.002895355,0.002826691,-0.004766464,0,
00:08.7,-0.002889633,0.002849579,-0.004772186,0,
00:08.7,-0.002883911,0.002843857,-0.004795074,0,
00:08.7,-0.002889633,0.002849579,-0.004777908,0,
00:08.7,-0.002901077,0.002866745,-0.004777908,0,
00:08.7,-0.002889633,0.002866745,-0.004800797,0,
00:08.7,-0.002901077,0.002843857,-0.004789352,0,
00:08.7,-0.002889633,0.002838135,-0.004760742,0,
00:08.7,-0.002855301,0.002878189,-0.004772186,0,
00:08.8,-0.002849579,0.002883911,-0.004840851,0,
00:08.8,-0.002883911,0.002878189,-0.00478363,0,
00:08.8,-0.002918243,0.002855301,-0.004766464,0,
00:08.8,-0.002906799,0.002849579,-0.004795074,0,
00:08.8,-0.002906799,0.002889633,-0.004800797,0,
00:08.8,-0.002878189,0.002843857,-0.004795074,0,
00:08.8,-0.002883911,0.002855301,-0.004732132,0,
00:08.8,-0.002889633,0.002878189,-0.004795074,0,
00:08.8,-0.002889633,0.002895355,-0.004760742,0,
00:08.8,-0.002883911,0.002872467,-0.004789352,0,
00:08.8,-0.002855301,0.002866745,-0.004789352,0,
00:08.8,-0.002889633,0.002889633,-0.004743576,0,
00:08.8,-0.002918243,0.002826691,-0.00478363,0,
00:08.8,-0.002906799,0.002832413,-0.004777908,0,
00:08.8,-0.002895355,0.002855301,-0.004772186,0,
00:08.8,-0.002883911,0.002861023,-0.004800797,0,
00:08.8,-0.002878189,0.002872467,-0.004846573,0,
00:08.8,-0.002895355,0.002872467,-0.004743576,0,
00:08.8,-0.002889633,0.002843857,-0.004732132,0,
00:08.8,-0.002889633,0.002832413,-0.004766464,0,
00:08.8,-0.002883911,0.002866745,-0.004806519,0,
00:08.8,-0.002889633,0.002866745,-0.004795074,0,
00:08.8,-0.002895355,0.002855301,-0.004789352,0,
00:08.8,-0.002889633,0.002861023,-0.004829407,0,
00:08.8,-0.002889633,0.002861023,-0.00478363,0,
00:08.9,-0.002889633,0.002849579,-0.004772186,0,
00:08.9,-0.002883911,0.002872467,-0.00475502,0,
00:08.9,-0.002866745,0.002923965,-0.00475502,0,
00:08.9,-0.002861023,0.002901077,-0.004829407,0,
00:08.9,-0.002895355,0.002855301,-0.004863739,0,
00:08.9,-0.002889633,0.002826691,-0.004737854,0,
00:08.9,-0.002883911,0.002866745,-0.00472641,0,
00:08.9,-0.002883911,0.002872467,-0.004766464,0,
00:08.9,-0.002901077,0.002843857,-0.004772186,0,
00:08.9,-0.002906799,0.002849579,-0.004760742,0,
00:08.9,-0.002889633,0.002843857,-0.004806519,0,
00:08.9,-0.002878189,0.002855301,-0.004812241,0,
00:08.9,-0.002861023,0.002912521,-0.004806519,0,
00:08.9,-0.002906799,0.002895355,-0.00478363,0,
00:08.9,-0.002895355,0.002849579,-0.004800797,0,
00:08.9,-0.002889633,0.002872467,-0.004812241,0,
00:08.9,-0.002883911,0.002855301,-0.004766464,0,
00:08.9,-0.002883911,0.002838135,-0.00472641,0,
00:08.9,-0.002906799,0.002838135,-0.004766464,0,
00:08.9,-0.002883911,0.002872467,-0.004766464,0,
00:08.9,-0.002883911,0.002883911,-0.00478363,0,
00:08.9,-0.002883911,0.002861023,-0.004817963,0,
00:08.9,-0.002878189,0.002889633,-0.004817963,0,
00:08.9,-0.002895355,0.002866745,-0.004789352,0,
00:08.9,-0.002906799,0.002849579,-0.004777908,0,
00:09.0,-0.002883911,0.002883911,-0.004760742,0,
00:09.0,-0.002889633,0.002878189,-0.004795074,0,
00:09.0,-0.002901077,0.002820969,-0.004766464,0,
00:09.0,-0.002906799,0.002849579,-0.004777908,0,
00:09.0,-0.002895355,0.002878189,-0.004789352,0,
00:09.0,-0.002889633,0.002866745,-0.004817963,0,
00:09.0,-0.002866745,0.002918243,-0.004795074,0,
00:09.0,-0.002843857,0.002952576,-0.004852295,0,
00:09.0,-0.002872467,0.002866745,-0.004909515,0,
00:09.0,-0.002901077,0.002832413,-0.00472641,0,
00:09.0,-0.002895355,0.002855301,-0.004709244,0,
00:09.0,-0.002878189,0.002855301,-0.004743576,0,
00:00:09,-0.002889633,0.002866745,-0.00478363,0,
00:09.0,-0.002906799,0.002843857,-0.00478363,0,
00:09.0,-0.002906799,0.002866745,-0.004789352,0,
00:09.0,-0.002895355,0.002878189,-0.004789352,0,
00:09.0,-0.002889633,0.002855301,-0.004800797,0,
00:09.0,-0.002895355,0.002861023,-0.004777908,0,
00:09.0,-0.002901077,0.002855301,-0.00478363,0,
00:09.0,-0.002895355,0.002855301,-0.004789352,0,
00:09.0,-0.002866745,0.002901077,-0.004800797,0,
00:09.0,-0.002820969,0.002986908,-0.004880905,0,
00:09.0,-0.002832413,0.002981186,-0.004955292,0,
00:09.0,-0.002878189,0.002838135,-0.004806519,0,
00:09.0,-0.002872467,0.002849579,-0.004674911,0,
00:09.1,-0.002901077,0.002855301,-0.00478363,0,
00:09.1,-0.00293541,0.002838135,-0.004749298,0,
00:09.1,-0.002901077,0.002838135,-0.004749298,0,
00:09.1,-0.002918243,0.002826691,-0.004772186,0,
00:09.1,-0.002918243,0.002855301,-0.00478363,0,
00:09.1,-0.002906799,0.002861023,-0.004789352,0,
00:09.1,-0.002895355,0.002855301,-0.004795074,0,
00:09.1,-0.002901077,0.002843857,-0.004795074,0,
00:09.1,-0.002901077,0.002878189,-0.004800797,0,
00:09.1,-0.002895355,0.002878189,-0.004795074,0,
00:09.1,-0.002878189,0.002861023,-0.004800797,0,
00:09.1,-0.002861023,0.002906799,-0.004823685,0,
00:09.1,-0.002826691,0.002998352,-0.004920959,0,
00:09.1,-0.002849579,0.002906799,-0.004892349,0,
00:09.1,-0.002906799,0.002849579,-0.004714966,0,
00:09.1,-0.002906799,0.002872467,-0.004766464,0,
00:09.1,-0.002918243,0.002815247,-0.004743576,0,
00:09.1,-0.002918243,0.002855301,-0.00475502,0,
00:09.1,-0.002923965,0.002849579,-0.004772186,0,
00:09.1,-0.002923965,0.002838135,-0.004789352,0,
00:09.1,-0.002912521,0.002849579,-0.004789352,0,
00:09.1,-0.002906799,0.002849579,-0.004795074,0,
00:09.1,-0.002906799,0.002849579,-0.004795074,0,
00:09.1,-0.002889633,0.002855301,-0.004835129,0,
00:09.1,-0.002861023,0.002878189,-0.004800797,0,
00:09.2,-0.002832413,0.002912521,-0.004789352,0,
00:09.2,-0.002889633,0.002895355,-0.004777908,0,
00:09.2,-0.002918243,0.002866745,-0.004812241,0,
00:09.2,-0.002912521,0.002861023,-0.004840851,0,
00:09.2,-0.002918243,0.002826691,-0.004806519,0,
00:09.2,-0.002918243,0.002838135,-0.004772186,0,
00:09.2,-0.002918243,0.002838135,-0.004789352,0,
00:09.2,-0.002912521,0.002878189,-0.004789352,0,
00:09.2,-0.002901077,0.002918243,-0.004812241,0,
00:09.2,-0.002895355,0.002883911,-0.004823685,0,
00:09.2,-0.002843857,0.002901077,-0.004817963,0,
00:09.2,-0.002855301,0.002878189,-0.004852295,0,
00:09.2,-0.002895355,0.002838135,-0.00472641,0,
00:09.2,-0.002912521,0.002861023,-0.004777908,0,
00:09.2,-0.00293541,0.002838135,-0.004800797,0,
00:09.2,-0.002923965,0.002843857,-0.004777908,0,
00:09.2,-0.002912521,0.002855301,-0.004766464,0,
00:09.2,-0.002912521,0.002843857,-0.004772186,0,
00:09.2,-0.002912521,0.002855301,-0.004789352,0,
00:09.2,-0.002912521,0.002895355,-0.004800797,0,
00:09.2,-0.002895355,0.002889633,-0.004795074,0,
00:09.2,-0.002878189,0.002883911,-0.004806519,0,
00:09.2,-0.002895355,0.002872467,-0.004880905,0,
00:09.2,-0.002866745,0.002901077,-0.004789352,0,
00:09.2,-0.002895355,0.002838135,-0.004806519,0,
00:09.3,-0.002895355,0.002815247,-0.004812241,0,
00:09.3,-0.002912521,0.002872467,-0.004772186,0,
00:09.3,-0.002946854,0.002883911,-0.004766464,0,
00:09.3,-0.002929688,0.002861023,-0.004760742,0,
00:09.3,-0.002912521,0.002861023,-0.00478363,0,
00:09.3,-0.002918243,0.002849579,-0.00478363,0,
00:09.3,-0.002918243,0.002855301,-0.004795074,0,
00:09.3,-0.002901077,0.002872467,-0.004823685,0,
00:09.3,-0.002889633,0.002901077,-0.004789352,0,
00:09.3,-0.002895355,0.002872467,-0.004812241,0,
00:09.3,-0.002901077,0.002918243,-0.004852295,0,
00:09.3,-0.002901077,0.002923965,-0.004789352,0,
00:09.3,-0.002912521,0.002843857,-0.004800797,0,
00:09.3,-0.002918243,0.002832413,-0.004777908,0,
00:09.3,-0.002918243,0.002843857,-0.00475502,0,
00:09.3,-0.002906799,0.002855301,-0.00478363,0,
00:09.3,-0.002929688,0.002855301,-0.004823685,0,
00:09.3,-0.002923965,0.002866745,-0.004760742,0,
00:09.3,-0.002912521,0.002878189,-0.00478363,0,
00:09.3,-0.002912521,0.002889633,-0.004840851,0,
00:09.3,-0.002901077,0.002912521,-0.004846573,0,
00:09.3,-0.002901077,0.002918243,-0.004743576,0,
00:09.3,-0.002918243,0.002861023,-0.004760742,0,
00:09.3,-0.002923965,0.002849579,-0.004777908,0,
00:09.3,-0.002929688,0.002849579,-0.00478363,0,
00:09.4,-0.002901077,0.002906799,-0.004806519,0,
00:09.4,-0.002912521,0.002878189,-0.004800797,0,
00:09.4,-0.002941132,0.002826691,-0.004777908,0,
00:09.4,-0.002941132,0.002849579,-0.004766464,0,
00:09.4,-0.002929688,0.002878189,-0.004800797,0,
00:09.4,-0.002923965,0.002878189,-0.004829407,0,
00:09.4,-0.002906799,0.002878189,-0.004858017,0,
00:09.4,-0.002929688,0.002878189,-0.00472641,0,
00:09.4,-0.002929688,0.002855301,-0.004789352,0,
00:09.4,-0.002929688,0.002866745,-0.004812241,0,
00:09.4,-0.002918243,0.002889633,-0.004777908,0,
00:09.4,-0.002918243,0.002895355,-0.004772186,0,
00:09.4,-0.00293541,0.002866745,-0.004812241,0,
00:09.4,-0.00293541,0.002866745,-0.004800797,0,
00:09.4,-0.002906799,0.002889633,-0.004835129,0,
00:09.4,-0.002941132,0.002889633,-0.004772186,0,
00:09.4,-0.002923965,0.002929688,-0.004806519,0,
00:09.4,-0.002941132,0.002895355,-0.004720688,0,
00:09.4,-0.002929688,0.002889633,-0.004800797,0,
00:09.4,-0.002918243,0.002849579,-0.004812241,0,
00:09.4,-0.002923965,0.002872467,-0.00475502,0,
00:09.4,-0.002918243,0.002895355,-0.00478363,0,
00:09.4,-0.002941132,0.002861023,-0.00478363,0,
00:09.4,-0.002952576,0.002861023,-0.004777908,0,
00:09.4,-0.002929688,0.002889633,-0.004800797,0,
00:09.5,-0.002929688,0.002906799,-0.004766464,0,
00:09.5,-0.002923965,0.002895355,-0.004806519,0,
00:09.5,-0.002923965,0.002883911,-0.004766464,0,
00:09.5,-0.002946854,0.002889633,-0.004806519,0,
00:09.5,-0.00293541,0.002895355,-0.004795074,0,
00:09.5,-0.00293541,0.002883911,-0.004800797,0,
00:09.5,-0.002929688,0.002889633,-0.004760742,0,
00:09.5,-0.002941132,0.002895355,-0.004777908,0,
00:09.5,-0.002958298,0.002889633,-0.004795074,0,
00:09.5,-0.002929688,0.002883911,-0.004795074,0,
00:09.5,-0.002929688,0.002923965,-0.004840851,0,
00:09.5,-0.002946854,0.002912521,-0.00475502,0,
00:09.5,-0.002946854,0.002901077,-0.00475502,0,
00:09.5,-0.002946854,0.002906799,-0.00478363,0,
00:09.5,-0.00293541,0.002861023,-0.004766464,0,
00:09.5,-0.00293541,0.002895355,-0.004777908,0,
00:09.5,-0.00293541,0.002895355,-0.004772186,0,
00:09.5,-0.002946854,0.002878189,-0.004766464,0,
00:09.5,-0.00296402,0.002855301,-0.004766464,0,
00:09.5,-0.002958298,0.002895355,-0.004772186,0,
00:09.5,-0.002929688,0.002912521,-0.004789352,0,
00:09.5,-0.00293541,0.00293541,-0.004817963,0,
00:09.5,-0.002946854,0.002889633,-0.004886627,0,
00:09.5,-0.002946854,0.002906799,-0.004823685,0,
00:09.5,-0.002969742,0.002906799,-0.004680634,0,
00:09.6,-0.002958298,0.002861023,-0.00472641,0,
00:09.6,-0.00293541,0.002918243,-0.00475502,0,
00:09.6,-0.00293541,0.002923965,-0.004812241,0,
00:09.6,-0.002958298,0.002918243,-0.00478363,0,
00:09.6,-0.00296402,0.002912521,-0.004800797,0,
00:09.6,-0.002969742,0.002901077,-0.004743576,0,
00:09.6,-0.002952576,0.002883911,-0.004749298,0,
00:09.6,-0.00296402,0.002929688,-0.004795074,0,
00:09.6,-0.00296402,0.002918243,-0.004766464,0,
00:09.6,-0.002941132,0.002889633,-0.004772186,0,
00:09.6,-0.002918243,0.00293541,-0.004795074,0,
00:09.6,-0.002952576,0.002895355,-0.004749298,0,
00:09.6,-0.002969742,0.002889633,-0.00475502,0,
00:09.6,-0.00296402,0.00293541,-0.004806519,0,
00:09.6,-0.002958298,0.002906799,-0.00478363,0,
00:09.6,-0.002946854,0.002872467,-0.004789352,0,
00:09.6,-0.002958298,0.002918243,-0.004749298,0,
00:09.6,-0.002952576,0.00293541,-0.004812241,0,
00:09.6,-0.002929688,0.002969742,-0.004760742,0,
00:09.6,-0.002975464,0.002912521,-0.004800797,0,
00:09.6,-0.002986908,0.002878189,-0.004749298,0,
00:09.6,-0.002981186,0.002895355,-0.004749298,0,
00:09.6,-0.002969742,0.002901077,-0.00475502,0,
00:09.6,-0.002975464,0.002929688,-0.004777908,0,
00:09.6,-0.002969742,0.002941132,-0.004743576,0,
00:09.7,-0.002975464,0.002912521,-0.004760742,0,
00:09.7,-0.002952576,0.002923965,-0.004777908,0,
00:09.7,-0.002946854,0.002958298,-0.00475502,0,
00:09.7,-0.002941132,0.002941132,-0.004795074,0,
00:09.7,-0.00296402,0.00293541,-0.004795074,0,
00:09.7,-0.002969742,0.002941132,-0.004766464,0,
00:09.7,-0.002975464,0.00293541,-0.004795074,0,
00:09.7,-0.00299263,0.002906799,-0.004749298,0,
00:09.7,-0.002981186,0.00293541,-0.004777908,0,
00:09.7,-0.002969742,0.002958298,-0.004812241,0,
00:09.7,-0.002952576,0.00293541,-0.004823685,0,
00:09.7,-0.002986908,0.002895355,-0.004714966,0,
00:09.7,-0.002981186,0.002946854,-0.00472641,0,
00:09.7,-0.002981186,0.00293541,-0.004823685,0,
00:09.7,-0.002975464,0.00293541,-0.004766464,0,
00:09.7,-0.002952576,0.002906799,-0.0046978,0,
00:09.7,-0.002923965,0.002969742,-0.00475502,0,
00:09.7,-0.002941132,0.002975464,-0.004743576,0,
00:09.7,-0.003015518,0.002929688,-0.004777908,0,
00:09.7,-0.003004074,0.002901077,-0.00478363,0,
00:09.7,-0.002969742,0.002958298,-0.004829407,0,
00:09.7,-0.002986908,0.002946854,-0.004749298,0,
00:09.7,-0.00299263,0.002998352,-0.004806519,0,
00:09.7,-0.00299263,0.002952576,-0.00475502,0,
00:09.7,-0.002998352,0.002958298,-0.0046978,0,
00:09.8,-0.002986908,0.002929688,-0.004743576,0,
00:09.8,-0.002986908,0.002946854,-0.004766464,0,
00:09.8,-0.002986908,0.002958298,-0.004800797,0,
00:09.8,-0.00299263,0.00293541,-0.004760742,0,
00:09.8,-0.002986908,0.002918243,-0.00475502,0,
00:09.8,-0.00296402,0.002946854,-0.004772186,0,
00:09.8,-0.00296402,0.002958298,-0.004772186,0,
00:09.8,-0.002986908,0.003015518,-0.004760742,0,
00:09.8,-0.002969742,0.00299263,-0.004772186,0,
00:09.8,-0.002998352,0.002906799,-0.004766464,0,
00:09.8,-0.003009796,0.002918243,-0.00475502,0,
00:09.8,-0.00299263,0.002941132,-0.004766464,0,
00:09.8,-0.002969742,0.002958298,-0.004789352,0,
00:09.8,-0.002975464,0.002998352,-0.004812241,0,
00:09.8,-0.003009796,0.002941132,-0.004800797,0,
00:09.8,-0.003015518,0.002941132,-0.004743576,0,
00:09.8,-0.002986908,0.002986908,-0.004749298,0,
00:09.8,-0.00299263,0.002952576,-0.004766464,0,
00:09.8,-0.003004074,0.00296402,-0.004737854,0,
00:09.8,-0.002998352,0.002969742,-0.004772186,0,
00:09.8,-0.002986908,0.002975464,-0.004829407,0,
00:09.8,-0.002975464,0.002986908,-0.004760742,0,
00:09.8,-0.002998352,0.00296402,-0.004703522,0,
