Elapsed_Time,EMG1,EMG2,EMG3,BioRadio Event,Unnamed: 5
00:00:00,0.00349617,-0.005722046,0.011066437,0,
00:00.0,0.003490448,-0.00573349,0.011066437,0,
00:00.0,0.003484726,-0.005739212,0.011066437,0,
00:00.0,0.003490448,-0.005739212,0.011072159,0,
00:00.0,0.00349617,-0.005750656,0.011066437,0,
00:00.0,0.00349617,-0.00573349,0.011066437,0,
00:00.0,0.003501892,-0.005693436,0.011060715,0,
00:00.0,0.003513336,-0.005647659,0.011060715,0,
00:00.0,0.003507614,-0.005670547,0.011060715,0,
00:00.0,0.003501892,-0.005699158,0.011066437,0,
00:00.0,0.00349617,-0.005727768,0.011060715,0,
00:00.0,0.003490448,-0.005744934,0.011066437,0,
00:00.0,0.003484726,-0.005739212,0.011066437,0,
00:00.1,0.003484726,-0.005744934,0.011066437,0,
00:00.1,0.003479004,-0.0057621,0.011072159,0,
00:00.1,0.003479004,-0.005756378,0.011072159,0,
00:00.1,0.003479004,-0.005739212,0.011072159,0,
00:00.1,0.003490448,-0.005710602,0.011072159,0,
00:00.1,0.003501892,-0.005681992,0.011072159,0,
00:00.1,0.003501892,-0.005670547,0.011077881,0,
00:00.1,0.00349617,-0.005699158,0.011077881,0,
00:00.1,0.003490448,-0.005722046,0.011072159,0,
00:00.1,0.003484726,-0.005744934,0.011072159,0,
00:00.1,0.003473282,-0.005756378,0.011089325,0,
00:00.1,0.003473282,-0.005750656,0.011095047,0,
00:00.1,0.003473282,-0.00573349,0.011089325,0,
00:00.1,0.003479004,-0.005744934,0.011089325,0,
00:00.1,0.00346756,-0.005773544,0.011089325,0,
00:00.1,0.003473282,-0.005750656,0.011089325,0,
00:00.1,0.003479004,-0.005716324,0.011083603,0,
00:00.1,0.003490448,-0.00570488,0.011083603,0,
00:00.1,0.003484726,-0.005716324,0.011083603,0,
00:00.1,0.003484726,-0.00573349,0.011083603,0,
00:00.1,0.003479004,-0.005727768,0.011083603,0,
00:00.1,0.003479004,-0.005722046,0.011083603,0,
00:00.1,0.003473282,-0.005756378,0.011089325,0,
00:00.1,0.00346756,-0.005784988,0.011095047,0,
00:00.1,0.00346756,-0.00573349,0.011095047,0,
00:00.2,0.00346756,-0.005727768,0.011095047,0,
00:00.2,0.003461838,-0.005750656,0.011089325,0,
00:00.2,0.003456116,-0.005767822,0.011089325,0,
00:00.2,0.003450394,-0.005779266,0.011095047,0,
00:00.2,0.003461838,-0.005750656,0.011095047,0,
00:00.2,0.003473282,-0.005710602,0.011095047,0,
00:00.2,0.003479004,-0.005710602,0.011095047,0,
00:00.2,0.003473282,-0.005727768,0.011095047,0,
00:00.2,0.00346756,-0.0057621,0.011095047,0,
00:00.2,0.00346756,-0.005773544,0.011089325,0,
00:00.2,0.003461838,-0.005756378,0.011089325,0,
00:00.2,0.003456116,-0.005767822,0.011106491,0,
00:00.2,0.003450394,-0.005773544,0.011112213,0,
00:00.2,0.003456116,-0.00573349,0.011112213,0,
00:00.2,0.003461838,-0.005727768,0.011106491,0,
00:00.2,0.003456116,-0.005739212,0.011106491,0,
00:00.2,0.003450394,-0.005756378,0.011100769,0,
00:00.2,0.003444672,-0.005802155,0.011100769,0,
00:00.2,0.003444672,-0.005813599,0.011100769,0,
00:00.2,0.00343895,-0.005779266,0.011112213,0,
00:00.2,0.00343895,-0.005750656,0.011123657,0,
00:00.2,0.00343895,-0.005756378,0.011112213,0,
00:00.2,0.003433228,-0.005773544,0.011112213,0,
00:00.2,0.003433228,-0.00579071,0.011106491,0,
00:00.2,0.003427505,-0.005802155,0.011106491,0,
00:00.3,0.003433228,-0.005756378,0.011106491,0,
00:00.3,0.003433228,-0.005756378,0.011106491,0,
00:00.3,0.003433228,-0.005767822,0.011106491,0,
00:00.3,0.003433228,-0.005779266,0.011106491,0,
00:00.3,0.003427505,-0.005796432,0.011106491,0,
00:00.3,0.003427505,-0.005796432,0.011100769,0,
00:00.3,0.003421783,-0.005796432,0.011100769,0,
00:00.3,0.003410339,-0.005825043,0.011106491,0,
00:00.3,0.003410339,-0.005825043,0.011106491,0,
00:00.3,0.003421783,-0.005802155,0.011100769,0,
00:00.3,0.003427505,-0.00579071,0.011100769,0,
00:00.3,0.003427505,-0.005784988,0.011100769,0,
00:00.3,0.003427505,-0.005773544,0.011100769,0,
00:00.3,0.003416061,-0.005825043,0.011100769,0,
00:00.3,0.003416061,-0.005813599,0.011095047,0,
00:00.3,0.003416061,-0.005784988,0.011100769,0,
00:00.3,0.003416061,-0.005802155,0.011112213,0,
00:00.3,0.003404617,-0.005842209,0.011112213,0,
00:00.3,0.003393173,-0.005882263,0.011112213,0,
00:00.3,0.003398895,-0.005847931,0.011106491,0,
00:00.3,0.003404617,-0.005796432,0.011100769,0,
00:00.3,0.003416061,-0.005756378,0.011100769,0,
00:00.3,0.003416061,-0.005773544,0.011106491,0,
00:00.3,0.003410339,-0.005796432,0.011100769,0,
00:00.3,0.003404617,-0.005819321,0.011095047,0,
00:00.4,0.003398895,-0.005836487,0.011106491,0,
00:00.4,0.003393173,-0.005859375,0.011112213,0,
00:00.4,0.003381729,-0.005922318,0.011106491,0,
00:00.4,0.003381729,-0.005905151,0.011100769,0,
00:00.4,0.003393173,-0.005825043,0.011095047,0,
00:00.4,0.003410339,-0.005784988,0.011095047,0,
00:00.4,0.003398895,-0.005819321,0.011095047,0,
00:00.4,0.003393173,-0.005842209,0.011095047,0,
00:00.4,0.003393173,-0.005836487,0.011095047,0,
00:00.4,0.003393173,-0.005847931,0.011083603,0,
00:00.4,0.003387451,-0.005870819,0.011083603,0,
00:00.4,0.003376007,-0.005870819,0.011100769,0,
00:00.4,0.003381729,-0.005865097,0.011095047,0,
00:00.4,0.003376007,-0.005882263,0.011095047,0,
00:00.4,0.003376007,-0.005899429,0.011089325,0,
00:00.4,0.003381729,-0.005865097,0.011089325,0,
00:00.4,0.003376007,-0.005830765,0.011089325,0,
00:00.4,0.003370285,-0.005870819,0.011095047,0,
00:00.4,0.003364563,-0.005910873,0.011095047,0,
00:00.4,0.003364563,-0.005905151,0.011089325,0,
00:00.4,0.003376007,-0.005882263,0.011089325,0,
00:00.4,0.003376007,-0.005887985,0.011089325,0,
00:00.4,0.003370285,-0.005887985,0.011095047,0,
00:00.4,0.003370285,-0.005893707,0.011095047,0,
00:00.4,0.003364563,-0.005910873,0.011089325,0,
00:00.5,0.003353119,-0.005939484,0.011083603,0,
00:00.5,0.003341675,-0.00595665,0.011083603,0,
00:00.5,0.003353119,-0.005910873,0.011077881,0,
00:00.5,0.003364563,-0.005876541,0.011072159,0,
00:00.5,0.003364563,-0.005887985,0.011066437,0,
00:00.5,0.003358841,-0.005922318,0.011066437,0,
00:00.5,0.003347397,-0.005939484,0.011066437,0,
00:00.5,0.003353119,-0.005910873,0.011072159,0,
00:00.5,0.003358841,-0.005905151,0.011066437,0,
00:00.5,0.003353119,-0.00592804,0.011060715,0,
00:00.5,0.003341675,-0.005962372,0.011066437,0,
00:00.5,0.003335953,-0.005990982,0.011066437,0,
00:00.5,0.003341675,-0.005973816,0.011066437,0,
00:00.5,0.003347397,-0.005933762,0.011054993,0,
00:00.5,0.003353119,-0.005916595,0.011054993,0,
00:00.5,0.003358841,-0.005910873,0.011054993,0,
00:00.5,0.003347397,-0.00592804,0.011049271,0,
00:00.5,0.003341675,-0.005950928,0.011049271,0,
00:00.5,0.003330231,-0.006019592,0.011054993,0,
00:00.5,0.003324509,-0.00604248,0.011060715,0,
00:00.5,0.003330231,-0.00598526,0.011054993,0,
00:00.5,0.003347397,-0.005922318,0.011049271,0,
00:00.5,0.003353119,-0.00592804,0.011037827,0,
00:00.5,0.003341675,-0.005962372,0.011037827,0,
00:00.5,0.003335953,-0.005973816,0.011037827,0,
00:00.6,0.003330231,-0.005996704,0.011032104,0,
00:00.6,0.003324509,-0.006019592,0.011037827,0,
00:00.6,0.003324509,-0.006036758,0.011032104,0,
00:00.6,0.003318787,-0.006082535,0.011032104,0,
00:00.6,0.003318787,-0.006048203,0.011032104,0,
00:00.6,0.003335953,-0.005962372,0.011026382,0,
00:00.6,0.003347397,-0.005950928,0.01102066,0,
00:00.6,0.003341675,-0.00598526,0.01102066,0,
00:00.6,0.003335953,-0.00601387,0.01102066,0,
00:00.6,0.003330231,-0.006036758,0.011009216,0,
00:00.6,0.003318787,-0.006065369,0.011014938,0,
00:00.6,0.003307343,-0.006071091,0.011014938,0,
00:00.6,0.003324509,-0.006025314,0.011014938,0,
00:00.6,0.003335953,-0.00601387,0.011014938,0,
00:00.6,0.003330231,-0.006031036,0.011014938,0,
00:00.6,0.003318787,-0.006036758,0.011009216,0,
00:00.6,0.003324509,-0.006036758,0.011009216,0,
00:00.6,0.003318787,-0.006065369,0.011003494,0,
00:00.6,0.003307343,-0.006111145,0.010997772,0,
00:00.6,0.003307343,-0.006099701,0.01099205,0,
00:00.6,0.003318787,-0.006048203,0.01099205,0,
00:00.6,0.003324509,-0.006025314,0.01099205,0,
00:00.6,0.003313065,-0.006071091,0.01099205,0,
00:00.6,0.003313065,-0.006088257,0.010980606,0,
00:00.6,0.003318787,-0.006082535,0.010969162,0,
00:00.7,0.003313065,-0.006071091,0.010974884,0,
00:00.7,0.003307343,-0.006099701,0.010980606,0,
00:00.7,0.003313065,-0.006099701,0.010974884,0,
00:00.7,0.003318787,-0.006076813,0.010974884,0,
00:00.7,0.003318787,-0.006076813,0.010969162,0,
00:00.7,0.003313065,-0.006105423,0.010957718,0,
00:00.7,0.003307343,-0.006111145,0.010957718,0,
00:00.7,0.003313065,-0.006082535,0.010946274,0,
00:00.7,0.003313065,-0.006093979,0.010946274,0,
00:00.7,0.003307343,-0.006111145,0.010946274,0,
00:00.7,0.00330162,-0.006151199,0.010940552,0,
00:00.7,0.003307343,-0.006128311,0.010940552,0,
00:00.7,0.003318787,-0.006082535,0.010940552,0,
00:00.7,0.003313065,-0.006111145,0.01093483,0,
00:00.7,0.00330162,-0.006174088,0.010923386,0,
00:00.7,0.003295898,-0.00617981,0.010929108,0,
00:00.7,0.00330162,-0.006151199,0.010923386,0,
00:00.7,0.003307343,-0.006128311,0.010917664,0,
00:00.7,0.003295898,-0.006168365,0.010911942,0,
00:00.7,0.003295898,-0.006162643,0.010911942,0,
00:00.7,0.003313065,-0.006128311,0.010906219,0,
00:00.7,0.003318787,-0.006128311,0.010900497,0,
00:00.7,0.003313065,-0.006134033,0.010894775,0,
00:00.7,0.003307343,-0.006151199,0.010889053,0,
00:00.7,0.00330162,-0.00617981,0.010883331,0,
00:00.8,0.00330162,-0.00617981,0.010883331,0,
00:00.8,0.00330162,-0.006191254,0.010883331,0,
00:00.8,0.003295898,-0.00620842,0.010883331,0,
00:00.8,0.003295898,-0.006191254,0.010877609,0,
00:00.8,0.003307343,-0.006156921,0.010871887,0,
00:00.8,0.003307343,-0.006162643,0.010854721,0,
00:00.8,0.00330162,-0.006185532,0.010854721,0,
00:00.8,0.003290176,-0.00620842,0.010866165,0,
00:00.8,0.003290176,-0.006202698,0.010854721,0,
00:00.8,0.003295898,-0.006185532,0.010848999,0,
00:00.8,0.003295898,-0.006196976,0.010843277,0,
00:00.8,0.003290176,-0.006202698,0.010837555,0,
00:00.8,0.003278732,-0.006248474,0.010837555,0,
00:00.8,0.00327301,-0.006288528,0.010831833,0,
00:00.8,0.003284454,-0.006219864,0.010831833,0,
00:00.8,0.003295898,-0.006162643,0.010826111,0,
00:00.8,0.00330162,-0.006145477,0.010820389,0,
00:00.8,0.003295898,-0.00617981,0.010814667,0,
00:00.8,0.003290176,-0.00620842,0.010808945,0,
00:00.8,0.003290176,-0.006225586,0.010803223,0,
00:00.8,0.003284454,-0.006242752,0.010797501,0,
00:00.8,0.003284454,-0.006259918,0.010791779,0,
00:00.8,0.003284454,-0.006248474,0.010780334,0,
00:00.8,0.003284454,-0.00623703,0.010780334,0,
00:00.8,0.003284454,-0.006242752,0.010780334,0,
00:00.9,0.003278732,-0.006271362,0.010774612,0,
00:00.9,0.003278732,-0.006259918,0.01076889,0,
00:00.9,0.003284454,-0.006219864,0.010763168,0,
00:00.9,0.003284454,-0.006231308,0.010757446,0,
00:00.9,0.003284454,-0.006254196,0.010751724,0,
00:00.9,0.003278732,-0.006328583,0.010746002,0,
00:00.9,0.003255844,-0.006391525,0.010751724,0,
00:00.9,0.003267288,-0.006311417,0.010751724,0,
00:00.9,0.00330162,-0.006185532,0.01074028,0,
00:00.9,0.003313065,-0.006162643,0.010728836,0,
00:00.9,0.00330162,-0.006225586,0.010723114,0,
00:00.9,0.003290176,-0.006259918,0.010717392,0,
00:00.9,0.003290176,-0.00626564,0.010717392,0,
00:00.9,0.003290176,-0.006271362,0.01071167,0,
00:00.9,0.003284454,-0.006277084,0.01071167,0,
00:00.9,0.003278732,-0.006317139,0.010694504,0,
00:00.9,0.00327301,-0.006311417,0.010694504,0,
00:00.9,0.003278732,-0.006259918,0.010700226,0,
00:00.9,0.003284454,-0.006254196,0.010694504,0,
00:00.9,0.003278732,-0.006277084,0.010688782,0,
00:00.9,0.003278732,-0.006305695,0.010677338,0,
00:00.9,0.003278732,-0.006299973,0.010671616,0,
00:00.9,0.003284454,-0.006277084,0.010665894,0,
00:00.9,0.003278732,-0.006305695,0.010660172,0,
00:00.9,0.003261566,-0.006380081,0.010660172,0,
00:01.0,0.00327301,-0.006328583,0.010654449,0,
00:01.0,0.003284454,-0.006259918,0.010648727,0,
00:01.0,0.003284454,-0.00626564,0.010643005,0,
00:01.0,0.003278732,-0.006317139,0.010643005,0,
00:01.0,0.00327301,-0.006340027,0.010631561,0,
00:01.0,0.00327301,-0.006328583,0.010625839,0,
00:01.0,0.00327301,-0.006305695,0.010631561,0,
00:01.0,0.003278732,-0.006288528,0.010625839,0,
00:01.0,0.003278732,-0.006288528,0.010620117,0,
00:01.0,0.00327301,-0.006305695,0.010614395,0,
00:01.0,0.003261566,-0.006374359,0.010614395,0,
00:01.0,0.003238678,-0.006448746,0.010608673,0,
00:00:01,0.003250122,-0.006357193,0.010602951,0,
00:01.0,0.003284454,-0.006271362,0.010591507,0,
00:01.0,0.003295898,-0.00626564,0.010580063,0,
00:01.0,0.003284454,-0.006288528,0.010580063,0,
00:01.0,0.003278732,-0.006317139,0.010574341,0,
00:01.0,0.00327301,-0.006311417,0.010574341,0,
00:01.0,0.003267288,-0.006322861,0.010568619,0,
00:01.0,0.003267288,-0.006328583,0.010562897,0,
00:01.0,0.00327301,-0.006334305,0.010562897,0,
00:01.0,0.003267288,-0.006368637,0.010562897,0,
00:01.0,0.003250122,-0.006448746,0.010557175,0,
00:01.0,0.003250122,-0.006425858,0.010551453,0,
00:01.0,0.003267288,-0.006328583,0.010540009,0,
00:01.1,0.003290176,-0.006259918,0.010534286,0,
00:01.1,0.003290176,-0.00626564,0.010528564,0,
00:01.1,0.003278732,-0.006311417,0.010522842,0,
00:01.1,0.003278732,-0.006334305,0.010511398,0,
00:01.1,0.00327301,-0.006340027,0.010511398,0,
00:01.1,0.003267288,-0.006345749,0.010528564,0,
00:01.1,0.003267288,-0.006351471,0.01051712,0,
00:01.1,0.003261566,-0.006380081,0.010511398,0,
00:01.1,0.003250122,-0.00643158,0.010505676,0,
00:01.1,0.0032444,-0.006443024,0.010499954,0,
00:01.1,0.003261566,-0.006345749,0.010499954,0,
00:01.1,0.00327301,-0.006288528,0.010494232,0,
00:01.1,0.003284454,-0.006271362,0.01048851,0,
00:01.1,0.003278732,-0.006305695,0.010482788,0,
00:01.1,0.00327301,-0.006340027,0.010482788,0,
00:01.1,0.003267288,-0.006351471,0.010482788,0,
00:01.1,0.003261566,-0.006368637,0.010482788,0,
00:01.1,0.003250122,-0.006408691,0.010477066,0,
00:01.1,0.0032444,-0.006443024,0.010471344,0,
00:01.1,0.003255844,-0.006362915,0.010465622,0,
00:01.1,0.00327301,-0.006299973,0.0104599,0,
00:01.1,0.00327301,-0.006328583,0.010454178,0,
00:01.1,0.003261566,-0.006357193,0.010454178,0,
00:01.1,0.003261566,-0.006340027,0.010448456,0,
00:01.1,0.003261566,-0.006357193,0.010442734,0,
00:01.2,0.003255844,-0.006380081,0.010437012,0,
00:01.2,0.003250122,-0.006391525,0.01043129,0,
00:01.2,0.0032444,-0.006408691,0.010437012,0,
00:01.2,0.003250122,-0.006362915,0.010437012,0,
00:01.2,0.003255844,-0.006317139,0.01043129,0,
00:01.2,0.003261566,-0.006340027,0.010425568,0,
00:01.2,0.003255844,-0.006362915,0.010419846,0,
00:01.2,0.003261566,-0.006345749,0.010414124,0,
00:01.2,0.003261566,-0.006351471,0.010408401,0,
00:01.2,0.003250122,-0.006391525,0.010414124,0,
00:01.2,0.0032444,-0.006391525,0.010408401,0,
00:01.2,0.003255844,-0.006357193,0.010408401,0,
00:01.2,0.003261566,-0.006362915,0.010402679,0,
00:01.2,0.003250122,-0.006385803,0.010408401,0,
00:01.2,0.003250122,-0.006385803,0.010402679,0,
00:01.2,0.003250122,-0.006374359,0.010396957,0,
00:01.2,0.003255844,-0.006362915,0.010396957,0,
00:01.2,0.003255844,-0.006362915,0.010391235,0,
00:01.2,0.003255844,-0.006368637,0.010385513,0,
00:01.2,0.003250122,-0.006368637,0.010385513,0,
00:01.2,0.003250122,-0.006391525,0.010385513,0,
00:01.2,0.0032444,-0.006420135,0.010379791,0,
00:01.2,0.0032444,-0.006391525,0.010379791,0,
00:01.2,0.003250122,-0.006357193,0.010374069,0,
00:01.2,0.003250122,-0.006351471,0.010368347,0,
00:01.3,0.003250122,-0.006351471,0.010362625,0,
00:01.3,0.003250122,-0.006357193,0.010356903,0,
00:01.3,0.003238678,-0.006397247,0.010356903,0,
00:01.3,0.0032444,-0.006374359,0.010351181,0,
00:01.3,0.0032444,-0.006328583,0.010351181,0,
00:01.3,0.0032444,-0.006351471,0.010334015,0,
00:01.3,0.0032444,-0.006368637,0.010334015,0,
00:01.3,0.0032444,-0.006368637,0.010339737,0,
00:01.3,0.0032444,-0.006362915,0.010334015,0,
00:01.3,0.003238678,-0.006402969,0.010334015,0,
00:01.3,0.003238678,-0.006408691,0.010339737,0,
00:01.3,0.0032444,-0.006362915,0.010334015,0,
00:01.3,0.003250122,-0.006357193,0.010328293,0,
00:01.3,0.0032444,-0.006368637,0.010328293,0,
00:01.3,0.0032444,-0.006374359,0.010322571,0,
00:01.3,0.0032444,-0.006368637,0.010316849,0,
00:01.3,0.0032444,-0.006380081,0.010322571,0,
00:01.3,0.003232956,-0.006437302,0.010316849,0,
00:01.3,0.003227234,-0.006471634,0.010316849,0,
00:01.3,0.003232956,-0.006385803,0.010311127,0,
00:01.3,0.003250122,-0.006317139,0.010299683,0,
00:01.3,0.003255844,-0.006328583,0.010293961,0,
00:01.3,0.0032444,-0.006362915,0.010311127,0,
00:01.3,0.003238678,-0.006385803,0.010316849,0,
00:01.3,0.003238678,-0.006391525,0.010305405,0,
00:01.4,0.0032444,-0.006368637,0.010299683,0,
00:01.4,0.0032444,-0.006374359,0.010293961,0,
00:01.4,0.003232956,-0.006408691,0.010293961,0,
00:01.4,0.003232956,-0.006391525,0.010299683,0,
00:01.4,0.0032444,-0.006351471,0.010293961,0,
00:01.4,0.003238678,-0.006368637,0.010293961,0,
00:01.4,0.003232956,-0.006385803,0.010288239,0,
00:01.4,0.003232956,-0.006368637,0.010282516,0,
00:01.4,0.003232956,-0.006385803,0.010282516,0,
00:01.4,0.003232956,-0.006380081,0.010282516,0,
00:01.4,0.003238678,-0.006380081,0.010276794,0,
00:01.4,0.003227234,-0.00643158,0.010282516,0,
00:01.4,0.003221512,-0.006437302,0.010288239,0,
00:01.4,0.003232956,-0.006368637,0.010282516,0,
00:01.4,0.0032444,-0.006328583,0.010276794,0,
00:01.4,0.003238678,-0.006351471,0.010276794,0,
00:01.4,0.003232956,-0.006380081,0.01026535,0,
00:01.4,0.003232956,-0.006368637,0.010259628,0,
00:01.4,0.003232956,-0.006368637,0.01026535,0,
00:01.4,0.003232956,-0.006380081,0.010271072,0,
00:01.4,0.003227234,-0.006402969,0.01026535,0,
00:01.4,0.00321579,-0.006454468,0.01026535,0,
00:01.4,0.003221512,-0.006420135,0.010259628,0,
00:01.4,0.003232956,-0.006351471,0.01026535,0,
00:01.4,0.003238678,-0.006345749,0.010259628,0,
00:01.5,0.003238678,-0.006340027,0.010253906,0,
00:01.5,0.003238678,-0.006357193,0.010253906,0,
00:01.5,0.003232956,-0.006374359,0.010253906,0,
00:01.5,0.003232956,-0.006374359,0.010248184,0,
00:01.5,0.003232956,-0.006374359,0.010248184,0,
00:01.5,0.003227234,-0.006425858,0.010253906,0,
00:01.5,0.003204346,-0.00651741,0.010253906,0,
00:01.5,0.003204346,-0.006443024,0.010253906,0,
00:01.5,0.003232956,-0.006317139,0.010253906,0,
00:01.5,0.003250122,-0.006288528,0.010248184,0,
00:01.5,0.0032444,-0.006328583,0.010248184,0,
00:01.5,0.0032444,-0.006357193,0.010248184,0,
00:01.5,0.003238678,-0.006374359,0.010248184,0,
00:01.5,0.003232956,-0.006374359,0.010242462,0,
00:01.5,0.003232956,-0.006362915,0.010248184,0,
00:01.5,0.003232956,-0.006368637,0.010242462,0,
00:01.5,0.003221512,-0.006414413,0.01023674,0,
00:01.5,0.003210068,-0.006443024,0.010242462,0,
00:01.5,0.003221512,-0.006385803,0.01023674,0,
00:01.5,0.003238678,-0.006345749,0.010231018,0,
00:01.5,0.0032444,-0.006345749,0.010225296,0,
00:01.5,0.003232956,-0.006340027,0.010242462,0,
00:01.5,0.003232956,-0.006328583,0.010242462,0,
00:01.5,0.003227234,-0.006345749,0.01023674,0,
00:01.5,0.003227234,-0.006357193,0.010231018,0,
00:01.6,0.003227234,-0.006368637,0.01023674,0,
00:01.6,0.003227234,-0.006397247,0.01023674,0,
00:01.6,0.003221512,-0.006408691,0.01023674,0,
00:01.6,0.003221512,-0.006362915,0.01023674,0,
00:01.6,0.003227234,-0.006357193,0.01023674,0,
00:01.6,0.003227234,-0.006345749,0.010231018,0,
00:01.6,0.003221512,-0.006345749,0.010231018,0,
00:01.6,0.003227234,-0.006345749,0.010231018,0,
00:01.6,0.003227234,-0.006357193,0.010231018,0,
00:01.6,0.003227234,-0.006357193,0.010231018,0,
00:01.6,0.003227234,-0.006374359,0.010219574,0,
00:01.6,0.003210068,-0.006437302,0.010213852,0,
00:01.6,0.003198624,-0.006454468,0.010225296,0,
00:01.6,0.003210068,-0.006397247,0.010231018,0,
00:01.6,0.003221512,-0.006317139,0.01023674,0,
00:01.6,0.003232956,-0.00629425,0.010231018,0,
00:01.6,0.003238678,-0.006317139,0.010231018,0,
00:01.6,0.003232956,-0.006328583,0.010231018,0,
00:01.6,0.003227234,-0.006345749,0.010231018,0,
00:01.6,0.003221512,-0.006362915,0.010225296,0,
00:01.6,0.00321579,-0.006420135,0.010219574,0,
00:01.6,0.003210068,-0.00643158,0.010219574,0,
00:01.6,0.003221512,-0.006328583,0.010219574,0,
00:01.6,0.003221512,-0.006322861,0.010231018,0,
00:01.6,0.003227234,-0.006322861,0.010231018,0,
00:01.7,0.003232956,-0.006328583,0.010225296,0,
00:01.7,0.003232956,-0.006328583,0.010219574,0,
00:01.7,0.003232956,-0.006334305,0.010219574,0,
00:01.7,0.003227234,-0.006345749,0.010219574,0,
00:01.7,0.003227234,-0.006351471,0.010219574,0,
00:01.7,0.003221512,-0.006357193,0.010219574,0,
00:01.7,0.00321579,-0.006380081,0.010225296,0,
00:01.7,0.003210068,-0.006402969,0.010219574,0,
00:01.7,0.003204346,-0.006420135,0.010219574,0,
00:01.7,0.003198624,-0.006402969,0.010219574,0,
00:01.7,0.003210068,-0.006351471,0.010213852,0,
00:01.7,0.003221512,-0.006288528,0.010213852,0,
00:01.7,0.003221512,-0.006282806,0.010219574,0,
00:01.7,0.003221512,-0.006305695,0.010219574,0,
00:01.7,0.003221512,-0.006322861,0.010219574,0,
00:01.7,0.00321579,-0.006322861,0.010219574,0,
00:01.7,0.00321579,-0.006334305,0.010219574,0,
00:01.7,0.00321579,-0.006340027,0.010225296,0,
00:01.7,0.00321579,-0.006345749,0.010225296,0,
00:01.7,0.003210068,-0.006385803,0.010225296,0,
00:01.7,0.003204346,-0.006420135,0.010231018,0,
00:01.7,0.00321579,-0.006391525,0.010231018,0,
00:01.7,0.00321579,-0.006340027,0.010225296,0,
00:01.7,0.003221512,-0.006299973,0.01020813,0,
00:01.7,0.003221512,-0.006277084,0.01020813,0,
00:01.8,0.003221512,-0.006282806,0.010242462,0,
00:01.8,0.003221512,-0.006311417,0.01023674,0,
00:01.8,0.00321579,-0.006322861,0.010231018,0,
00:01.8,0.00321579,-0.006322861,0.010231018,0,
00:01.8,0.00321579,-0.006317139,0.010231018,0,
00:01.8,0.003210068,-0.006328583,0.010225296,0,
00:01.8,0.003192902,-0.006402969,0.010225296,0,
00:01.8,0.003164291,-0.006551743,0.010231018,0,
00:01.8,0.003181458,-0.006397247,0.01023674,0,
00:01.8,0.003232956,-0.00617981,0.010231018,0,
00:01.8,0.0032444,-0.006202698,0.010225296,0,
00:01.8,0.003227234,-0.006271362,0.010225296,0,
00:01.8,0.003221512,-0.006299973,0.010225296,0,
00:01.8,0.00321579,-0.006305695,0.010231018,0,
00:01.8,0.003210068,-0.006311417,0.01023674,0,
00:01.8,0.003210068,-0.006322861,0.01023674,0,
00:01.8,0.003204346,-0.006322861,0.010231018,0,
00:01.8,0.003204346,-0.006322861,0.010231018,0,
00:01.8,0.003210068,-0.006345749,0.010231018,0,
00:01.8,0.003204346,-0.006380081,0.010231018,0,
00:01.8,0.003204346,-0.006345749,0.01023674,0,
00:01.8,0.003210068,-0.006311417,0.010231018,0,
00:01.8,0.00321579,-0.006282806,0.010231018,0,
00:01.8,0.00321579,-0.006282806,0.010231018,0,
00:01.8,0.00321579,-0.00629425,0.010231018,0,
00:01.9,0.003210068,-0.006299973,0.010231018,0,
00:01.9,0.003210068,-0.006328583,0.010231018,0,
00:01.9,0.003192902,-0.006414413,0.010231018,0,
00:01.9,0.00318718,-0.006402969,0.010231018,0,
00:01.9,0.003210068,-0.006282806,0.01023674,0,
00:01.9,0.003227234,-0.006231308,0.010231018,0,
00:01.9,0.003221512,-0.006259918,0.01023674,0,
00:01.9,0.00321579,-0.006288528,0.01023674,0,
00:01.9,0.00321579,-0.00629425,0.01023674,0,
00:01.9,0.00321579,-0.006311417,0.01023674,0,
00:01.9,0.003210068,-0.006328583,0.010231018,0,
00:01.9,0.003204346,-0.006345749,0.010242462,0,
00:01.9,0.003210068,-0.006334305,0.01023674,0,
00:01.9,0.00321579,-0.006311417,0.010242462,0,
00:01.9,0.003210068,-0.006328583,0.010253906,0,
00:01.9,0.003204346,-0.006334305,0.010248184,0,
00:01.9,0.003210068,-0.006288528,0.010248184,0,
00:01.9,0.003221512,-0.00623703,0.010248184,0,
00:01.9,0.003221512,-0.006254196,0.010248184,0,
00:01.9,0.00321579,-0.006282806,0.010248184,0,
00:01.9,0.003210068,-0.00629425,0.010248184,0,
00:01.9,0.003204346,-0.006328583,0.010253906,0,
00:01.9,0.003204346,-0.006322861,0.010253906,0,
00:01.9,0.00321579,-0.006277084,0.010253906,0,
00:01.9,0.003221512,-0.00626564,0.010253906,0,
00:02.0,0.00321579,-0.00629425,0.010253906,0,
00:02.0,0.003204346,-0.006317139,0.010259628,0,
00:02.0,0.003204346,-0.006288528,0.010259628,0,
00:02.0,0.00321579,-0.006271362,0.010253906,0,
00:02.0,0.003210068,-0.006288528,0.010253906,0,
00:02.0,0.003210068,-0.00629425,0.010259628,0,
00:02.0,0.003210068,-0.00629425,0.010259628,0,
00:02.0,0.00321579,-0.006277084,0.010259628,0,
00:02.0,0.00321579,-0.006288528,0.010259628,0,
00:02.0,0.00321579,-0.006305695,0.010259628,0,
00:02.0,0.003210068,-0.006317139,0.010259628,0,
00:02.0,0.003210068,-0.006282806,0.01026535,0,
00:00:02,0.003221512,-0.006254196,0.010259628,0,
00:02.0,0.003227234,-0.006248474,0.010259628,0,
00:02.0,0.003227234,-0.006259918,0.01026535,0,
00:02.0,0.003221512,-0.006259918,0.01026535,0,
00:02.0,0.00321579,-0.006282806,0.01026535,0,
00:02.0,0.003210068,-0.006328583,0.01026535,0,
00:02.0,0.003204346,-0.006317139,0.01026535,0,
00:02.0,0.00321579,-0.006254196,0.01026535,0,
00:02.0,0.003221512,-0.006242752,0.01026535,0,
00:02.0,0.003221512,-0.006259918,0.01026535,0,
00:02.0,0.003221512,-0.006254196,0.01026535,0,
00:02.0,0.003221512,-0.006259918,0.010271072,0,
00:02.0,0.003221512,-0.006271362,0.01026535,0,
00:02.1,0.003221512,-0.006288528,0.010271072,0,
00:02.1,0.00321579,-0.006311417,0.010271072,0,
00:02.1,0.00321579,-0.006305695,0.010271072,0,
00:02.1,0.003221512,-0.006282806,0.010271072,0,
00:02.1,0.003227234,-0.00623703,0.010271072,0,
00:02.1,0.003227234,-0.006231308,0.010276794,0,
00:02.1,0.00321579,-0.006282806,0.010271072,0,
00:02.1,0.003210068,-0.006311417,0.010276794,0,
00:02.1,0.00321579,-0.006248474,0.010282516,0,
00:02.1,0.003227234,-0.006225586,0.010282516,0,
00:02.1,0.003227234,-0.006248474,0.010282516,0,
00:02.1,0.003221512,-0.006277084,0.010282516,0,
00:02.1,0.003221512,-0.00629425,0.010276794,0,
00:02.1,0.003221512,-0.006271362,0.010282516,0,
00:02.1,0.003227234,-0.006242752,0.010282516,0,
00:02.1,0.003232956,-0.006231308,0.010282516,0,
00:02.1,0.00321579,-0.006259918,0.010293961,0,
00:02.1,0.003221512,-0.006242752,0.010293961,0,
00:02.1,0.003221512,-0.006231308,0.010288239,0,
00:02.1,0.003221512,-0.00623703,0.010288239,0,
00:02.1,0.003221512,-0.00626564,0.010293961,0,
00:02.1,0.003210068,-0.006305695,0.010293961,0,
00:02.1,0.003204346,-0.00629425,0.010293961,0,
00:02.1,0.003221512,-0.006248474,0.010299683,0,
00:02.1,0.003238678,-0.006214142,0.010299683,0,
00:02.2,0.003232956,-0.00620842,0.010293961,0,
00:02.2,0.003227234,-0.006214142,0.010293961,0,
00:02.2,0.003227234,-0.006225586,0.010293961,0,
00:02.2,0.003227234,-0.006231308,0.010305405,0,
00:02.2,0.003227234,-0.006242752,0.010305405,0,
00:02.2,0.003227234,-0.006259918,0.010305405,0,
00:02.2,0.003221512,-0.006288528,0.010305405,0,
00:02.2,0.003221512,-0.006277084,0.010305405,0,
00:02.2,0.003227234,-0.006196976,0.010305405,0,
00:02.2,0.003238678,-0.006162643,0.010311127,0,
00:02.2,0.003232956,-0.00617981,0.010311127,0,
00:02.2,0.003227234,-0.006219864,0.010316849,0,
00:02.2,0.003221512,-0.006254196,0.010316849,0,
00:02.2,0.003227234,-0.006231308,0.010316849,0,
00:02.2,0.003227234,-0.00620842,0.010322571,0,
00:02.2,0.003227234,-0.006202698,0.010322571,0,
00:02.2,0.003227234,-0.006231308,0.010322571,0,
00:02.2,0.003210068,-0.00629425,0.010316849,0,
00:02.2,0.00321579,-0.006259918,0.010316849,0,
00:02.2,0.003238678,-0.006191254,0.010316849,0,
00:02.2,0.003250122,-0.006151199,0.010322571,0,
00:02.2,0.0032444,-0.006168365,0.010322571,0,
00:02.2,0.003232956,-0.006185532,0.010322571,0,
00:02.2,0.003227234,-0.00620842,0.010322571,0,
00:02.2,0.003221512,-0.006231308,0.010328293,0,
00:02.3,0.00321579,-0.006248474,0.010328293,0,
00:02.3,0.003227234,-0.006202698,0.010328293,0,
00:02.3,0.003232956,-0.006202698,0.010328293,0,
00:02.3,0.003227234,-0.00623703,0.010334015,0,
00:02.3,0.003232956,-0.00620842,0.010328293,0,
00:02.3,0.0032444,-0.006156921,0.010328293,0,
00:02.3,0.0032444,-0.006156921,0.010328293,0,
00:02.3,0.003238678,-0.00617981,0.010339737,0,
00:02.3,0.003232956,-0.00620842,0.010345459,0,
00:02.3,0.003232956,-0.006214142,0.010345459,0,
00:02.3,0.003227234,-0.006231308,0.010339737,0,
00:02.3,0.003221512,-0.00623703,0.010339737,0,
00:02.3,0.003227234,-0.006202698,0.010339737,0,
00:02.3,0.003238678,-0.00617981,0.010339737,0,
00:02.3,0.0032444,-0.006174088,0.010345459,0,
00:02.3,0.003238678,-0.006174088,0.010345459,0,
00:02.3,0.003232956,-0.006202698,0.010345459,0,
00:02.3,0.003238678,-0.006191254,0.010339737,0,
00:02.3,0.0032444,-0.006168365,0.010339737,0,
00:02.3,0.003238678,-0.006168365,0.010351181,0,
00:02.3,0.003227234,-0.006214142,0.010356903,0,
00:02.3,0.003221512,-0.006259918,0.010351181,0,
00:02.3,0.003221512,-0.006219864,0.010351181,0,
00:02.3,0.003232956,-0.006168365,0.010351181,0,
00:02.3,0.003232956,-0.006145477,0.010351181,0,
00:02.4,0.003238678,-0.006139755,0.010345459,0,
00:02.4,0.0032444,-0.006128311,0.010345459,0,
00:02.4,0.003238678,-0.006128311,0.010351181,0,
00:02.4,0.003232956,-0.006156921,0.010356903,0,
00:02.4,0.003232956,-0.006162643,0.010356903,0,
00:02.4,0.003232956,-0.006156921,0.010362625,0,
00:02.4,0.003232956,-0.006174088,0.010362625,0,
00:02.4,0.003238678,-0.006185532,0.010362625,0,
00:02.4,0.003238678,-0.006191254,0.010368347,0,
00:02.4,0.003227234,-0.00623703,0.010374069,0,
00:02.4,0.00321579,-0.006259918,0.010374069,0,
00:02.4,0.003227234,-0.006168365,0.010374069,0,
00:02.4,0.0032444,-0.006105423,0.010374069,0,
00:02.4,0.003250122,-0.006093979,0.010374069,0,
00:02.4,0.0032444,-0.006151199,0.010374069,0,
00:02.4,0.003238678,-0.006174088,0.010368347,0,
00:02.4,0.003238678,-0.006168365,0.010368347,0,
00:02.4,0.0032444,-0.006151199,0.010362625,0,
00:02.4,0.0032444,-0.006134033,0.010374069,0,
00:02.4,0.0032444,-0.006134033,0.010379791,0,
00:02.4,0.0032444,-0.006145477,0.010379791,0,
00:02.4,0.0032444,-0.006156921,0.010379791,0,
00:02.4,0.003232956,-0.006191254,0.010385513,0,
00:02.4,0.003227234,-0.006219864,0.010385513,0,
00:02.4,0.003238678,-0.00617981,0.010385513,0,
00:02.5,0.003250122,-0.006128311,0.010391235,0,
00:02.5,0.003255844,-0.006134033,0.010391235,0,
00:02.5,0.003250122,-0.006162643,0.010391235,0,
00:02.5,0.003250122,-0.006145477,0.010385513,0,
00:02.5,0.003261566,-0.006128311,0.010385513,0,
00:02.5,0.003261566,-0.006134033,0.010385513,0,
00:02.5,0.003261566,-0.006116867,0.010391235,0,
00:02.5,0.003261566,-0.006099701,0.010396957,0,
00:02.5,0.003261566,-0.006116867,0.010396957,0,
00:02.5,0.003255844,-0.006134033,0.010408401,0,
00:02.5,0.003250122,-0.006168365,0.010408401,0,
00:02.5,0.003255844,-0.006151199,0.010402679,0,
00:02.5,0.003255844,-0.006145477,0.010402679,0,
00:02.5,0.003250122,-0.006168365,0.010402679,0,
00:02.5,0.0032444,-0.006151199,0.010402679,0,
00:02.5,0.003250122,-0.006111145,0.010402679,0,
00:02.5,0.003255844,-0.006111145,0.010402679,0,
00:02.5,0.003255844,-0.006111145,0.010408401,0,
00:02.5,0.003255844,-0.006116867,0.010402679,0,
00:02.5,0.003255844,-0.006128311,0.010408401,0,
00:02.5,0.003255844,-0.006139755,0.010408401,0,
00:02.5,0.003250122,-0.006151199,0.010414124,0,
00:02.5,0.003250122,-0.006168365,0.010414124,0,
00:02.5,0.0032444,-0.006202698,0.010414124,0,
00:02.5,0.0032444,-0.006185532,0.010419846,0,
00:02.6,0.003261566,-0.006071091,0.010402679,0,
00:02.6,0.003278732,-0.006036758,0.010402679,0,
00:02.6,0.003267288,-0.006088257,0.010437012,0,
00:02.6,0.003255844,-0.006105423,0.01043129,0,
00:02.6,0.003261566,-0.006111145,0.010425568,0,
00:02.6,0.003267288,-0.006099701,0.010425568,0,
00:02.6,0.003267288,-0.006099701,0.010425568,0,
00:02.6,0.003261566,-0.006116867,0.010425568,0,
00:02.6,0.003267288,-0.006105423,0.01043129,0,
00:02.6,0.003267288,-0.006099701,0.01043129,0,
00:02.6,0.003267288,-0.006088257,0.01043129,0,
00:02.6,0.00327301,-0.006088257,0.01043129,0,
00:02.6,0.00327301,-0.006099701,0.01043129,0,
00:02.6,0.003267288,-0.006116867,0.01043129,0,
00:02.6,0.003267288,-0.006122589,0.010442734,0,
00:02.6,0.003267288,-0.006111145,0.010442734,0,
00:02.6,0.00327301,-0.006088257,0.010437012,0,
00:02.6,0.003278732,-0.006071091,0.010437012,0,
00:02.6,0.003278732,-0.006076813,0.010437012,0,
00:02.6,0.00327301,-0.006093979,0.010442734,0,
00:02.6,0.003267288,-0.006105423,0.010448456,0,
00:02.6,0.003261566,-0.006093979,0.010442734,0,
00:02.6,0.003267288,-0.006076813,0.010442734,0,
00:02.6,0.003267288,-0.006093979,0.010442734,0,
00:02.6,0.003261566,-0.006122589,0.010442734,0,
00:02.7,0.003255844,-0.006162643,0.010448456,0,
00:02.7,0.003255844,-0.006139755,0.010448456,0,
00:02.7,0.00327301,-0.006053925,0.010448456,0,
00:02.7,0.003290176,-0.006025314,0.010448456,0,
00:02.7,0.003284454,-0.006053925,0.010448456,0,
00:02.7,0.00327301,-0.006059647,0.010454178,0,
00:02.7,0.00327301,-0.006071091,0.010454178,0,
00:02.7,0.00327301,-0.006082535,0.010454178,0,
00:02.7,0.00327301,-0.006076813,0.0104599,0,
00:02.7,0.003278732,-0.006048203,0.010454178,0,
00:02.7,0.003278732,-0.006048203,0.010454178,0,
00:02.7,0.003278732,-0.006059647,0.010471344,0,
00:02.7,0.003278732,-0.006071091,0.010471344,0,
00:02.7,0.003278732,-0.006082535,0.010465622,0,
00:02.7,0.00327301,-0.006088257,0.010465622,0,
00:02.7,0.003284454,-0.00604248,0.010465622,0,
00:02.7,0.003284454,-0.006048203,0.010471344,0,
00:02.7,0.003284454,-0.006071091,0.010471344,0,
00:02.7,0.003278732,-0.006082535,0.010471344,0,
00:02.7,0.003278732,-0.006082535,0.010465622,0,
00:02.7,0.003278732,-0.006082535,0.010465622,0,
00:02.7,0.003278732,-0.006053925,0.010477066,0,
00:02.7,0.003278732,-0.006059647,0.010482788,0,
00:02.7,0.00327301,-0.006076813,0.010477066,0,
00:02.7,0.003278732,-0.00604248,0.010471344,0,
00:02.8,0.003284454,-0.006008148,0.010471344,0,
00:02.8,0.003278732,-0.006053925,0.010477066,0,
00:02.8,0.00327301,-0.006099701,0.010477066,0,
00:02.8,0.00327301,-0.006105423,0.010482788,0,
00:02.8,0.003278732,-0.006076813,0.010482788,0,
00:02.8,0.003284454,-0.006048203,0.010482788,0,
00:02.8,0.003295898,-0.005996704,0.010482788,0,
00:02.8,0.003295898,-0.006002426,0.010494232,0,
00:02.8,0.003290176,-0.006031036,0.010499954,0,
00:02.8,0.003290176,-0.006059647,0.01048851,0,
00:02.8,0.003290176,-0.006065369,0.01048851,0,
00:02.8,0.003290176,-0.00604248,0.010494232,0,
00:02.8,0.003290176,-0.006025314,0.010494232,0,
00:02.8,0.003290176,-0.006048203,0.010494232,0,
00:02.8,0.003284454,-0.006059647,0.010494232,0,
00:02.8,0.003290176,-0.006048203,0.01048851,0,
00:02.8,0.003295898,-0.006053925,0.01048851,0,
00:02.8,0.00330162,-0.00604248,0.010494232,0,
00:02.8,0.003290176,-0.006065369,0.010499954,0,
00:02.8,0.003290176,-0.006088257,0.010505676,0,
00:02.8,0.003290176,-0.006088257,0.010505676,0,
00:02.8,0.00330162,-0.00604248,0.010511398,0,
00:02.8,0.003307343,-0.005990982,0.010505676,0,
00:02.8,0.003307343,-0.005979538,0.010505676,0,
00:02.8,0.00330162,-0.006002426,0.010505676,0,
00:02.9,0.003295898,-0.006025314,0.010511398,0,
00:02.9,0.003290176,-0.006071091,0.010511398,0,
00:02.9,0.003278732,-0.006076813,0.010511398,0,
00:02.9,0.003290176,-0.006019592,0.010511398,0,
00:02.9,0.00330162,-0.005996704,0.010511398,0,
00:02.9,0.003307343,-0.006002426,0.01051712,0,
00:02.9,0.003307343,-0.006002426,0.010511398,0,
00:02.9,0.003295898,-0.006008148,0.01051712,0,
00:02.9,0.00330162,-0.006008148,0.010528564,0,
00:02.9,0.003295898,-0.00601387,0.010528564,0,
00:02.9,0.003295898,-0.006025314,0.010528564,0,
00:02.9,0.003290176,-0.006076813,0.010528564,0,
00:02.9,0.003261566,-0.00620842,0.010528564,0,
00:02.9,0.003267288,-0.006128311,0.010528564,0,
00:02.9,0.003307343,-0.00592804,0.010528564,0,
00:02.9,0.003330231,-0.005882263,0.010522842,0,
00:02.9,0.003318787,-0.005939484,0.010522842,0,
00:02.9,0.003313065,-0.005990982,0.01051712,0,
00:02.9,0.003307343,-0.006019592,0.010528564,0,
00:02.9,0.003307343,-0.006019592,0.010540009,0,
00:02.9,0.003307343,-0.005990982,0.010545731,0,
00:02.9,0.003307343,-0.00598526,0.010545731,0,
00:02.9,0.00330162,-0.006002426,0.010545731,0,
00:02.9,0.003295898,-0.006025314,0.010540009,0,
00:02.9,0.00330162,-0.006031036,0.010540009,0,
00:03.0,0.003307343,-0.006008148,0.010540009,0,
00:03.0,0.003313065,-0.005979538,0.010534286,0,
00:03.0,0.003313065,-0.005973816,0.010534286,0,
00:03.0,0.003313065,-0.00598526,0.010540009,0,
00:03.0,0.003313065,-0.005990982,0.010540009,0,
00:03.0,0.003307343,-0.005990982,0.010545731,0,
00:03.0,0.003307343,-0.005996704,0.010545731,0,
00:03.0,0.00330162,-0.006031036,0.010551453,0,
00:03.0,0.003295898,-0.006071091,0.010551453,0,
00:03.0,0.003307343,-0.006048203,0.010551453,0,
00:03.0,0.003318787,-0.005979538,0.010545731,0,
00:03.0,0.003330231,-0.00595665,0.010551453,0,
00:00:03,0.003324509,-0.005979538,0.010551453,0,
00:03.0,0.003324509,-0.00598526,0.010551453,0,
00:03.0,0.003324509,-0.005968094,0.010545731,0,
00:03.0,0.003324509,-0.00598526,0.010557175,0,
00:03.0,0.003324509,-0.005979538,0.010557175,0,
00:03.0,0.003324509,-0.005979538,0.010562897,0,
00:03.0,0.003318787,-0.005979538,0.010562897,0,
00:03.0,0.003324509,-0.005979538,0.010568619,0,
00:03.0,0.003324509,-0.005996704,0.010562897,0,
00:03.0,0.003318787,-0.006008148,0.010562897,0,
00:03.0,0.003324509,-0.005979538,0.010562897,0,
00:03.0,0.003324509,-0.005968094,0.010562897,0,
00:03.0,0.003324509,-0.005950928,0.010568619,0,
00:03.1,0.003324509,-0.005962372,0.010568619,0,
00:03.1,0.003318787,-0.005990982,0.010568619,0,
00:03.1,0.003307343,-0.006036758,0.010568619,0,
00:03.1,0.003307343,-0.00604248,0.010568619,0,
00:03.1,0.003313065,-0.005990982,0.010568619,0,
00:03.1,0.003330231,-0.00592804,0.010562897,0,
00:03.1,0.003335953,-0.005916595,0.010557175,0,
00:03.1,0.003324509,-0.005962372,0.010568619,0,
00:03.1,0.003318787,-0.006002426,0.010568619,0,
00:03.1,0.003318787,-0.005968094,0.010568619,0,
00:03.1,0.003330231,-0.005939484,0.010568619,0,
00:03.1,0.003335953,-0.005945206,0.010568619,0,
00:03.1,0.003335953,-0.005950928,0.010562897,0,
00:03.1,0.003330231,-0.005973816,0.010568619,0,
00:03.1,0.003324509,-0.005996704,0.010574341,0,
00:03.1,0.003324509,-0.005979538,0.010580063,0,
00:03.1,0.003324509,-0.005968094,0.010580063,0,
00:03.1,0.003335953,-0.00595665,0.010580063,0,
00:03.1,0.003341675,-0.00595665,0.010568619,0,
00:03.1,0.003341675,-0.00595665,0.010568619,0,
00:03.1,0.003341675,-0.005939484,0.010574341,0,
00:03.1,0.003335953,-0.005945206,0.010585785,0,
00:03.1,0.003335953,-0.005968094,0.010585785,0,
00:03.1,0.003335953,-0.00598526,0.010585785,0,
00:03.1,0.003335953,-0.005962372,0.010580063,0,
00:03.2,0.003335953,-0.005939484,0.010585785,0,
00:03.2,0.003335953,-0.005962372,0.010591507,0,
00:03.2,0.003330231,-0.00598526,0.010591507,0,
00:03.2,0.003335953,-0.005973816,0.010585785,0,
00:03.2,0.003341675,-0.005922318,0.010580063,0,
00:03.2,0.003353119,-0.005905151,0.010580063,0,
00:03.2,0.003341675,-0.005945206,0.010580063,0,
00:03.2,0.003335953,-0.006008148,0.010585785,0,
00:03.2,0.003335953,-0.005979538,0.010591507,0,
00:03.2,0.003347397,-0.005922318,0.010591507,0,
00:03.2,0.003347397,-0.005905151,0.010591507,0,
00:03.2,0.003347397,-0.00592804,0.010591507,0,
00:03.2,0.003347397,-0.005939484,0.010597229,0,
00:03.2,0.003347397,-0.005939484,0.010597229,0,
00:03.2,0.003347397,-0.005950928,0.010597229,0,
00:03.2,0.003341675,-0.005973816,0.010597229,0,
00:03.2,0.003324509,-0.006002426,0.010597229,0,
00:03.2,0.003330231,-0.005973816,0.010591507,0,
00:03.2,0.003347397,-0.005922318,0.010591507,0,
00:03.2,0.003364563,-0.005882263,0.010602951,0,
00:03.2,0.003358841,-0.005905151,0.010602951,0,
00:03.2,0.003347397,-0.005939484,0.010602951,0,
00:03.2,0.003347397,-0.00592804,0.010608673,0,
00:03.2,0.003353119,-0.005910873,0.010608673,0,
00:03.2,0.003353119,-0.005945206,0.010608673,0,
00:03.3,0.003347397,-0.005973816,0.010608673,0,
00:03.3,0.003341675,-0.005945206,0.010608673,0,
00:03.3,0.003353119,-0.00592804,0.010608673,0,
00:03.3,0.003358841,-0.005945206,0.010597229,0,
00:03.3,0.003364563,-0.005910873,0.010597229,0,
00:03.3,0.003358841,-0.005922318,0.010608673,0,
00:03.3,0.003353119,-0.005933762,0.010620117,0,
00:03.3,0.003353119,-0.005910873,0.010625839,0,
00:03.3,0.003353119,-0.005922318,0.010620117,0,
00:03.3,0.003347397,-0.005945206,0.010620117,0,
00:03.3,0.003347397,-0.00595665,0.010625839,0,
00:03.3,0.003341675,-0.005962372,0.010625839,0,
00:03.3,0.003347397,-0.00595665,0.010620117,0,
00:03.3,0.003358841,-0.005893707,0.010620117,0,
00:03.3,0.003358841,-0.005882263,0.010620117,0,
00:03.3,0.003353119,-0.005916595,0.010620117,0,
00:03.3,0.003353119,-0.005933762,0.010620117,0,
00:03.3,0.003358841,-0.005905151,0.010614395,0,
00:03.3,0.003358841,-0.005922318,0.010620117,0,
00:03.3,0.003347397,-0.005968094,0.010625839,0,
00:03.3,0.003353119,-0.005950928,0.010620117,0,
00:03.3,0.003358841,-0.005922318,0.010620117,0,
00:03.3,0.003364563,-0.005905151,0.010620117,0,
00:03.3,0.003364563,-0.005893707,0.010620117,0,
00:03.3,0.003358841,-0.005899429,0.010620117,0,
00:03.4,0.003353119,-0.005922318,0.010625839,0,
00:03.4,0.003353119,-0.005939484,0.010625839,0,
00:03.4,0.003353119,-0.005922318,0.010625839,0,
00:03.4,0.003358841,-0.005922318,0.010625839,0,
00:03.4,0.003358841,-0.005945206,0.010625839,0,
00:03.4,0.003358841,-0.005916595,0.010625839,0,
00:03.4,0.003364563,-0.005887985,0.010614395,0,
00:03.4,0.003376007,-0.005870819,0.010614395,0,
00:03.4,0.003370285,-0.005887985,0.010637283,0,
00:03.4,0.003358841,-0.005916595,0.010648727,0,
00:03.4,0.003353119,-0.005945206,0.010643005,0,
00:03.4,0.003358841,-0.005939484,0.010643005,0,
00:03.4,0.003364563,-0.005910873,0.010643005,0,
00:03.4,0.003364563,-0.005882263,0.010637283,0,
00:03.4,0.003364563,-0.005887985,0.010637283,0,
00:03.4,0.003358841,-0.005910873,0.010643005,0,
00:03.4,0.003353119,-0.005939484,0.010643005,0,
00:03.4,0.003358841,-0.005962372,0.010643005,0,
00:03.4,0.003364563,-0.005922318,0.010643005,0,
00:03.4,0.003370285,-0.005870819,0.010643005,0,
00:03.4,0.003370285,-0.005910873,0.010643005,0,
00:03.4,0.003364563,-0.005933762,0.010648727,0,
00:03.4,0.003370285,-0.005882263,0.010648727,0,
00:03.4,0.003370285,-0.005882263,0.010648727,0,
00:03.4,0.003376007,-0.005893707,0.010648727,0,
00:03.5,0.003376007,-0.005887985,0.010654449,0,
00:03.5,0.003376007,-0.005876541,0.010654449,0,
00:03.5,0.003381729,-0.005870819,0.010654449,0,
00:03.5,0.003381729,-0.005887985,0.010654449,0,
00:03.5,0.003376007,-0.005910873,0.010654449,0,
00:03.5,0.003370285,-0.005910873,0.010654449,0,
00:03.5,0.003376007,-0.005893707,0.010648727,0,
00:03.5,0.003376007,-0.005865097,0.010654449,0,
00:03.5,0.003381729,-0.005865097,0.010660172,0,
00:03.5,0.003376007,-0.005882263,0.010671616,0,
00:03.5,0.003376007,-0.005893707,0.010671616,0,
00:03.5,0.003381729,-0.005882263,0.010671616,0,
00:03.5,0.003381729,-0.005893707,0.010671616,0,
00:03.5,0.003370285,-0.005933762,0.010671616,0,
00:03.5,0.003376007,-0.005916595,0.010671616,0,
00:03.5,0.003387451,-0.005870819,0.010671616,0,
00:03.5,0.003398895,-0.005847931,0.010665894,0,
00:03.5,0.003393173,-0.005876541,0.010671616,0,
00:03.5,0.003381729,-0.005939484,0.010677338,0,
00:03.5,0.003381729,-0.00592804,0.010677338,0,
00:03.5,0.003381729,-0.005876541,0.010677338,0,
00:03.5,0.003393173,-0.005847931,0.010671616,0,
00:03.5,0.003398895,-0.005853653,0.010665894,0,
00:03.5,0.003398895,-0.005859375,0.010660172,0,
00:03.5,0.003398895,-0.005842209,0.010671616,0,
00:03.6,0.003393173,-0.005870819,0.010688782,0,
00:03.6,0.003387451,-0.005893707,0.01068306,0,
00:03.6,0.003387451,-0.005876541,0.010671616,0,
00:03.6,0.003387451,-0.005899429,0.010677338,0,
00:03.6,0.003370285,-0.00592804,0.01068306,0,
00:03.6,0.003381729,-0.005882263,0.01068306,0,
00:03.6,0.003398895,-0.005847931,0.010677338,0,
00:03.6,0.003404617,-0.005853653,0.010677338,0,
00:03.6,0.003398895,-0.005870819,0.01068306,0,
00:03.6,0.003398895,-0.005876541,0.010688782,0,
00:03.6,0.003387451,-0.00592804,0.010688782,0,
00:03.6,0.003387451,-0.005893707,0.010694504,0,
00:03.6,0.003393173,-0.005842209,0.010694504,0,
00:03.6,0.003398895,-0.005847931,0.010694504,0,
00:03.6,0.003398895,-0.005859375,0.010694504,0,
00:03.6,0.003398895,-0.005842209,0.010694504,0,
00:03.6,0.003404617,-0.005853653,0.010694504,0,
00:03.6,0.003404617,-0.005859375,0.010688782,0,
00:03.6,0.003398895,-0.005859375,0.01068306,0,
00:03.6,0.003393173,-0.005893707,0.010700226,0,
00:03.6,0.003393173,-0.005882263,0.010700226,0,
00:03.6,0.003398895,-0.005859375,0.010700226,0,
00:03.6,0.003404617,-0.005847931,0.010700226,0,
00:03.6,0.003404617,-0.005847931,0.010694504,0,
00:03.6,0.003404617,-0.005859375,0.010694504,0,
00:03.7,0.003404617,-0.005853653,0.010700226,0,
00:03.7,0.003404617,-0.005882263,0.010700226,0,
00:03.7,0.003393173,-0.005922318,0.010700226,0,
00:03.7,0.003387451,-0.005933762,0.010700226,0,
00:03.7,0.003398895,-0.005882263,0.010694504,0,
00:03.7,0.003416061,-0.005802155,0.010688782,0,
00:03.7,0.003416061,-0.005813599,0.010694504,0,
00:03.7,0.003410339,-0.005859375,0.010705948,0,
00:03.7,0.003404617,-0.005887985,0.010705948,0,
00:03.7,0.003398895,-0.005882263,0.010705948,0,
00:03.7,0.003393173,-0.005882263,0.010705948,0,
00:03.7,0.003398895,-0.005882263,0.010705948,0,
00:03.7,0.003416061,-0.005802155,0.010700226,0,
00:03.7,0.003427505,-0.005784988,0.010700226,0,
00:03.7,0.003421783,-0.005830765,0.010700226,0,
00:03.7,0.003416061,-0.005847931,0.01071167,0,
00:03.7,0.003416061,-0.005853653,0.01071167,0,
00:03.7,0.003421783,-0.005847931,0.01071167,0,
00:03.7,0.003421783,-0.005853653,0.01071167,0,
00:03.7,0.003416061,-0.005870819,0.01071167,0,
00:03.7,0.003410339,-0.005893707,0.01071167,0,
00:03.7,0.003404617,-0.005916595,0.01071167,0,
00:03.7,0.003410339,-0.005882263,0.010705948,0,
00:03.7,0.003427505,-0.005807877,0.010694504,0,
00:03.7,0.003433228,-0.005779266,0.010705948,0,
00:03.8,0.003421783,-0.005802155,0.010723114,0,
00:03.8,0.003421783,-0.005825043,0.010723114,0,
00:03.8,0.003416061,-0.005859375,0.010723114,0,
00:03.8,0.003404617,-0.005887985,0.010717392,0,
00:03.8,0.003404617,-0.005876541,0.010717392,0,
00:03.8,0.003416061,-0.005825043,0.010717392,0,
00:03.8,0.003427505,-0.005784988,0.01071167,0,
00:03.8,0.003427505,-0.005807877,0.010705948,0,
00:03.8,0.003421783,-0.005830765,0.010705948,0,
00:03.8,0.003421783,-0.005842209,0.010705948,0,
00:03.8,0.003421783,-0.005830765,0.01071167,0,
00:03.8,0.003416061,-0.005853653,0.010717392,0,
00:03.8,0.003416061,-0.005876541,0.010717392,0,
00:03.8,0.003421783,-0.005853653,0.010717392,0,
00:03.8,0.003421783,-0.005825043,0.010723114,0,
00:03.8,0.003421783,-0.005819321,0.010723114,0,
00:03.8,0.003427505,-0.005830765,0.010723114,0,
00:03.8,0.003427505,-0.005847931,0.010728836,0,
00:03.8,0.003416061,-0.005865097,0.010728836,0,
00:03.8,0.003410339,-0.005899429,0.010728836,0,
00:03.8,0.003410339,-0.005905151,0.010723114,0,
00:03.8,0.003421783,-0.005836487,0.010723114,0,
00:03.8,0.00343895,-0.005756378,0.010723114,0,
00:03.8,0.00343895,-0.005767822,0.010728836,0,
00:03.8,0.003433228,-0.005813599,0.010728836,0,
00:03.9,0.003427505,-0.005865097,0.010734558,0,
00:03.9,0.003416061,-0.005882263,0.010734558,0,
00:03.9,0.003416061,-0.005842209,0.010728836,0,
00:03.9,0.003427505,-0.00579071,0.01074028,0,
00:03.9,0.00343895,-0.005779266,0.01074028,0,
00:03.9,0.003433228,-0.005802155,0.010734558,0,
00:03.9,0.003427505,-0.005819321,0.010728836,0,
00:03.9,0.003427505,-0.005819321,0.010734558,0,
00:03.9,0.003427505,-0.005836487,0.01074028,0,
00:03.9,0.003427505,-0.005853653,0.01074028,0,
00:03.9,0.003416061,-0.005899429,0.01074028,0,
00:03.9,0.003410339,-0.005945206,0.01074028,0,
00:03.9,0.003427505,-0.005836487,0.01074028,0,
00:03.9,0.003456116,-0.005710602,0.010734558,0,
00:03.9,0.003450394,-0.005739212,0.010734558,0,
00:03.9,0.00343895,-0.00579071,0.010734558,0,
00:03.9,0.00343895,-0.005807877,0.010734558,0,
00:03.9,0.00343895,-0.005813599,0.010734558,0,
00:03.9,0.00343895,-0.005819321,0.01074028,0,
00:03.9,0.00343895,-0.005819321,0.01074028,0,
00:03.9,0.00343895,-0.005825043,0.01074028,0,
00:03.9,0.003433228,-0.005847931,0.010734558,0,
00:03.9,0.003416061,-0.005899429,0.010746002,0,
00:03.9,0.003416061,-0.005893707,0.010746002,0,
00:03.9,0.003433228,-0.005813599,0.01074028,0,
00:04.0,0.003456116,-0.005756378,0.01074028,0,
00:04.0,0.003456116,-0.005756378,0.01074028,0,
00:04.0,0.003450394,-0.005784988,0.01074028,0,
00:04.0,0.003444672,-0.005802155,0.010751724,0,
00:04.0,0.00343895,-0.005813599,0.010757446,0,
00:04.0,0.003444672,-0.005825043,0.010751724,0,
00:04.0,0.00343895,-0.005853653,0.010751724,0,
00:04.0,0.003433228,-0.005910873,0.010751724,0,
00:04.0,0.003433228,-0.005842209,0.010751724,0,
00:04.0,0.003456116,-0.005756378,0.010751724,0,
00:04.0,0.003456116,-0.005767822,0.010751724,0,
00:04.0,0.003450394,-0.005802155,0.010751724,0,
00:00:04,0.00343895,-0.005813599,0.010751724,0,
00:04.0,0.00343895,-0.005813599,0.010751724,0,
00:04.0,0.003444672,-0.005807877,0.010751724,0,
00:04.0,0.003444672,-0.005802155,0.010751724,0,
00:04.0,0.003444672,-0.005802155,0.010751724,0,
00:04.0,0.003444672,-0.005807877,0.010751724,0,
00:04.0,0.003444672,-0.005802155,0.010746002,0,
00:04.0,0.00343895,-0.005830765,0.010757446,0,
00:04.0,0.003433228,-0.005859375,0.010757446,0,
00:04.0,0.003450394,-0.005807877,0.010763168,0,
00:04.0,0.003456116,-0.005767822,0.010763168,0,
00:04.0,0.003456116,-0.005767822,0.010763168,0,
00:04.0,0.003450394,-0.005796432,0.010757446,0,
00:04.1,0.003444672,-0.005813599,0.010757446,0,
00:04.1,0.003444672,-0.005819321,0.010763168,0,
00:04.1,0.003433228,-0.005802155,0.010763168,0,
00:04.1,0.003433228,-0.005796432,0.010763168,0,
00:04.1,0.003421783,-0.005836487,0.01076889,0,
00:04.1,0.003416061,-0.005859375,0.01076889,0,
00:04.1,0.003421783,-0.005807877,0.01076889,0,
00:04.1,0.003427505,-0.005767822,0.010763168,0,
00:04.1,0.003427505,-0.005767822,0.010763168,0,
00:04.1,0.003427505,-0.005796432,0.010763168,0,
00:04.1,0.003427505,-0.005796432,0.010763168,0,
00:04.1,0.00343895,-0.005779266,0.010763168,0,
00:04.1,0.003433228,-0.00579071,0.010763168,0,
00:04.1,0.003433228,-0.005796432,0.01076889,0,
00:04.1,0.003427505,-0.005813599,0.010774612,0,
00:04.1,0.003421783,-0.005819321,0.010774612,0,
00:04.1,0.003427505,-0.005819321,0.010774612,0,
00:04.1,0.003427505,-0.005807877,0.01076889,0,
00:04.1,0.003427505,-0.005796432,0.010774612,0,
00:04.1,0.003421783,-0.005779266,0.010774612,0,
00:04.1,0.003427505,-0.005779266,0.010774612,0,
00:04.1,0.003421783,-0.005802155,0.010774612,0,
00:04.1,0.003421783,-0.005796432,0.01076889,0,
00:04.1,0.003427505,-0.005796432,0.01076889,0,
00:04.1,0.003427505,-0.005802155,0.010780334,0,
00:04.2,0.003427505,-0.005796432,0.010774612,0,
00:04.2,0.003427505,-0.005807877,0.010780334,0,
00:04.2,0.003427505,-0.005807877,0.010780334,0,
00:04.2,0.003433228,-0.005767822,0.010774612,0,
00:04.2,0.003433228,-0.0057621,0.01076889,0,
00:04.2,0.003427505,-0.005784988,0.010763168,0,
00:04.2,0.003427505,-0.00579071,0.010780334,0,
00:04.2,0.00343895,-0.005779266,0.010780334,0,
00:04.2,0.003433228,-0.00579071,0.010780334,0,
00:04.2,0.003421783,-0.005836487,0.010780334,0,
00:04.2,0.003416061,-0.005842209,0.010780334,0,
00:04.2,0.003416061,-0.005836487,0.010780334,0,
00:04.2,0.003433228,-0.005779266,0.010780334,0,
00:04.2,0.003444672,-0.005739212,0.010780334,0,
00:04.2,0.00343895,-0.005756378,0.010780334,0,
00:04.2,0.003433228,-0.005779266,0.010780334,0,
00:04.2,0.003433228,-0.005796432,0.010780334,0,
00:04.2,0.003433228,-0.005796432,0.010780334,0,
00:04.2,0.003427505,-0.005796432,0.010786057,0,
00:04.2,0.003427505,-0.005796432,0.010780334,0,
00:04.2,0.00343895,-0.005773544,0.010780334,0,
00:04.2,0.003444672,-0.0057621,0.010780334,0,
00:04.2,0.00343895,-0.005779266,0.010780334,0,
00:04.2,0.003433228,-0.00579071,0.010780334,0,
00:04.2,0.00343895,-0.00579071,0.010786057,0,
00:04.3,0.00343895,-0.005784988,0.010780334,0,
00:04.3,0.00343895,-0.00579071,0.010780334,0,
00:04.3,0.003433228,-0.005802155,0.010786057,0,
00:04.3,0.003427505,-0.005842209,0.010780334,0,
00:04.3,0.003427505,-0.005825043,0.010774612,0,
00:04.3,0.00343895,-0.0057621,0.010780334,0,
00:04.3,0.003450394,-0.00573349,0.010780334,0,
00:04.3,0.003444672,-0.005744934,0.010786057,0,
00:04.3,0.00343895,-0.005779266,0.010786057,0,
00:04.3,0.00343895,-0.005813599,0.010786057,0,
00:04.3,0.003433228,-0.005825043,0.010786057,0,
00:04.3,0.003433228,-0.005807877,0.010786057,0,
00:04.3,0.003444672,-0.0057621,0.010791779,0,
00:04.3,0.003444672,-0.005756378,0.010791779,0,
00:04.3,0.003444672,-0.005767822,0.010791779,0,
00:04.3,0.00343895,-0.005779266,0.010786057,0,
00:04.3,0.00343895,-0.005773544,0.010791779,0,
00:04.3,0.00343895,-0.005802155,0.010786057,0,
00:04.3,0.003433228,-0.005802155,0.010786057,0,
00:04.3,0.00343895,-0.0057621,0.010786057,0,
00:04.3,0.00343895,-0.005750656,0.010786057,0,
00:04.3,0.00343895,-0.005784988,0.010791779,0,
00:04.3,0.003433228,-0.00579071,0.010786057,0,
00:04.3,0.003433228,-0.005796432,0.010786057,0,
00:04.3,0.00343895,-0.005802155,0.010786057,0,
00:04.4,0.003433228,-0.005836487,0.010791779,0,
00:04.4,0.003427505,-0.005807877,0.010791779,0,
00:04.4,0.00343895,-0.005750656,0.010786057,0,
00:04.4,0.003450394,-0.005716324,0.010791779,0,
00:04.4,0.003444672,-0.005739212,0.010797501,0,
00:04.4,0.00343895,-0.005767822,0.010797501,0,
00:04.4,0.00343895,-0.005773544,0.010791779,0,
00:04.4,0.00343895,-0.005773544,0.010797501,0,
00:04.4,0.00343895,-0.005773544,0.010797501,0,
00:04.4,0.00343895,-0.005779266,0.010797501,0,
00:04.4,0.003433228,-0.005779266,0.010797501,0,
00:04.4,0.003433228,-0.005779266,0.010803223,0,
00:04.4,0.00343895,-0.0057621,0.010797501,0,
00:04.4,0.003444672,-0.005744934,0.010797501,0,
00:04.4,0.003444672,-0.0057621,0.010797501,0,
00:04.4,0.00343895,-0.0057621,0.010803223,0,
00:04.4,0.00343895,-0.005773544,0.010808945,0,
00:04.4,0.00343895,-0.005779266,0.010808945,0,
00:04.4,0.00343895,-0.00579071,0.010808945,0,
00:04.4,0.003433228,-0.005802155,0.010808945,0,
00:04.4,0.003421783,-0.005825043,0.010803223,0,
00:04.4,0.003421783,-0.005853653,0.010803223,0,
00:04.4,0.003433228,-0.005796432,0.010797501,0,
00:04.4,0.003450394,-0.005710602,0.010791779,0,
00:04.4,0.003450394,-0.005710602,0.010791779,0,
00:04.5,0.003444672,-0.005750656,0.010803223,0,
00:04.5,0.00343895,-0.0057621,0.010808945,0,
00:04.5,0.00343895,-0.0057621,0.010808945,0,
00:04.5,0.003433228,-0.005784988,0.010808945,0,
00:04.5,0.003421783,-0.005847931,0.010808945,0,
00:04.5,0.003421783,-0.005807877,0.010808945,0,
00:04.5,0.003433228,-0.005727768,0.010808945,0,
00:04.5,0.003444672,-0.005722046,0.010803223,0,
00:04.5,0.00343895,-0.00573349,0.010803223,0,
00:04.5,0.00343895,-0.005744934,0.010803223,0,
00:04.5,0.003433228,-0.0057621,0.010803223,0,
00:04.5,0.003433228,-0.005767822,0.010797501,0,
00:04.5,0.003427505,-0.005784988,0.010791779,0,
00:04.5,0.003427505,-0.00579071,0.010808945,0,
00:04.5,0.003433228,-0.005767822,0.010814667,0,
00:04.5,0.00343895,-0.005739212,0.010814667,0,
00:04.5,0.003433228,-0.005744934,0.010814667,0,
00:04.5,0.003421783,-0.005773544,0.010808945,0,
00:04.5,0.003421783,-0.005802155,0.010808945,0,
00:04.5,0.003427505,-0.005773544,0.010814667,0,
00:04.5,0.003433228,-0.005744934,0.010814667,0,
00:04.5,0.003427505,-0.005767822,0.010808945,0,
00:04.5,0.003427505,-0.005767822,0.010797501,0,
00:04.5,0.003427505,-0.005744934,0.010808945,0,
00:04.5,0.003427505,-0.005739212,0.010814667,0,
00:04.6,0.003421783,-0.005767822,0.010814667,0,
00:04.6,0.003421783,-0.00579071,0.010814667,0,
00:04.6,0.003427505,-0.005784988,0.010814667,0,
00:04.6,0.003427505,-0.0057621,0.010814667,0,
00:04.6,0.003427505,-0.00573349,0.010814667,0,
00:04.6,0.003427505,-0.005756378,0.010814667,0,
00:04.6,0.003427505,-0.005744934,0.010814667,0,
00:04.6,0.003433228,-0.005739212,0.010814667,0,
00:04.6,0.003433228,-0.005750656,0.010808945,0,
00:04.6,0.003427505,-0.005773544,0.010797501,0,
00:04.6,0.003421783,-0.00579071,0.010808945,0,
00:04.6,0.003427505,-0.005767822,0.010826111,0,
00:04.6,0.003433228,-0.005744934,0.010820389,0,
00:04.6,0.003427505,-0.005750656,0.010814667,0,
00:04.6,0.003433228,-0.00573349,0.010820389,0,
00:04.6,0.003433228,-0.005739212,0.010820389,0,
00:04.6,0.003421783,-0.005773544,0.010820389,0,
00:04.6,0.003416061,-0.005819321,0.010820389,0,
00:04.6,0.003416061,-0.005796432,0.010820389,0,
00:04.6,0.003433228,-0.005710602,0.010820389,0,
00:04.6,0.00343895,-0.00570488,0.010820389,0,
00:04.6,0.003433228,-0.0057621,0.010826111,0,
00:04.6,0.003427505,-0.005779266,0.010820389,0,
00:04.6,0.003433228,-0.005739212,0.010820389,0,
00:04.6,0.00343895,-0.005727768,0.010826111,0,
00:04.7,0.003433228,-0.005744934,0.010826111,0,
00:04.7,0.003427505,-0.005744934,0.010826111,0,
00:04.7,0.003433228,-0.005750656,0.010826111,0,
00:04.7,0.003427505,-0.005750656,0.010820389,0,
00:04.7,0.003421783,-0.0057621,0.010826111,0,
00:04.7,0.003433228,-0.005739212,0.010826111,0,
00:04.7,0.003427505,-0.005756378,0.010826111,0,
00:04.7,0.003421783,-0.005773544,0.010826111,0,
00:04.7,0.003427505,-0.0057621,0.010814667,0,
00:04.7,0.003433228,-0.005739212,0.010831833,0,
00:04.7,0.003427505,-0.005739212,0.010837555,0,
00:04.7,0.003427505,-0.005767822,0.010831833,0,
00:04.7,0.003421783,-0.005773544,0.010831833,0,
00:04.7,0.003421783,-0.005767822,0.010831833,0,
00:04.7,0.003421783,-0.005767822,0.010826111,0,
00:04.7,0.003427505,-0.005727768,0.010826111,0,
00:04.7,0.003433228,-0.005727768,0.010831833,0,
00:04.7,0.003427505,-0.005739212,0.010831833,0,
00:04.7,0.003427505,-0.005744934,0.010837555,0,
00:04.7,0.003427505,-0.005756378,0.010837555,0,
00:04.7,0.003421783,-0.005756378,0.010831833,0,
00:04.7,0.003427505,-0.005727768,0.010826111,0,
00:04.7,0.003427505,-0.005722046,0.010831833,0,
00:04.7,0.003427505,-0.005722046,0.010837555,0,
00:04.7,0.003427505,-0.00573349,0.010848999,0,
00:04.8,0.003427505,-0.005744934,0.010843277,0,
00:04.8,0.003427505,-0.00573349,0.010843277,0,
00:04.8,0.003421783,-0.005739212,0.010843277,0,
00:04.8,0.003416061,-0.005767822,0.010843277,0,
00:04.8,0.003410339,-0.005756378,0.010837555,0,
00:04.8,0.003421783,-0.005739212,0.010843277,0,
00:04.8,0.003427505,-0.005722046,0.010843277,0,
00:04.8,0.003433228,-0.005727768,0.010843277,0,
00:04.8,0.003427505,-0.005739212,0.010837555,0,
00:04.8,0.003427505,-0.005744934,0.010837555,0,
00:04.8,0.003421783,-0.005756378,0.010837555,0,
00:04.8,0.003410339,-0.005784988,0.010843277,0,
00:04.8,0.003404617,-0.005813599,0.010848999,0,
00:04.8,0.003410339,-0.005796432,0.010843277,0,
00:04.8,0.003416061,-0.005739212,0.010843277,0,
00:04.8,0.003421783,-0.005710602,0.010843277,0,
00:04.8,0.003427505,-0.005722046,0.010843277,0,
00:04.8,0.003427505,-0.00573349,0.010837555,0,
00:04.8,0.003416061,-0.005739212,0.010837555,0,
00:04.8,0.003421783,-0.005739212,0.010831833,0,
00:04.8,0.003421783,-0.005716324,0.010826111,0,
00:04.8,0.003421783,-0.005710602,0.010848999,0,
00:04.8,0.003416061,-0.005727768,0.010854721,0,
00:04.8,0.003410339,-0.005750656,0.010854721,0,
00:04.8,0.003410339,-0.005744934,0.010854721,0,
00:04.9,0.003416061,-0.00573349,0.010854721,0,
00:04.9,0.003416061,-0.005739212,0.010854721,0,
00:04.9,0.003416061,-0.005744934,0.010854721,0,
00:04.9,0.003416061,-0.005739212,0.010854721,0,
00:04.9,0.003416061,-0.00573349,0.010854721,0,
00:04.9,0.003421783,-0.005722046,0.010854721,0,
00:04.9,0.003416061,-0.00573349,0.010860443,0,
00:04.9,0.003410339,-0.005784988,0.010866165,0,
00:04.9,0.003393173,-0.005859375,0.010866165,0,
00:04.9,0.003393173,-0.005819321,0.010866165,0,
00:04.9,0.003416061,-0.005699158,0.010866165,0,
00:04.9,0.003433228,-0.005659103,0.010866165,0,
00:04.9,0.003427505,-0.005693436,0.010860443,0,
00:04.9,0.003421783,-0.005710602,0.010854721,0,
00:04.9,0.003416061,-0.005722046,0.010860443,0,
00:04.9,0.003416061,-0.005739212,0.010871887,0,
00:04.9,0.003416061,-0.005744934,0.010866165,0,
00:04.9,0.003410339,-0.005784988,0.010866165,0,
00:04.9,0.003393173,-0.005819321,0.010871887,0,
00:04.9,0.003398895,-0.005779266,0.010871887,0,
00:04.9,0.003416061,-0.00570488,0.010866165,0,
00:04.9,0.003427505,-0.00567627,0.010866165,0,
00:04.9,0.003421783,-0.005699158,0.010860443,0,
00:04.9,0.003416061,-0.005716324,0.010871887,0,
00:04.9,0.003410339,-0.005727768,0.010871887,0,
00:05.0,0.003410339,-0.005739212,0.010877609,0,
00:05.0,0.003404617,-0.005767822,0.010877609,0,
00:05.0,0.003393173,-0.005836487,0.010871887,0,
00:05.0,0.003387451,-0.005830765,0.010871887,0,
00:05.0,0.003398895,-0.005727768,0.010871887,0,
00:05.0,0.003416061,-0.00567627,0.010871887,0,
00:05.0,0.003421783,-0.005681992,0.010866165,0,
00:05.0,0.003416061,-0.005687714,0.010871887,0,
00:05.0,0.003410339,-0.005716324,0.010883331,0,
00:05.0,0.003410339,-0.00573349,0.010883331,0,
00:05.0,0.003404617,-0.00573349,0.010883331,0,
00:05.0,0.003404617,-0.00573349,0.010889053,0,
00:00:05,0.003410339,-0.005744934,0.010889053,0,
00:05.0,0.003398895,-0.005807877,0.010889053,0,
00:05.0,0.003393173,-0.005819321,0.010894775,0,
00:05.0,0.003398895,-0.005750656,0.010894775,0,
00:05.0,0.003416061,-0.005716324,0.010894775,0,
00:05.0,0.003427505,-0.005687714,0.010894775,0,
00:05.0,0.003421783,-0.005699158,0.010889053,0,
00:05.0,0.003416061,-0.005716324,0.010883331,0,
00:05.0,0.003410339,-0.005739212,0.010889053,0,
00:05.0,0.003410339,-0.005750656,0.010900497,0,
00:05.0,0.003404617,-0.005744934,0.010894775,0,
00:05.0,0.003404617,-0.005750656,0.010894775,0,
00:05.0,0.003387451,-0.005807877,0.010894775,0,
00:05.1,0.003381729,-0.005853653,0.010894775,0,
00:05.1,0.003404617,-0.0057621,0.010894775,0,
00:05.1,0.003427505,-0.005641937,0.010894775,0,
00:05.1,0.003427505,-0.005670547,0.010889053,0,
00:05.1,0.003416061,-0.00570488,0.010894775,0,
00:05.1,0.003410339,-0.005727768,0.010894775,0,
00:05.1,0.003410339,-0.005744934,0.010883331,0,
00:05.1,0.003410339,-0.005756378,0.010894775,0,
00:05.1,0.003404617,-0.005756378,0.010894775,0,
00:05.1,0.003410339,-0.00573349,0.010894775,0,
00:05.1,0.003404617,-0.005756378,0.010906219,0,
00:05.1,0.003398895,-0.005779266,0.010906219,0,
00:05.1,0.003404617,-0.005727768,0.010906219,0,
00:05.1,0.003410339,-0.005727768,0.010906219,0,
00:05.1,0.003410339,-0.005739212,0.010906219,0,
00:05.1,0.003410339,-0.005716324,0.010900497,0,
00:05.1,0.003404617,-0.005727768,0.010906219,0,
00:05.1,0.003404617,-0.005727768,0.010906219,0,
00:05.1,0.003410339,-0.005727768,0.010900497,0,
00:05.1,0.003410339,-0.005739212,0.010900497,0,
00:05.1,0.003398895,-0.005767822,0.010894775,0,
00:05.1,0.003393173,-0.005802155,0.010906219,0,
00:05.1,0.003398895,-0.005767822,0.010900497,0,
00:05.1,0.003416061,-0.005699158,0.010900497,0,
00:05.1,0.003416061,-0.005693436,0.010900497,0,
00:05.2,0.003410339,-0.00570488,0.010900497,0,
00:05.2,0.003404617,-0.00573349,0.010900497,0,
00:05.2,0.003398895,-0.005773544,0.010911942,0,
00:05.2,0.003404617,-0.0057621,0.010917664,0,
00:05.2,0.003410339,-0.005716324,0.010911942,0,
00:05.2,0.003410339,-0.005716324,0.010911942,0,
00:05.2,0.003404617,-0.005744934,0.010906219,0,
00:05.2,0.003404617,-0.005756378,0.010906219,0,
00:05.2,0.003398895,-0.005767822,0.010917664,0,
00:05.2,0.003398895,-0.005767822,0.010917664,0,
00:05.2,0.003404617,-0.005727768,0.010911942,0,
00:05.2,0.003410339,-0.00573349,0.010906219,0,
00:05.2,0.003410339,-0.005727768,0.010911942,0,
00:05.2,0.003410339,-0.005739212,0.010911942,0,
00:05.2,0.003404617,-0.005739212,0.010911942,0,
00:05.2,0.003410339,-0.005722046,0.010911942,0,
00:05.2,0.003416061,-0.005744934,0.010911942,0,
00:05.2,0.003410339,-0.005750656,0.010911942,0,
00:05.2,0.003404617,-0.005756378,0.010906219,0,
00:05.2,0.003404617,-0.005773544,0.010911942,0,
00:05.2,0.003410339,-0.005739212,0.010911942,0,
00:05.2,0.003416061,-0.005693436,0.010906219,0,
00:05.2,0.003410339,-0.005716324,0.010906219,0,
00:05.2,0.003404617,-0.005756378,0.010911942,0,
00:05.2,0.003398895,-0.005767822,0.010911942,0,
00:05.3,0.003404617,-0.005739212,0.010911942,0,
00:05.3,0.003404617,-0.00573349,0.010911942,0,
00:05.3,0.003410339,-0.005727768,0.010906219,0,
00:05.3,0.003404617,-0.005756378,0.010906219,0,
00:05.3,0.003398895,-0.005784988,0.010911942,0,
00:05.3,0.003393173,-0.0057621,0.010911942,0,
00:05.3,0.003404617,-0.005716324,0.010911942,0,
00:05.3,0.003410339,-0.005699158,0.010911942,0,
00:05.3,0.003410339,-0.005727768,0.010917664,0,
00:05.3,0.003404617,-0.005744934,0.010911942,0,
00:05.3,0.003404617,-0.0057621,0.010917664,0,
00:05.3,0.003393173,-0.005779266,0.010929108,0,
00:05.3,0.003404617,-0.005744934,0.010923386,0,
00:05.3,0.003404617,-0.005744934,0.010923386,0,
00:05.3,0.003404617,-0.00573349,0.010917664,0,
00:05.3,0.003404617,-0.005744934,0.010917664,0,
00:05.3,0.003398895,-0.005767822,0.010917664,0,
00:05.3,0.003398895,-0.005773544,0.010917664,0,
00:05.3,0.003410339,-0.005739212,0.010917664,0,
00:05.3,0.003421783,-0.005716324,0.010917664,0,
00:05.3,0.003410339,-0.005744934,0.010917664,0,
00:05.3,0.003404617,-0.005744934,0.010923386,0,
00:05.3,0.003410339,-0.00573349,0.010917664,0,
00:05.3,0.003410339,-0.005727768,0.010917664,0,
00:05.3,0.003410339,-0.00573349,0.010917664,0,
00:05.4,0.003404617,-0.005756378,0.010917664,0,
00:05.4,0.003393173,-0.005756378,0.010923386,0,
00:05.4,0.003398895,-0.005744934,0.010923386,0,
00:05.4,0.003398895,-0.005750656,0.010917664,0,
00:05.4,0.003398895,-0.005756378,0.010923386,0,
00:05.4,0.003398895,-0.005744934,0.010917664,0,
00:05.4,0.003404617,-0.00573349,0.010911942,0,
00:05.4,0.003410339,-0.005727768,0.010923386,0,
00:05.4,0.003404617,-0.00573349,0.010923386,0,
00:05.4,0.003398895,-0.005773544,0.010923386,0,
00:05.4,0.003393173,-0.005813599,0.010923386,0,
00:05.4,0.003398895,-0.005750656,0.010923386,0,
00:05.4,0.003410339,-0.005699158,0.010917664,0,
00:05.4,0.003410339,-0.005710602,0.010923386,0,
00:05.4,0.003398895,-0.005739212,0.010923386,0,
00:05.4,0.003398895,-0.005767822,0.010929108,0,
00:05.4,0.003398895,-0.005767822,0.010929108,0,
00:05.4,0.003398895,-0.005727768,0.010929108,0,
00:05.4,0.003398895,-0.005710602,0.010929108,0,
00:05.4,0.003398895,-0.005727768,0.010929108,0,
00:05.4,0.003398895,-0.00573349,0.010929108,0,
00:05.4,0.003398895,-0.005739212,0.010929108,0,
00:05.4,0.003393173,-0.005750656,0.010929108,0,
00:05.4,0.003398895,-0.005744934,0.010929108,0,
00:05.4,0.003398895,-0.005739212,0.010929108,0,
00:05.5,0.003393173,-0.0057621,0.010929108,0,
00:05.5,0.003381729,-0.005802155,0.010929108,0,
00:05.5,0.003381729,-0.005807877,0.010929108,0,
00:05.5,0.003393173,-0.0057621,0.010923386,0,
00:05.5,0.003410339,-0.00570488,0.010929108,0,
00:05.5,0.003410339,-0.005699158,0.010923386,0,
00:05.5,0.003404617,-0.005722046,0.010923386,0,
00:05.5,0.003404617,-0.00573349,0.010923386,0,
00:05.5,0.003404617,-0.00573349,0.010923386,0,
00:05.5,0.003404617,-0.005722046,0.010923386,0,
00:05.5,0.003404617,-0.00573349,0.010923386,0,
00:05.5,0.003410339,-0.0057621,0.010906219,0,
00:05.5,0.003398895,-0.005802155,0.010906219,0,
00:05.5,0.003393173,-0.005802155,0.010940552,0,
00:05.5,0.003404617,-0.005710602,0.010940552,0,
00:05.5,0.003410339,-0.005681992,0.01093483,0,
00:05.5,0.003404617,-0.005739212,0.01093483,0,
00:05.5,0.003404617,-0.005756378,0.010929108,0,
00:05.5,0.003410339,-0.005722046,0.010923386,0,
00:05.5,0.003410339,-0.005716324,0.010923386,0,
00:05.5,0.003404617,-0.005756378,0.010923386,0,
00:05.5,0.003398895,-0.005773544,0.010923386,0,
00:05.5,0.003404617,-0.005767822,0.010923386,0,
00:05.5,0.003404617,-0.005744934,0.010929108,0,
00:05.5,0.003404617,-0.005727768,0.010923386,0,
00:05.6,0.003410339,-0.005710602,0.010929108,0,
00:05.6,0.003410339,-0.005722046,0.010929108,0,
00:05.6,0.003410339,-0.005739212,0.010929108,0,
00:05.6,0.003404617,-0.005739212,0.010929108,0,
00:05.6,0.003410339,-0.00573349,0.010929108,0,
00:05.6,0.003410339,-0.00573349,0.010923386,0,
00:05.6,0.003410339,-0.005744934,0.010917664,0,
00:05.6,0.003410339,-0.00573349,0.01093483,0,
00:05.6,0.003404617,-0.0057621,0.01093483,0,
00:05.6,0.003398895,-0.005773544,0.010929108,0,
00:05.6,0.003398895,-0.005744934,0.010929108,0,
00:05.6,0.003410339,-0.005722046,0.010923386,0,
00:05.6,0.003410339,-0.005722046,0.010923386,0,
00:05.6,0.003404617,-0.005727768,0.010929108,0,
00:05.6,0.003404617,-0.005739212,0.010929108,0,
00:05.6,0.003404617,-0.005750656,0.010929108,0,
00:05.6,0.003404617,-0.005744934,0.010929108,0,
00:05.6,0.003404617,-0.005750656,0.010929108,0,
00:05.6,0.003398895,-0.005756378,0.010923386,0,
00:05.6,0.003404617,-0.005744934,0.010929108,0,
00:05.6,0.003404617,-0.005722046,0.010929108,0,
00:05.6,0.003404617,-0.005710602,0.010923386,0,
00:05.6,0.003398895,-0.005750656,0.010929108,0,
00:05.6,0.003393173,-0.005779266,0.010929108,0,
00:05.6,0.003398895,-0.005756378,0.010923386,0,
00:05.7,0.003410339,-0.005710602,0.010929108,0,
00:05.7,0.003404617,-0.005710602,0.010929108,0,
00:05.7,0.003404617,-0.005727768,0.01093483,0,
00:05.7,0.003410339,-0.005716324,0.010929108,0,
00:05.7,0.003410339,-0.005727768,0.010929108,0,
00:05.7,0.003404617,-0.00573349,0.01093483,0,
00:05.7,0.003398895,-0.005750656,0.010929108,0,
00:05.7,0.003387451,-0.005784988,0.010929108,0,
00:05.7,0.003387451,-0.005779266,0.010923386,0,
00:05.7,0.003393173,-0.005710602,0.010929108,0,
00:05.7,0.003404617,-0.005693436,0.01093483,0,
00:05.7,0.003398895,-0.005722046,0.01093483,0,
00:05.7,0.003398895,-0.005727768,0.010929108,0,
00:05.7,0.003398895,-0.005722046,0.010929108,0,
00:05.7,0.003398895,-0.005727768,0.01093483,0,
00:05.7,0.003398895,-0.005739212,0.010929108,0,
00:05.7,0.003398895,-0.005750656,0.010929108,0,
00:05.7,0.003393173,-0.005756378,0.010929108,0,
00:05.7,0.003393173,-0.005756378,0.010929108,0,
00:05.7,0.003398895,-0.005750656,0.010923386,0,
00:05.7,0.003398895,-0.005722046,0.010923386,0,
00:05.7,0.003398895,-0.005722046,0.010929108,0,
00:05.7,0.003393173,-0.005739212,0.010923386,0,
00:05.7,0.003398895,-0.005739212,0.010923386,0,
00:05.7,0.003393173,-0.005767822,0.010923386,0,
00:05.8,0.003393173,-0.005756378,0.010917664,0,
00:05.8,0.003398895,-0.005716324,0.010923386,0,
00:05.8,0.003404617,-0.00570488,0.010929108,0,
00:05.8,0.003398895,-0.005710602,0.010923386,0,
00:05.8,0.003387451,-0.005750656,0.010923386,0,
00:05.8,0.003393173,-0.005756378,0.010923386,0,
00:05.8,0.003398895,-0.005750656,0.010929108,0,
00:05.8,0.003398895,-0.0057621,0.010929108,0,
00:05.8,0.003398895,-0.00573349,0.010917664,0,
00:05.8,0.003410339,-0.005693436,0.010917664,0,
00:05.8,0.003410339,-0.005710602,0.010917664,0,
00:05.8,0.003404617,-0.005710602,0.010929108,0,
00:05.8,0.003404617,-0.005716324,0.010929108,0,
00:05.8,0.003404617,-0.005716324,0.010923386,0,
00:05.8,0.003398895,-0.005722046,0.010923386,0,
00:05.8,0.003398895,-0.005722046,0.010923386,0,
00:05.8,0.003398895,-0.005722046,0.010923386,0,
00:05.8,0.003398895,-0.005727768,0.010929108,0,
00:05.8,0.003398895,-0.005756378,0.010923386,0,
00:05.8,0.003393173,-0.005802155,0.010923386,0,
00:05.8,0.003393173,-0.005756378,0.010923386,0,
00:05.8,0.003398895,-0.00567627,0.010923386,0,
00:05.8,0.003404617,-0.005687714,0.010923386,0,
00:05.8,0.003404617,-0.005710602,0.010923386,0,
00:05.8,0.003398895,-0.005739212,0.010923386,0,
00:05.9,0.003381729,-0.005796432,0.010923386,0,
00:05.9,0.003370285,-0.005842209,0.010923386,0,
00:05.9,0.003387451,-0.005767822,0.010923386,0,
00:05.9,0.003416061,-0.005659103,0.010923386,0,
00:05.9,0.003421783,-0.005647659,0.010929108,0,
00:05.9,0.003416061,-0.005687714,0.010923386,0,
00:05.9,0.003410339,-0.005722046,0.010911942,0,
00:05.9,0.003398895,-0.00573349,0.010917664,0,
00:05.9,0.003393173,-0.005722046,0.010923386,0,
00:05.9,0.003398895,-0.005722046,0.010929108,0,
00:05.9,0.003398895,-0.005739212,0.010929108,0,
00:05.9,0.003398895,-0.005744934,0.010923386,0,
00:05.9,0.003398895,-0.005744934,0.010923386,0,
00:05.9,0.003398895,-0.005756378,0.010923386,0,
00:05.9,0.003398895,-0.005756378,0.010923386,0,
00:05.9,0.003398895,-0.00573349,0.010923386,0,
00:05.9,0.003398895,-0.005710602,0.010917664,0,
00:05.9,0.003398895,-0.005722046,0.010917664,0,
00:05.9,0.003398895,-0.00573349,0.010917664,0,
00:05.9,0.003410339,-0.00570488,0.010917664,0,
00:05.9,0.003410339,-0.005693436,0.010917664,0,
00:05.9,0.003410339,-0.005716324,0.010923386,0,
00:05.9,0.003404617,-0.005739212,0.010923386,0,
00:05.9,0.003393173,-0.005779266,0.010923386,0,
00:05.9,0.003381729,-0.005779266,0.010929108,0,
00:06.0,0.003393173,-0.005739212,0.010929108,0,
00:06.0,0.003410339,-0.00567627,0.010923386,0,
00:06.0,0.003416061,-0.005693436,0.010923386,0,
00:06.0,0.003404617,-0.00573349,0.010923386,0,
00:06.0,0.003393173,-0.005739212,0.010923386,0,
00:06.0,0.003393173,-0.005750656,0.010923386,0,
00:06.0,0.003398895,-0.00573349,0.010911942,0,
00:06.0,0.003410339,-0.005681992,0.010911942,0,
00:06.0,0.003404617,-0.005699158,0.010917664,0,
00:06.0,0.003398895,-0.005722046,0.010929108,0,
00:06.0,0.003398895,-0.00573349,0.010923386,0,
00:06.0,0.003393173,-0.005750656,0.010917664,0,
00:00:06,0.003387451,-0.0057621,0.010917664,0,
00:06.0,0.003393173,-0.005744934,0.010917664,0,
00:06.0,0.003404617,-0.005699158,0.010911942,0,
00:06.0,0.003404617,-0.005687714,0.010917664,0,
00:06.0,0.003404617,-0.005710602,0.010917664,0,
00:06.0,0.003398895,-0.00573349,0.010917664,0,
00:06.0,0.003393173,-0.005750656,0.010911942,0,
00:06.0,0.003387451,-0.005773544,0.010917664,0,
00:06.0,0.003381729,-0.005784988,0.010929108,0,
00:06.0,0.003393173,-0.00573349,0.010923386,0,
00:06.0,0.003416061,-0.005693436,0.010923386,0,
00:06.0,0.003416061,-0.005681992,0.010917664,0,
00:06.0,0.003404617,-0.005699158,0.010911942,0,
00:06.1,0.003398895,-0.005727768,0.010906219,0,
00:06.1,0.003393173,-0.005750656,0.010917664,0,
00:06.1,0.003398895,-0.005727768,0.010917664,0,
00:06.1,0.003404617,-0.00570488,0.010917664,0,
00:06.1,0.003404617,-0.005716324,0.010911942,0,
00:06.1,0.003398895,-0.00573349,0.010911942,0,
00:06.1,0.003398895,-0.005739212,0.010911942,0,
00:06.1,0.003404617,-0.00573349,0.010911942,0,
00:06.1,0.003404617,-0.005722046,0.010911942,0,
00:06.1,0.003398895,-0.005739212,0.010911942,0,
00:06.1,0.003398895,-0.005739212,0.010917664,0,
00:06.1,0.003404617,-0.005722046,0.010917664,0,
00:06.1,0.003410339,-0.005710602,0.010911942,0,
00:06.1,0.003404617,-0.00573349,0.010911942,0,
00:06.1,0.003398895,-0.005739212,0.010911942,0,
00:06.1,0.003398895,-0.005744934,0.010911942,0,
00:06.1,0.003404617,-0.005716324,0.010911942,0,
00:06.1,0.003410339,-0.005693436,0.010911942,0,
00:06.1,0.003404617,-0.005722046,0.010911942,0,
00:06.1,0.003398895,-0.005739212,0.010911942,0,
00:06.1,0.003404617,-0.00573349,0.010911942,0,
00:06.1,0.003410339,-0.005716324,0.010911942,0,
00:06.1,0.003404617,-0.005727768,0.010911942,0,
00:06.1,0.003393173,-0.005779266,0.010911942,0,
00:06.1,0.003387451,-0.005779266,0.010911942,0,
00:06.2,0.003398895,-0.005722046,0.010923386,0,
00:06.2,0.003410339,-0.005693436,0.010917664,0,
00:06.2,0.003410339,-0.00570488,0.010911942,0,
00:06.2,0.003404617,-0.005716324,0.010906219,0,
00:06.2,0.003398895,-0.005727768,0.010906219,0,
00:06.2,0.003398895,-0.005722046,0.010906219,0,
00:06.2,0.003404617,-0.005722046,0.010906219,0,
00:06.2,0.003398895,-0.005756378,0.010906219,0,
00:06.2,0.003393173,-0.005779266,0.010911942,0,
00:06.2,0.003398895,-0.005727768,0.010917664,0,
00:06.2,0.003410339,-0.005687714,0.010911942,0,
00:06.2,0.003410339,-0.005687714,0.010911942,0,
00:06.2,0.003404617,-0.005716324,0.010906219,0,
00:06.2,0.003398895,-0.005727768,0.010906219,0,
00:06.2,0.003393173,-0.005744934,0.010911942,0,
00:06.2,0.003398895,-0.005744934,0.010911942,0,
00:06.2,0.003404617,-0.005722046,0.010911942,0,
00:06.2,0.003404617,-0.005722046,0.010911942,0,
00:06.2,0.003404617,-0.005710602,0.010906219,0,
00:06.2,0.003404617,-0.00570488,0.010917664,0,
00:06.2,0.003398895,-0.005722046,0.010917664,0,
00:06.2,0.003398895,-0.00573349,0.010911942,0,
00:06.2,0.003393173,-0.005773544,0.010911942,0,
00:06.2,0.003393173,-0.0057621,0.010906219,0,
00:06.2,0.003404617,-0.005687714,0.010906219,0,
00:06.3,0.003410339,-0.005681992,0.010906219,0,
00:06.3,0.003398895,-0.00570488,0.010911942,0,
00:06.3,0.003398895,-0.005710602,0.010906219,0,
00:06.3,0.003398895,-0.005756378,0.010911942,0,
00:06.3,0.003393173,-0.0057621,0.010911942,0,
00:06.3,0.003398895,-0.005722046,0.010906219,0,
00:06.3,0.003410339,-0.00570488,0.010906219,0,
00:06.3,0.003404617,-0.005722046,0.010900497,0,
00:06.3,0.003404617,-0.005727768,0.010894775,0,
00:06.3,0.003410339,-0.00570488,0.010889053,0,
00:06.3,0.003404617,-0.005693436,0.010906219,0,
00:06.3,0.003398895,-0.005716324,0.010917664,0,
00:06.3,0.003393173,-0.00573349,0.010911942,0,
00:06.3,0.003398895,-0.005722046,0.010911942,0,
00:06.3,0.003404617,-0.00570488,0.010906219,0,
00:06.3,0.003404617,-0.005716324,0.010906219,0,
00:06.3,0.003398895,-0.00573349,0.010906219,0,
00:06.3,0.003398895,-0.005727768,0.010906219,0,
00:06.3,0.003398895,-0.005739212,0.010906219,0,
00:06.3,0.003393173,-0.00573349,0.010906219,0,
00:06.3,0.003398895,-0.005722046,0.010906219,0,
00:06.3,0.003404617,-0.005716324,0.010906219,0,
00:06.3,0.003416061,-0.005681992,0.010900497,0,
00:06.3,0.003416061,-0.005693436,0.010900497,0,
00:06.3,0.003404617,-0.005739212,0.010900497,0,
00:06.4,0.003398895,-0.00573349,0.010906219,0,
00:06.4,0.003410339,-0.005699158,0.010906219,0,
00:06.4,0.003416061,-0.005693436,0.010906219,0,
00:06.4,0.003404617,-0.005722046,0.010906219,0,
00:06.4,0.003398895,-0.005767822,0.010906219,0,
00:06.4,0.003398895,-0.00573349,0.010906219,0,
00:06.4,0.003404617,-0.00567627,0.010894775,0,
00:06.4,0.003404617,-0.005687714,0.010911942,0,
00:06.4,0.003404617,-0.005687714,0.010900497,0,
00:06.4,0.003404617,-0.005693436,0.010900497,0,
00:06.4,0.003398895,-0.005710602,0.010906219,0,
00:06.4,0.003404617,-0.005710602,0.010906219,0,
00:06.4,0.003404617,-0.005693436,0.010906219,0,
00:06.4,0.003404617,-0.005693436,0.010906219,0,
00:06.4,0.003398895,-0.00570488,0.010911942,0,
00:06.4,0.003404617,-0.00570488,0.010906219,0,
00:06.4,0.003404617,-0.005716324,0.010906219,0,
00:06.4,0.003404617,-0.00570488,0.010900497,0,
00:06.4,0.003404617,-0.005687714,0.010900497,0,
00:06.4,0.003393173,-0.005722046,0.010906219,0,
00:06.4,0.003381729,-0.005750656,0.010906219,0,
00:06.4,0.003387451,-0.005739212,0.010900497,0,
00:06.4,0.003393173,-0.005739212,0.010894775,0,
00:06.4,0.003404617,-0.005699158,0.010894775,0,
00:06.4,0.003404617,-0.00567627,0.010894775,0,
00:06.5,0.003393173,-0.005687714,0.010894775,0,
00:06.5,0.003398895,-0.005687714,0.010889053,0,
00:06.5,0.003404617,-0.005687714,0.010889053,0,
00:06.5,0.003393173,-0.00570488,0.010900497,0,
00:06.5,0.003387451,-0.005722046,0.010900497,0,
00:06.5,0.003393173,-0.00570488,0.010900497,0,
00:06.5,0.003393173,-0.005710602,0.010900497,0,
00:06.5,0.003387451,-0.005739212,0.010900497,0,
00:06.5,0.003393173,-0.005722046,0.010894775,0,
00:06.5,0.003404617,-0.005687714,0.010894775,0,
00:06.5,0.003404617,-0.005687714,0.010900497,0,
00:06.5,0.003404617,-0.005687714,0.010900497,0,
00:06.5,0.003410339,-0.005699158,0.010894775,0,
00:06.5,0.003404617,-0.005716324,0.010900497,0,
00:06.5,0.003398895,-0.005744934,0.010900497,0,
00:06.5,0.003398895,-0.005716324,0.010894775,0,
00:06.5,0.003404617,-0.00567627,0.010894775,0,
00:06.5,0.003404617,-0.005699158,0.010894775,0,
00:06.5,0.003398895,-0.005716324,0.010894775,0,
00:06.5,0.003398895,-0.005716324,0.010894775,0,
00:06.5,0.003410339,-0.005693436,0.010894775,0,
00:06.5,0.003416061,-0.005653381,0.010894775,0,
00:06.5,0.003410339,-0.005670547,0.010889053,0,
00:06.5,0.003404617,-0.005699158,0.010894775,0,
00:06.5,0.003398895,-0.00570488,0.010894775,0,
00:06.6,0.003393173,-0.005739212,0.010894775,0,
00:06.6,0.003387451,-0.005773544,0.010894775,0,
00:06.6,0.003393173,-0.00573349,0.010900497,0,
00:06.6,0.003404617,-0.00567627,0.010900497,0,
00:06.6,0.003410339,-0.005664825,0.010900497,0,
00:06.6,0.003410339,-0.005670547,0.010900497,0,
00:06.6,0.003410339,-0.005687714,0.010900497,0,
00:06.6,0.003404617,-0.005710602,0.010894775,0,
00:06.6,0.003404617,-0.005710602,0.010889053,0,
00:06.6,0.003398895,-0.005710602,0.010894775,0,
00:06.6,0.003404617,-0.005727768,0.010906219,0,
00:06.6,0.003404617,-0.005722046,0.010906219,0,
00:06.6,0.003398895,-0.005710602,0.010900497,0,
00:06.6,0.003404617,-0.005699158,0.010894775,0,
00:06.6,0.003410339,-0.005681992,0.010889053,0,
00:06.6,0.003404617,-0.005681992,0.010900497,0,
00:06.6,0.003410339,-0.005681992,0.010900497,0,
00:06.6,0.003404617,-0.005687714,0.010900497,0,
00:06.6,0.003398895,-0.005699158,0.010900497,0,
00:06.6,0.003398895,-0.005716324,0.010894775,0,
00:06.6,0.003393173,-0.005744934,0.010894775,0,
00:06.6,0.003393173,-0.00573349,0.010894775,0,
00:06.6,0.003404617,-0.005664825,0.010894775,0,
00:06.6,0.003410339,-0.005653381,0.010894775,0,
00:06.6,0.003404617,-0.005687714,0.010894775,0,
00:06.7,0.003398895,-0.00570488,0.010894775,0,
00:06.7,0.003398895,-0.005693436,0.010894775,0,
00:06.7,0.003404617,-0.005681992,0.010889053,0,
00:06.7,0.003398895,-0.005693436,0.010894775,0,
00:06.7,0.003398895,-0.00570488,0.010889053,0,
00:06.7,0.003387451,-0.00573349,0.010889053,0,
00:06.7,0.003393173,-0.005722046,0.010883331,0,
00:06.7,0.003393173,-0.005716324,0.010894775,0,
00:06.7,0.003398895,-0.005693436,0.010900497,0,
00:06.7,0.003404617,-0.005693436,0.010894775,0,
00:06.7,0.003404617,-0.005693436,0.010894775,0,
00:06.7,0.003398895,-0.00570488,0.010894775,0,
00:06.7,0.003404617,-0.005710602,0.010889053,0,
00:06.7,0.003398895,-0.005710602,0.010889053,0,
00:06.7,0.003398895,-0.005710602,0.010894775,0,
00:06.7,0.003404617,-0.005693436,0.010889053,0,
00:06.7,0.003398895,-0.00567627,0.010889053,0,
00:06.7,0.003404617,-0.005664825,0.010894775,0,
00:06.7,0.003404617,-0.005670547,0.010900497,0,
00:06.7,0.003404617,-0.005681992,0.010900497,0,
00:06.7,0.003398895,-0.005716324,0.010894775,0,
00:06.7,0.003398895,-0.005727768,0.010894775,0,
00:06.7,0.003404617,-0.005710602,0.010894775,0,
00:06.7,0.003410339,-0.005693436,0.010894775,0,
00:06.7,0.003404617,-0.005687714,0.010894775,0,
00:06.8,0.003410339,-0.005687714,0.010889053,0,
00:06.8,0.003404617,-0.005710602,0.010883331,0,
00:06.8,0.003404617,-0.005716324,0.010889053,0,
00:06.8,0.003410339,-0.005681992,0.010894775,0,
00:06.8,0.003410339,-0.005693436,0.010894775,0,
00:06.8,0.003393173,-0.00573349,0.010894775,0,
00:06.8,0.003387451,-0.005739212,0.010900497,0,
00:06.8,0.003398895,-0.005693436,0.010894775,0,
00:06.8,0.003404617,-0.005681992,0.010894775,0,
00:06.8,0.003410339,-0.00567627,0.010889053,0,
00:06.8,0.003404617,-0.005693436,0.010883331,0,
00:06.8,0.003404617,-0.005664825,0.010894775,0,
00:06.8,0.003404617,-0.005670547,0.010900497,0,
00:06.8,0.003404617,-0.00567627,0.010894775,0,
00:06.8,0.003404617,-0.00567627,0.010894775,0,
00:06.8,0.003398895,-0.005699158,0.010894775,0,
00:06.8,0.003393173,-0.005744934,0.010894775,0,
00:06.8,0.003387451,-0.005744934,0.010894775,0,
00:06.8,0.003404617,-0.005664825,0.010889053,0,
00:06.8,0.003410339,-0.005653381,0.010883331,0,
00:06.8,0.003404617,-0.005693436,0.010900497,0,
00:06.8,0.003398895,-0.005699158,0.010894775,0,
00:06.8,0.003398895,-0.00570488,0.010883331,0,
00:06.8,0.003398895,-0.00567627,0.010889053,0,
00:06.8,0.003398895,-0.005659103,0.010889053,0,
00:06.9,0.003404617,-0.00567627,0.010889053,0,
00:06.9,0.003404617,-0.005699158,0.010889053,0,
00:06.9,0.003398895,-0.005699158,0.010900497,0,
00:06.9,0.003398895,-0.005664825,0.010894775,0,
00:06.9,0.003404617,-0.005670547,0.010894775,0,
00:06.9,0.003398895,-0.005681992,0.010894775,0,
00:06.9,0.003398895,-0.00570488,0.010894775,0,
00:06.9,0.003398895,-0.00570488,0.010889053,0,
00:06.9,0.003398895,-0.005699158,0.010889053,0,
00:06.9,0.003393173,-0.005710602,0.010889053,0,
00:06.9,0.003398895,-0.005687714,0.010883331,0,
00:06.9,0.003410339,-0.005664825,0.010877609,0,
00:06.9,0.003404617,-0.005670547,0.010889053,0,
00:06.9,0.003387451,-0.00573349,0.010894775,0,
00:06.9,0.003381729,-0.005750656,0.010889053,0,
00:06.9,0.003387451,-0.005699158,0.010883331,0,
00:06.9,0.003404617,-0.005624771,0.010889053,0,
00:06.9,0.003410339,-0.005607605,0.010894775,0,
00:06.9,0.003404617,-0.005647659,0.010883331,0,
00:06.9,0.003404617,-0.00567627,0.010883331,0,
00:06.9,0.003398895,-0.00567627,0.010889053,0,
00:06.9,0.003404617,-0.00567627,0.010889053,0,
00:06.9,0.003404617,-0.005670547,0.010889053,0,
00:06.9,0.003404617,-0.00567627,0.010889053,0,
00:06.9,0.003398895,-0.005699158,0.010894775,0,
00:07.0,0.003398895,-0.005681992,0.010889053,0,
00:07.0,0.003404617,-0.00567627,0.010889053,0,
00:07.0,0.003404617,-0.005681992,0.010889053,0,
00:07.0,0.003404617,-0.005670547,0.010889053,0,
00:07.0,0.003404617,-0.005659103,0.010889053,0,
00:07.0,0.003404617,-0.005670547,0.010883331,0,
00:07.0,0.003404617,-0.005693436,0.010883331,0,
00:07.0,0.003398895,-0.005722046,0.010889053,0,
00:07.0,0.003393173,-0.00573349,0.010889053,0,
00:07.0,0.003398895,-0.005687714,0.010889053,0,
00:07.0,0.003410339,-0.005664825,0.010883331,0,
00:07.0,0.003404617,-0.005699158,0.010883331,0,
00:00:07,0.003410339,-0.005664825,0.010889053,0,
00:07.0,0.003416061,-0.005624771,0.010889053,0,
00:07.0,0.003410339,-0.005636215,0.010889053,0,
00:07.0,0.003410339,-0.005664825,0.010889053,0,
00:07.0,0.003404617,-0.005681992,0.010889053,0,
00:07.0,0.003410339,-0.005670547,0.010877609,0,
00:07.0,0.003410339,-0.005664825,0.010877609,0,
00:07.0,0.003404617,-0.00567627,0.010889053,0,
00:07.0,0.003404617,-0.005699158,0.010889053,0,
00:07.0,0.003404617,-0.005687714,0.010889053,0,
00:07.0,0.003410339,-0.005670547,0.010883331,0,
00:07.0,0.003410339,-0.005687714,0.010883331,0,
00:07.0,0.003404617,-0.005716324,0.010889053,0,
00:07.1,0.003410339,-0.005693436,0.010883331,0,
00:07.1,0.003410339,-0.005664825,0.010889053,0,
00:07.1,0.003416061,-0.005636215,0.010889053,0,
00:07.1,0.003416061,-0.005647659,0.010889053,0,
00:07.1,0.003404617,-0.005681992,0.010889053,0,
00:07.1,0.003398895,-0.00570488,0.010894775,0,
00:07.1,0.003404617,-0.005659103,0.010889053,0,
00:07.1,0.003416061,-0.005641937,0.010883331,0,
00:07.1,0.003416061,-0.005664825,0.010883331,0,
00:07.1,0.003404617,-0.005699158,0.010889053,0,
00:07.1,0.003404617,-0.005681992,0.010889053,0,
00:07.1,0.003410339,-0.005653381,0.010889053,0,
00:07.1,0.003410339,-0.005664825,0.010883331,0,
00:07.1,0.003404617,-0.00567627,0.010889053,0,
00:07.1,0.003410339,-0.00567627,0.010883331,0,
00:07.1,0.003410339,-0.005670547,0.010883331,0,
00:07.1,0.003404617,-0.005670547,0.010889053,0,
00:07.1,0.003404617,-0.005687714,0.010883331,0,
00:07.1,0.003404617,-0.005693436,0.010883331,0,
00:07.1,0.003404617,-0.005687714,0.010883331,0,
00:07.1,0.003410339,-0.005659103,0.010877609,0,
00:07.1,0.003416061,-0.005647659,0.010889053,0,
00:07.1,0.003416061,-0.005647659,0.010889053,0,
00:07.1,0.003410339,-0.005670547,0.010883331,0,
00:07.1,0.003398895,-0.00570488,0.010894775,0,
00:07.2,0.003404617,-0.00570488,0.010894775,0,
00:07.2,0.003410339,-0.005647659,0.010889053,0,
00:07.2,0.003416061,-0.005630493,0.010883331,0,
00:07.2,0.003410339,-0.005659103,0.010883331,0,
00:07.2,0.003404617,-0.005670547,0.010889053,0,
00:07.2,0.003398895,-0.005693436,0.010889053,0,
00:07.2,0.003398895,-0.005693436,0.010889053,0,
00:07.2,0.003398895,-0.005699158,0.010889053,0,
00:07.2,0.003398895,-0.005681992,0.010883331,0,
00:07.2,0.003404617,-0.005659103,0.010889053,0,
00:07.2,0.003410339,-0.005659103,0.010889053,0,
00:07.2,0.003410339,-0.005647659,0.010889053,0,
00:07.2,0.003410339,-0.005659103,0.010889053,0,
00:07.2,0.003410339,-0.005670547,0.010889053,0,
00:07.2,0.003404617,-0.005693436,0.010889053,0,
00:07.2,0.003410339,-0.005693436,0.010883331,0,
00:07.2,0.003410339,-0.005681992,0.010883331,0,
00:07.2,0.003416061,-0.005664825,0.010883331,0,
00:07.2,0.003416061,-0.005647659,0.010877609,0,
00:07.2,0.003416061,-0.005636215,0.010883331,0,
00:07.2,0.003410339,-0.005647659,0.010889053,0,
00:07.2,0.003410339,-0.005653381,0.010889053,0,
00:07.2,0.003410339,-0.005653381,0.010883331,0,
00:07.2,0.003410339,-0.00567627,0.010883331,0,
00:07.2,0.003398895,-0.00573349,0.010889053,0,
00:07.3,0.003398895,-0.005693436,0.010889053,0,
00:07.3,0.003416061,-0.005630493,0.010883331,0,
00:07.3,0.003421783,-0.005653381,0.010883331,0,
00:07.3,0.003416061,-0.005653381,0.010883331,0,
00:07.3,0.003421783,-0.005641937,0.010883331,0,
00:07.3,0.003416061,-0.005653381,0.010883331,0,
00:07.3,0.003410339,-0.005659103,0.010883331,0,
00:07.3,0.003416061,-0.005670547,0.010889053,0,
00:07.3,0.003404617,-0.00570488,0.010877609,0,
00:07.3,0.003398895,-0.005716324,0.010883331,0,
00:07.3,0.003404617,-0.005681992,0.010894775,0,
00:07.3,0.003421783,-0.005624771,0.010883331,0,
00:07.3,0.003421783,-0.005619049,0.010883331,0,
00:07.3,0.003410339,-0.005659103,0.010889053,0,
00:07.3,0.003410339,-0.005653381,0.010889053,0,
00:07.3,0.003410339,-0.005653381,0.010889053,0,
00:07.3,0.003410339,-0.005664825,0.010889053,0,
00:07.3,0.003398895,-0.005699158,0.010883331,0,
00:07.3,0.003393173,-0.005716324,0.010883331,0,
00:07.3,0.003404617,-0.005647659,0.010889053,0,
00:07.3,0.003416061,-0.005624771,0.010877609,0,
00:07.3,0.003410339,-0.005641937,0.010883331,0,
00:07.3,0.003404617,-0.005653381,0.010883331,0,
00:07.3,0.003410339,-0.005647659,0.010883331,0,
00:07.3,0.003410339,-0.005647659,0.010877609,0,
00:07.4,0.003410339,-0.005653381,0.010877609,0,
00:07.4,0.003404617,-0.005664825,0.010877609,0,
00:07.4,0.003404617,-0.005681992,0.010877609,0,
00:07.4,0.003404617,-0.005693436,0.010877609,0,
00:07.4,0.003393173,-0.00573349,0.010877609,0,
00:07.4,0.003393173,-0.005722046,0.010877609,0,
00:07.4,0.003404617,-0.005647659,0.010883331,0,
00:07.4,0.003421783,-0.005601883,0.010871887,0,
00:07.4,0.003416061,-0.005624771,0.010871887,0,
00:07.4,0.003416061,-0.005624771,0.010883331,0,
00:07.4,0.003416061,-0.005630493,0.010877609,0,
00:07.4,0.003416061,-0.005647659,0.010877609,0,
00:07.4,0.003410339,-0.005664825,0.010871887,0,
00:07.4,0.003404617,-0.00570488,0.010871887,0,
00:07.4,0.003398895,-0.00573349,0.010889053,0,
00:07.4,0.003404617,-0.00567627,0.010889053,0,
00:07.4,0.003421783,-0.005613327,0.010883331,0,
00:07.4,0.003427505,-0.005613327,0.010877609,0,
00:07.4,0.003421783,-0.005624771,0.010883331,0,
00:07.4,0.003416061,-0.005641937,0.010889053,0,
00:07.4,0.003416061,-0.005647659,0.010883331,0,
00:07.4,0.003410339,-0.005653381,0.010889053,0,
00:07.4,0.003410339,-0.005670547,0.010889053,0,
00:07.4,0.003404617,-0.005687714,0.010889053,0,
00:07.4,0.003398895,-0.005710602,0.010883331,0,
00:07.5,0.003393173,-0.005716324,0.010883331,0,
00:07.5,0.003398895,-0.005699158,0.010883331,0,
00:07.5,0.003410339,-0.00567627,0.010877609,0,
00:07.5,0.003416061,-0.005630493,0.010866165,0,
00:07.5,0.003416061,-0.005607605,0.010883331,0,
00:07.5,0.003416061,-0.005624771,0.010894775,0,
00:07.5,0.003410339,-0.005630493,0.010889053,0,
00:07.5,0.003410339,-0.005659103,0.010883331,0,
00:07.5,0.003410339,-0.00567627,0.010883331,0,
00:07.5,0.003404617,-0.00567627,0.010883331,0,
00:07.5,0.003398895,-0.005687714,0.010883331,0,
00:07.5,0.003404617,-0.00567627,0.010877609,0,
00:07.5,0.003416061,-0.005647659,0.010877609,0,
00:07.5,0.003410339,-0.005659103,0.010883331,0,
00:07.5,0.003416061,-0.005647659,0.010883331,0,
00:07.5,0.003416061,-0.005641937,0.010877609,0,
00:07.5,0.003410339,-0.005647659,0.010889053,0,
00:07.5,0.003404617,-0.005670547,0.010883331,0,
00:07.5,0.003398895,-0.005681992,0.010883331,0,
00:07.5,0.003398895,-0.00567627,0.010889053,0,
00:07.5,0.003404617,-0.005647659,0.010889053,0,
00:07.5,0.003404617,-0.00567627,0.010883331,0,
00:07.5,0.003410339,-0.005647659,0.010889053,0,
00:07.5,0.003410339,-0.005636215,0.010889053,0,
00:07.5,0.003410339,-0.005641937,0.010889053,0,
00:07.6,0.003410339,-0.005641937,0.010883331,0,
00:07.6,0.003410339,-0.005641937,0.010883331,0,
00:07.6,0.003410339,-0.005659103,0.010883331,0,
00:07.6,0.003404617,-0.005687714,0.010883331,0,
00:07.6,0.003398895,-0.005710602,0.010894775,0,
00:07.6,0.003393173,-0.005710602,0.010889053,0,
00:07.6,0.003404617,-0.005647659,0.010889053,0,
00:07.6,0.003416061,-0.005624771,0.010883331,0,
00:07.6,0.003404617,-0.005647659,0.010877609,0,
00:07.6,0.003393173,-0.005670547,0.010883331,0,
00:07.6,0.003398895,-0.005670547,0.010889053,0,
00:07.6,0.003398895,-0.005670547,0.010889053,0,
00:07.6,0.003404617,-0.005653381,0.010889053,0,
00:07.6,0.003404617,-0.005641937,0.010889053,0,
00:07.6,0.003398895,-0.005664825,0.010894775,0,
00:07.6,0.003398895,-0.005659103,0.010894775,0,
00:07.6,0.003398895,-0.005659103,0.010894775,0,
00:07.6,0.003398895,-0.005664825,0.010894775,0,
00:07.6,0.003398895,-0.005670547,0.010894775,0,
00:07.6,0.003398895,-0.005653381,0.010894775,0,
00:07.6,0.003404617,-0.005647659,0.010894775,0,
00:07.6,0.003398895,-0.005664825,0.010894775,0,
00:07.6,0.003398895,-0.005681992,0.010894775,0,
00:07.6,0.003404617,-0.00567627,0.010894775,0,
00:07.6,0.003393173,-0.005687714,0.010894775,0,
00:07.7,0.003387451,-0.005687714,0.010889053,0,
00:07.7,0.003398895,-0.005641937,0.010900497,0,
00:07.7,0.003404617,-0.005630493,0.010894775,0,
00:07.7,0.003398895,-0.005647659,0.010889053,0,
00:07.7,0.003393173,-0.005664825,0.010900497,0,
00:07.7,0.003393173,-0.005687714,0.010906219,0,
00:07.7,0.003387451,-0.005670547,0.010900497,0,
00:07.7,0.003393173,-0.005647659,0.010900497,0,
00:07.7,0.003393173,-0.005653381,0.010906219,0,
00:07.7,0.003393173,-0.005664825,0.010906219,0,
00:07.7,0.003393173,-0.005659103,0.010900497,0,
00:07.7,0.003393173,-0.005659103,0.010911942,0,
00:07.7,0.003398895,-0.005647659,0.010911942,0,
00:07.7,0.003393173,-0.005659103,0.010911942,0,
00:07.7,0.003381729,-0.005687714,0.010911942,0,
00:07.7,0.003376007,-0.005687714,0.010911942,0,
00:07.7,0.003387451,-0.00567627,0.010911942,0,
00:07.7,0.003393173,-0.005653381,0.010906219,0,
00:07.7,0.003387451,-0.005653381,0.010906219,0,
00:07.7,0.003387451,-0.005641937,0.010906219,0,
00:07.7,0.003387451,-0.005664825,0.010917664,0,
00:07.7,0.003387451,-0.005664825,0.010917664,0,
00:07.7,0.003387451,-0.005670547,0.010911942,0,
00:07.7,0.003393173,-0.005670547,0.010917664,0,
00:07.7,0.003387451,-0.005664825,0.010917664,0,
00:07.8,0.003381729,-0.005687714,0.010917664,0,
00:07.8,0.003376007,-0.005716324,0.010917664,0,
00:07.8,0.003381729,-0.005681992,0.010917664,0,
00:07.8,0.003398895,-0.005624771,0.010917664,0,
00:07.8,0.003398895,-0.005619049,0.010917664,0,
00:07.8,0.003387451,-0.005647659,0.010917664,0,
00:07.8,0.003387451,-0.005670547,0.010917664,0,
00:07.8,0.003381729,-0.00567627,0.010923386,0,
00:07.8,0.003381729,-0.005670547,0.010923386,0,
00:07.8,0.003381729,-0.005687714,0.010923386,0,
00:07.8,0.003364563,-0.0057621,0.010929108,0,
00:07.8,0.003358841,-0.005744934,0.010929108,0,
00:07.8,0.003376007,-0.005641937,0.010929108,0,
00:07.8,0.003393173,-0.005596161,0.010929108,0,
00:07.8,0.003381729,-0.005624771,0.010929108,0,
00:07.8,0.003376007,-0.005653381,0.010940552,0,
00:07.8,0.003376007,-0.005670547,0.01093483,0,
00:07.8,0.003376007,-0.00567627,0.01093483,0,
00:07.8,0.003376007,-0.00567627,0.010929108,0,
00:07.8,0.003370285,-0.005687714,0.01093483,0,
00:07.8,0.003364563,-0.005744934,0.01093483,0,
00:07.8,0.003358841,-0.0057621,0.01093483,0,
00:07.8,0.003370285,-0.005681992,0.010946274,0,
00:07.8,0.003387451,-0.005636215,0.010940552,0,
00:07.8,0.003381729,-0.005641937,0.01093483,0,
00:07.9,0.003376007,-0.005664825,0.010940552,0,
00:07.9,0.003376007,-0.005670547,0.010951996,0,
00:07.9,0.003376007,-0.005664825,0.010951996,0,
00:07.9,0.003370285,-0.005681992,0.010951996,0,
00:07.9,0.003364563,-0.005710602,0.010946274,0,
00:07.9,0.003358841,-0.005716324,0.010951996,0,
00:07.9,0.003364563,-0.005699158,0.010946274,0,
00:07.9,0.003370285,-0.005659103,0.010951996,0,
00:07.9,0.003370285,-0.005653381,0.010951996,0,
00:07.9,0.003370285,-0.005653381,0.010946274,0,
00:07.9,0.003364563,-0.005670547,0.01093483,0,
00:07.9,0.003364563,-0.005681992,0.010946274,0,
00:07.9,0.003364563,-0.005681992,0.010957718,0,
00:07.9,0.003358841,-0.00567627,0.01096344,0,
00:07.9,0.003353119,-0.005693436,0.01096344,0,
00:07.9,0.003353119,-0.005699158,0.010957718,0,
00:07.9,0.003353119,-0.005687714,0.010957718,0,
00:07.9,0.003353119,-0.005687714,0.010957718,0,
00:07.9,0.003347397,-0.005710602,0.010951996,0,
00:07.9,0.003335953,-0.005773544,0.010951996,0,
00:07.9,0.003330231,-0.005796432,0.010951996,0,
00:07.9,0.003335953,-0.005744934,0.010957718,0,
00:07.9,0.003347397,-0.005659103,0.01096344,0,
00:07.9,0.003358841,-0.005619049,0.010957718,0,
00:07.9,0.003358841,-0.005653381,0.010951996,0,
00:08.0,0.003347397,-0.005681992,0.01096344,0,
00:08.0,0.003347397,-0.00570488,0.010969162,0,
00:08.0,0.003341675,-0.00570488,0.01096344,0,
00:08.0,0.003335953,-0.005727768,0.01096344,0,
00:08.0,0.003324509,-0.005767822,0.010969162,0,
00:08.0,0.003330231,-0.005750656,0.010969162,0,
00:08.0,0.003341675,-0.005687714,0.01096344,0,
00:08.0,0.003347397,-0.005664825,0.010974884,0,
00:08.0,0.003341675,-0.005699158,0.010974884,0,
00:08.0,0.003335953,-0.00570488,0.010974884,0,
00:08.0,0.003335953,-0.00570488,0.010969162,0,
00:08.0,0.003330231,-0.00573349,0.01096344,0,
00:00:08,0.003324509,-0.005750656,0.010969162,0,
00:08.0,0.003324509,-0.005744934,0.010980606,0,
00:08.0,0.003324509,-0.005739212,0.010974884,0,
00:08.0,0.003324509,-0.005716324,0.010974884,0,
00:08.0,0.003330231,-0.005687714,0.010974884,0,
00:08.0,0.003324509,-0.005710602,0.010969162,0,
00:08.0,0.003318787,-0.005716324,0.010969162,0,
00:08.0,0.003324509,-0.005722046,0.010969162,0,
00:08.0,0.003318787,-0.005784988,0.010969162,0,
00:08.0,0.003307343,-0.005802155,0.010974884,0,
00:08.0,0.003318787,-0.00570488,0.010986328,0,
00:08.0,0.003330231,-0.005664825,0.010986328,0,
00:08.0,0.003324509,-0.005693436,0.010974884,0,
00:08.1,0.003318787,-0.005722046,0.010980606,0,
00:08.1,0.003313065,-0.005756378,0.010986328,0,
00:08.1,0.003307343,-0.005756378,0.010980606,0,
00:08.1,0.003307343,-0.005739212,0.010980606,0,
00:08.1,0.00330162,-0.005779266,0.010986328,0,
00:08.1,0.003290176,-0.005825043,0.010986328,0,
00:08.1,0.003307343,-0.005739212,0.010986328,0,
00:08.1,0.003318787,-0.005693436,0.010980606,0,
00:08.1,0.003313065,-0.005710602,0.010986328,0,
00:08.1,0.003307343,-0.00573349,0.010986328,0,
00:08.1,0.00330162,-0.005744934,0.010986328,0,
00:08.1,0.00330162,-0.005756378,0.010986328,0,
00:08.1,0.00330162,-0.005767822,0.010986328,0,
00:08.1,0.003295898,-0.005784988,0.010986328,0,
00:08.1,0.003278732,-0.005830765,0.010986328,0,
00:08.1,0.00327301,-0.005893707,0.010980606,0,
00:08.1,0.003278732,-0.005807877,0.010986328,0,
00:08.1,0.00330162,-0.00567627,0.01099205,0,
00:08.1,0.003307343,-0.005687714,0.010986328,0,
00:08.1,0.003295898,-0.005739212,0.010986328,0,
00:08.1,0.003290176,-0.005756378,0.010980606,0,
00:08.1,0.003290176,-0.005767822,0.010980606,0,
00:08.1,0.003290176,-0.0057621,0.010980606,0,
00:08.1,0.003290176,-0.0057621,0.010974884,0,
00:08.1,0.003284454,-0.005773544,0.010974884,0,
00:08.2,0.003284454,-0.00579071,0.010969162,0,
00:08.2,0.00327301,-0.005830765,0.010980606,0,
00:08.2,0.00327301,-0.005807877,0.01099205,0,
00:08.2,0.003278732,-0.0057621,0.010980606,0,
00:08.2,0.003267288,-0.005825043,0.010986328,0,
00:08.2,0.003261566,-0.005836487,0.010980606,0,
00:08.2,0.00327301,-0.005784988,0.010980606,0,
00:08.2,0.003284454,-0.005744934,0.010969162,0,
00:08.2,0.003284454,-0.005750656,0.010969162,0,
00:08.2,0.003278732,-0.005767822,0.010969162,0,
00:08.2,0.00327301,-0.00579071,0.010974884,0,
00:08.2,0.003267288,-0.005813599,0.010974884,0,
00:08.2,0.003261566,-0.005842209,0.010974884,0,
00:08.2,0.003250122,-0.005910873,0.010969162,0,
00:08.2,0.0032444,-0.005893707,0.010969162,0,
00:08.2,0.003267288,-0.005744934,0.010969162,0,
00:08.2,0.003290176,-0.005693436,0.010969162,0,
00:08.2,0.00327301,-0.005756378,0.01096344,0,
00:08.2,0.003267288,-0.00579071,0.01096344,0,
00:08.2,0.003255844,-0.005813599,0.01096344,0,
00:08.2,0.003255844,-0.005813599,0.010957718,0,
00:08.2,0.003255844,-0.005807877,0.01096344,0,
00:08.2,0.003255844,-0.005825043,0.010969162,0,
00:08.2,0.003250122,-0.005859375,0.01096344,0,
00:08.2,0.0032444,-0.005859375,0.010957718,0,
00:08.3,0.003250122,-0.005830765,0.010957718,0,
00:08.3,0.003255844,-0.005802155,0.010951996,0,
00:08.3,0.003261566,-0.00579071,0.010951996,0,
00:08.3,0.003255844,-0.005813599,0.010951996,0,
00:08.3,0.0032444,-0.005836487,0.010951996,0,
00:08.3,0.0032444,-0.005842209,0.010951996,0,
00:08.3,0.0032444,-0.005836487,0.010951996,0,
00:08.3,0.003238678,-0.005836487,0.010946274,0,
00:08.3,0.003238678,-0.005859375,0.010946274,0,
00:08.3,0.003221512,-0.005916595,0.010946274,0,
00:08.3,0.00321579,-0.005945206,0.010946274,0,
00:08.3,0.003221512,-0.005899429,0.010940552,0,
00:08.3,0.003238678,-0.005807877,0.010940552,0,
00:08.3,0.003250122,-0.005773544,0.01093483,0,
00:08.3,0.003250122,-0.005807877,0.01093483,0,
00:08.3,0.0032444,-0.005842209,0.010923386,0,
00:08.3,0.0032444,-0.005847931,0.010900497,0,
00:08.3,0.0032444,-0.005853653,0.010906219,0,
00:08.3,0.003227234,-0.005899429,0.01093483,0,
00:08.3,0.003210068,-0.005910873,0.01093483,0,
00:08.3,0.003221512,-0.005859375,0.010923386,0,
00:08.3,0.003227234,-0.005853653,0.010917664,0,
00:08.3,0.003227234,-0.005865097,0.010917664,0,
00:08.3,0.003221512,-0.005887985,0.010911942,0,
00:08.3,0.00321579,-0.005933762,0.010906219,0,
00:08.4,0.00321579,-0.00592804,0.010906219,0,
00:08.4,0.003227234,-0.005853653,0.010906219,0,
00:08.4,0.003227234,-0.005842209,0.010900497,0,
00:08.4,0.003221512,-0.005847931,0.010906219,0,
00:08.4,0.00321579,-0.005882263,0.010906219,0,
00:08.4,0.003210068,-0.005916595,0.010900497,0,
00:08.4,0.003210068,-0.005916595,0.010900497,0,
00:08.4,0.003210068,-0.005916595,0.010894775,0,
00:08.4,0.003210068,-0.005922318,0.010889053,0,
00:08.4,0.003210068,-0.005905151,0.010894775,0,
00:08.4,0.003221512,-0.005853653,0.010889053,0,
00:08.4,0.00321579,-0.005887985,0.010877609,0,
00:08.4,0.00321579,-0.005899429,0.010877609,0,
00:08.4,0.003210068,-0.005910873,0.010883331,0,
00:08.4,0.003204346,-0.005945206,0.010877609,0,
00:08.4,0.003204346,-0.005973816,0.010871887,0,
00:08.4,0.003204346,-0.005945206,0.010866165,0,
00:08.4,0.003210068,-0.005899429,0.010860443,0,
00:08.4,0.003210068,-0.005887985,0.010866165,0,
00:08.4,0.003210068,-0.005916595,0.010860443,0,
00:08.4,0.003204346,-0.005933762,0.010860443,0,
00:08.4,0.003210068,-0.005939484,0.010854721,0,
00:08.4,0.003210068,-0.00592804,0.010848999,0,
00:08.4,0.003204346,-0.005922318,0.010848999,0,
00:08.4,0.003204346,-0.005933762,0.010848999,0,
00:08.5,0.003198624,-0.005973816,0.010843277,0,
00:08.5,0.003198624,-0.005990982,0.010837555,0,
00:08.5,0.003204346,-0.00595665,0.010843277,0,
00:08.5,0.003198624,-0.005950928,0.010837555,0,
00:08.5,0.003192902,-0.005990982,0.010831833,0,
00:08.5,0.003192902,-0.005979538,0.010826111,0,
00:08.5,0.003198624,-0.005950928,0.010814667,0,
00:08.5,0.003198624,-0.005922318,0.010820389,0,
00:08.5,0.003198624,-0.005922318,0.010826111,0,
00:08.5,0.003198624,-0.005939484,0.010820389,0,
00:08.5,0.00318718,-0.005973816,0.010814667,0,
00:08.5,0.003181458,-0.006008148,0.010808945,0,
00:08.5,0.003181458,-0.006008148,0.010803223,0,
00:08.5,0.003192902,-0.005979538,0.010803223,0,
00:08.5,0.00318718,-0.005973816,0.010803223,0,
00:08.5,0.003192902,-0.005968094,0.010791779,0,
00:08.5,0.003192902,-0.005968094,0.010786057,0,
00:08.5,0.003192902,-0.005962372,0.010791779,0,
00:08.5,0.00318718,-0.005973816,0.010791779,0,
00:08.5,0.00318718,-0.005996704,0.010791779,0,
00:08.5,0.003181458,-0.006025314,0.010786057,0,
00:08.5,0.003175735,-0.00604248,0.01076889,0,
00:08.5,0.003181458,-0.006008148,0.010763168,0,
00:08.5,0.003181458,-0.00598526,0.010774612,0,
00:08.5,0.003181458,-0.00598526,0.01076889,0,
00:08.6,0.003181458,-0.006002426,0.01076889,0,
00:08.6,0.003181458,-0.005990982,0.010763168,0,
00:08.6,0.003181458,-0.005990982,0.010757446,0,
00:08.6,0.003181458,-0.006008148,0.010751724,0,
00:08.6,0.003175735,-0.006019592,0.010746002,0,
00:08.6,0.003175735,-0.006031036,0.01074028,0,
00:08.6,0.003164291,-0.006105423,0.01074028,0,
00:08.6,0.003152847,-0.006168365,0.010734558,0,
00:08.6,0.003164291,-0.006093979,0.010734558,0,
00:08.6,0.003181458,-0.005979538,0.010728836,0,
00:08.6,0.003198624,-0.005962372,0.010723114,0,
00:08.6,0.003192902,-0.005996704,0.01071167,0,
00:08.6,0.00318718,-0.005990982,0.01071167,0,
00:08.6,0.003175735,-0.006008148,0.010717392,0,
00:08.6,0.003175735,-0.006025314,0.010723114,0,
00:08.6,0.003170013,-0.00604248,0.010717392,0,
00:08.6,0.003170013,-0.00604248,0.01071167,0,
00:08.6,0.003170013,-0.00604248,0.010705948,0,
00:08.6,0.003170013,-0.006053925,0.010700226,0,
00:08.6,0.003164291,-0.006099701,0.010694504,0,
00:08.6,0.003147125,-0.006162643,0.010694504,0,
00:08.6,0.003152847,-0.006105423,0.010688782,0,
00:08.6,0.003170013,-0.006036758,0.01068306,0,
00:08.6,0.003181458,-0.00601387,0.010677338,0,
00:08.6,0.003181458,-0.006053925,0.010665894,0,
00:08.7,0.003175735,-0.006048203,0.010648727,0,
00:08.7,0.003175735,-0.006036758,0.010660172,0,
00:08.7,0.003175735,-0.006071091,0.01068306,0,
00:08.7,0.003170013,-0.006099701,0.010671616,0,
00:08.7,0.003164291,-0.006093979,0.010665894,0,
00:08.7,0.003164291,-0.006088257,0.010660172,0,
00:08.7,0.003164291,-0.006099701,0.010654449,0,
00:08.7,0.003164291,-0.006162643,0.010648727,0,
00:08.7,0.003164291,-0.006156921,0.010648727,0,
00:08.7,0.003170013,-0.006065369,0.010643005,0,
00:08.7,0.003170013,-0.006031036,0.010637283,0,
00:08.7,0.003170013,-0.006048203,0.010631561,0,
00:08.7,0.003170013,-0.006065369,0.010631561,0,
00:08.7,0.003175735,-0.006076813,0.010625839,0,
00:08.7,0.003175735,-0.006093979,0.010614395,0,
00:08.7,0.003175735,-0.006099701,0.010602951,0,
00:08.7,0.003164291,-0.006116867,0.010620117,0,
00:08.7,0.003158569,-0.006122589,0.010620117,0,
00:08.7,0.003158569,-0.006151199,0.010614395,0,
00:08.7,0.003152847,-0.006168365,0.010608673,0,
00:08.7,0.003164291,-0.006111145,0.010602951,0,
00:08.7,0.003170013,-0.006105423,0.010597229,0,
00:08.7,0.003175735,-0.006105423,0.010591507,0,
00:08.7,0.003170013,-0.006099701,0.010591507,0,
00:08.7,0.003170013,-0.006105423,0.010585785,0,
00:08.8,0.003170013,-0.006134033,0.010574341,0,
00:08.8,0.003158569,-0.006156921,0.010580063,0,
00:08.8,0.003158569,-0.006151199,0.010574341,0,
00:08.8,0.003158569,-0.006145477,0.010568619,0,
00:08.8,0.003152847,-0.006156921,0.010562897,0,
00:08.8,0.003152847,-0.006151199,0.010557175,0,
00:08.8,0.003152847,-0.006151199,0.010557175,0,
00:08.8,0.003158569,-0.006134033,0.010557175,0,
00:08.8,0.003164291,-0.006111145,0.010551453,0,
00:08.8,0.003164291,-0.006111145,0.010551453,0,
00:08.8,0.003158569,-0.006134033,0.010545731,0,
00:08.8,0.003158569,-0.006139755,0.010545731,0,
00:08.8,0.003158569,-0.006145477,0.010540009,0,
00:08.8,0.003170013,-0.006134033,0.010534286,0,
00:08.8,0.003164291,-0.006139755,0.010528564,0,
00:08.8,0.003152847,-0.00617981,0.010528564,0,
00:08.8,0.003152847,-0.006214142,0.010522842,0,
00:08.8,0.003158569,-0.006156921,0.010511398,0,
00:08.8,0.003164291,-0.006122589,0.010511398,0,
00:08.8,0.003158569,-0.006156921,0.010511398,0,
00:08.8,0.003152847,-0.00617981,0.010522842,0,
00:08.8,0.003152847,-0.006191254,0.01051712,0,
00:08.8,0.003164291,-0.006145477,0.010505676,0,
00:08.8,0.003164291,-0.006139755,0.010499954,0,
00:08.8,0.003158569,-0.006168365,0.010494232,0,
00:08.9,0.003158569,-0.00617981,0.010494232,0,
00:08.9,0.003158569,-0.00617981,0.010494232,0,
00:08.9,0.003158569,-0.006168365,0.010494232,0,
00:08.9,0.003164291,-0.006156921,0.010494232,0,
00:08.9,0.003158569,-0.006174088,0.01048851,0,
00:08.9,0.003158569,-0.006191254,0.010482788,0,
00:08.9,0.003158569,-0.006191254,0.010482788,0,
00:08.9,0.003158569,-0.006185532,0.010471344,0,
00:08.9,0.003164291,-0.006162643,0.010471344,0,
00:08.9,0.003164291,-0.006162643,0.010471344,0,
00:08.9,0.003158569,-0.006168365,0.010471344,0,
00:08.9,0.003152847,-0.006196976,0.010465622,0,
00:08.9,0.003147125,-0.006219864,0.010465622,0,
00:08.9,0.003152847,-0.006196976,0.010465622,0,
00:08.9,0.003158569,-0.006162643,0.0104599,0,
00:08.9,0.003158569,-0.006162643,0.0104599,0,
00:08.9,0.003158569,-0.006185532,0.010454178,0,
00:08.9,0.003158569,-0.00617981,0.010448456,0,
00:08.9,0.003152847,-0.00617981,0.010442734,0,
00:08.9,0.003152847,-0.00620842,0.010448456,0,
00:08.9,0.003147125,-0.006248474,0.010448456,0,
00:08.9,0.003147125,-0.00623703,0.010442734,0,
00:08.9,0.003158569,-0.006174088,0.010442734,0,
00:08.9,0.003158569,-0.006156921,0.010437012,0,
00:08.9,0.003164291,-0.006156921,0.01043129,0,
00:09.0,0.003158569,-0.006168365,0.010437012,0,
00:09.0,0.003152847,-0.006191254,0.010425568,0,
00:09.0,0.003147125,-0.00623703,0.010419846,0,
00:09.0,0.003135681,-0.006259918,0.010419846,0,
00:09.0,0.003147125,-0.006202698,0.010425568,0,
00:09.0,0.003164291,-0.006162643,0.010419846,0,
00:09.0,0.003164291,-0.006174088,0.010414124,0,
00:09.0,0.003158569,-0.006191254,0.010414124,0,
00:09.0,0.003152847,-0.006214142,0.010408401,0,
00:09.0,0.003147125,-0.006225586,0.010408401,0,
00:09.0,0.003147125,-0.006231308,0.010408401,0,
00:09.0,0.003147125,-0.006248474,0.010402679,0,
00:00:09,0.003147125,-0.00623703,0.010396957,0,
00:09.0,0.003158569,-0.006168365,0.010385513,0,
00:09.0,0.003164291,-0.006156921,0.010391235,0,
00:09.0,0.003164291,-0.006191254,0.010408401,0,
00:09.0,0.003152847,-0.006219864,0.010396957,0,
00:09.0,0.003152847,-0.006219864,0.010391235,0,
00:09.0,0.003158569,-0.00620842,0.010385513,0,
00:09.0,0.003158569,-0.006191254,0.010385513,0,
00:09.0,0.003158569,-0.00620842,0.010385513,0,
00:09.0,0.003152847,-0.006242752,0.010385513,0,
00:09.0,0.003152847,-0.006225586,0.010385513,0,
00:09.0,0.003152847,-0.006202698,0.010385513,0,
00:09.0,0.003158569,-0.006185532,0.010385513,0,
00:09.1,0.003158569,-0.00620842,0.010374069,0,
00:09.1,0.003158569,-0.006225586,0.010374069,0,
00:09.1,0.003152847,-0.006214142,0.010379791,0,
00:09.1,0.003158569,-0.006191254,0.010379791,0,
00:09.1,0.003158569,-0.006196976,0.010374069,0,
00:09.1,0.003158569,-0.00620842,0.010374069,0,
00:09.1,0.003152847,-0.006242752,0.010374069,0,
00:09.1,0.003147125,-0.006271362,0.010374069,0,
00:09.1,0.003147125,-0.006248474,0.010368347,0,
00:09.1,0.003158569,-0.006191254,0.010362625,0,
00:09.1,0.003164291,-0.006168365,0.010356903,0,
00:09.1,0.003158569,-0.006196976,0.010356903,0,
00:09.1,0.003152847,-0.00623703,0.010351181,0,
00:09.1,0.003147125,-0.006248474,0.010351181,0,
00:09.1,0.003152847,-0.006219864,0.010351181,0,
00:09.1,0.003152847,-0.006196976,0.010368347,0,
00:09.1,0.003152847,-0.006225586,0.010356903,0,
00:09.1,0.003141403,-0.006282806,0.010351181,0,
00:09.1,0.003135681,-0.006305695,0.010351181,0,
00:09.1,0.003141403,-0.00623703,0.010351181,0,
00:09.1,0.003158569,-0.006145477,0.010345459,0,
00:09.1,0.003164291,-0.006156921,0.010345459,0,
00:09.1,0.003152847,-0.006191254,0.010339737,0,
00:09.1,0.003152847,-0.006214142,0.010339737,0,
00:09.1,0.003147125,-0.006214142,0.010339737,0,
00:09.2,0.003147125,-0.006219864,0.010339737,0,
00:09.2,0.003147125,-0.006242752,0.010334015,0,
00:09.2,0.003147125,-0.006225586,0.010328293,0,
00:09.2,0.003147125,-0.006202698,0.010339737,0,
00:09.2,0.003152847,-0.00620842,0.010345459,0,
00:09.2,0.003152847,-0.006231308,0.010339737,0,
00:09.2,0.003141403,-0.006259918,0.010334015,0,
00:09.2,0.003147125,-0.006248474,0.010334015,0,
00:09.2,0.003152847,-0.006202698,0.010334015,0,
00:09.2,0.003158569,-0.006196976,0.010328293,0,
00:09.2,0.003152847,-0.006202698,0.010322571,0,
00:09.2,0.003152847,-0.00620842,0.010322571,0,
00:09.2,0.003147125,-0.006225586,0.010322571,0,
00:09.2,0.003135681,-0.006254196,0.010322571,0,
00:09.2,0.003135681,-0.006254196,0.010322571,0,
00:09.2,0.003141403,-0.00623703,0.010322571,0,
00:09.2,0.003141403,-0.006231308,0.010322571,0,
00:09.2,0.003141403,-0.006225586,0.010322571,0,
00:09.2,0.003141403,-0.006219864,0.010322571,0,
00:09.2,0.003147125,-0.006191254,0.010322571,0,
00:09.2,0.003147125,-0.006202698,0.010322571,0,
00:09.2,0.003141403,-0.006219864,0.010316849,0,
00:09.2,0.003141403,-0.006231308,0.010305405,0,
00:09.2,0.003129959,-0.006259918,0.010311127,0,
00:09.2,0.003135681,-0.006254196,0.010328293,0,
00:09.3,0.003147125,-0.006202698,0.010316849,0,
00:09.3,0.003152847,-0.006185532,0.010316849,0,
00:09.3,0.003141403,-0.006231308,0.010322571,0,
00:09.3,0.003129959,-0.006242752,0.010322571,0,
00:09.3,0.003141403,-0.006231308,0.010316849,0,
00:09.3,0.003152847,-0.006191254,0.010316849,0,
00:09.3,0.003158569,-0.006174088,0.010316849,0,
00:09.3,0.003147125,-0.006219864,0.010311127,0,
00:09.3,0.003152847,-0.006214142,0.010305405,0,
00:09.3,0.003152847,-0.00620842,0.010316849,0,
00:09.3,0.003147125,-0.006219864,0.010316849,0,
00:09.3,0.003141403,-0.00623703,0.010316849,0,
00:09.3,0.003141403,-0.006225586,0.010316849,0,
00:09.3,0.003147125,-0.006196976,0.010316849,0,
00:09.3,0.003141403,-0.006225586,0.010311127,0,
00:09.3,0.003135681,-0.006254196,0.010305405,0,
00:09.3,0.003141403,-0.006225586,0.010316849,0,
00:09.3,0.003152847,-0.00617981,0.010316849,0,
00:09.3,0.003152847,-0.006185532,0.010311127,0,
00:09.3,0.003147125,-0.00620842,0.010305405,0,
00:09.3,0.003141403,-0.00620842,0.010305405,0,
00:09.3,0.003141403,-0.006202698,0.010311127,0,
00:09.3,0.003141403,-0.006225586,0.010311127,0,
00:09.3,0.003141403,-0.006231308,0.010305405,0,
00:09.3,0.003141403,-0.006231308,0.010305405,0,
00:09.4,0.003141403,-0.006214142,0.010299683,0,
00:09.4,0.003147125,-0.006185532,0.010305405,0,
00:09.4,0.003147125,-0.00620842,0.010305405,0,
00:09.4,0.003135681,-0.006271362,0.010311127,0,
00:09.4,0.003118515,-0.006299973,0.010311127,0,
00:09.4,0.003129959,-0.006248474,0.010311127,0,
00:09.4,0.003152847,-0.00617981,0.010305405,0,
00:09.4,0.003170013,-0.006128311,0.010293961,0,
00:09.4,0.003158569,-0.006151199,0.010299683,0,
00:09.4,0.003147125,-0.006191254,0.010316849,0,
00:09.4,0.003147125,-0.006202698,0.010316849,0,
00:09.4,0.003141403,-0.006196976,0.010311127,0,
00:09.4,0.003141403,-0.006202698,0.010305405,0,
00:09.4,0.003147125,-0.006202698,0.010305405,0,
00:09.4,0.003147125,-0.006202698,0.010305405,0,
00:09.4,0.003141403,-0.006225586,0.010305405,0,
00:09.4,0.003129959,-0.006305695,0.010311127,0,
00:09.4,0.003124237,-0.00629425,0.010311127,0,
00:09.4,0.003147125,-0.006162643,0.010311127,0,
00:09.4,0.003158569,-0.006128311,0.010299683,0,
00:09.4,0.003158569,-0.006145477,0.010305405,0,
00:09.4,0.003147125,-0.006191254,0.010311127,0,
00:09.4,0.003141403,-0.00620842,0.010305405,0,
00:09.4,0.003141403,-0.006202698,0.010305405,0,
00:09.4,0.003141403,-0.006191254,0.010316849,0,
00:09.5,0.003147125,-0.006196976,0.010316849,0,
00:09.5,0.003141403,-0.006196976,0.010311127,0,
00:09.5,0.003147125,-0.006202698,0.010311127,0,
00:09.5,0.003147125,-0.006202698,0.010305405,0,
00:09.5,0.003141403,-0.006214142,0.010305405,0,
00:09.5,0.003129959,-0.00629425,0.010311127,0,
00:09.5,0.003118515,-0.006322861,0.010311127,0,
00:09.5,0.003135681,-0.006219864,0.010305405,0,
00:09.5,0.003158569,-0.006122589,0.010299683,0,
00:09.5,0.003164291,-0.006122589,0.010305405,0,
00:09.5,0.003158569,-0.006134033,0.010305405,0,
00:09.5,0.003158569,-0.006156921,0.010305405,0,
00:09.5,0.003152847,-0.00617981,0.010299683,0,
00:09.5,0.003141403,-0.006185532,0.010299683,0,
00:09.5,0.003135681,-0.006191254,0.010311127,0,
00:09.5,0.003147125,-0.006174088,0.010316849,0,
00:09.5,0.003147125,-0.006174088,0.010316849,0,
00:09.5,0.003141403,-0.006185532,0.010311127,0,
00:09.5,0.003141403,-0.006191254,0.010311127,0,
00:09.5,0.003147125,-0.006202698,0.010311127,0,
00:09.5,0.003141403,-0.006225586,0.010311127,0,
00:09.5,0.003124237,-0.006305695,0.010311127,0,
00:09.5,0.003118515,-0.006305695,0.010311127,0,
00:09.5,0.003141403,-0.00617981,0.010305405,0,
00:09.5,0.003164291,-0.006082535,0.010305405,0,
00:09.6,0.003164291,-0.006093979,0.010305405,0,
00:09.6,0.003152847,-0.006134033,0.010305405,0,
00:09.6,0.003147125,-0.006162643,0.010305405,0,
00:09.6,0.003147125,-0.006174088,0.010299683,0,
00:09.6,0.003152847,-0.006168365,0.010305405,0,
00:09.6,0.003147125,-0.006174088,0.010311127,0,
00:09.6,0.003141403,-0.006185532,0.010311127,0,
00:09.6,0.003129959,-0.006242752,0.010305405,0,
00:09.6,0.003124237,-0.006231308,0.010305405,0,
00:09.6,0.003135681,-0.006174088,0.010311127,0,
00:09.6,0.003152847,-0.006128311,0.010311127,0,
00:09.6,0.003158569,-0.006128311,0.010316849,0,
00:09.6,0.003152847,-0.006139755,0.010311127,0,
00:09.6,0.003147125,-0.006151199,0.010305405,0,
00:09.6,0.003147125,-0.006151199,0.010305405,0,
00:09.6,0.003141403,-0.006168365,0.010311127,0,
00:09.6,0.003141403,-0.00617981,0.010316849,0,
00:09.6,0.003141403,-0.006185532,0.010322571,0,
00:09.6,0.003141403,-0.006174088,0.010322571,0,
00:09.6,0.003147125,-0.00617981,0.010316849,0,
00:09.6,0.003141403,-0.00617981,0.010322571,0,
00:09.6,0.003135681,-0.006191254,0.010322571,0,
00:09.6,0.003147125,-0.006162643,0.010316849,0,
00:09.6,0.003152847,-0.006128311,0.010316849,0,
00:09.6,0.003152847,-0.006122589,0.010328293,0,
00:09.7,0.003147125,-0.006139755,0.010322571,0,
00:09.7,0.003147125,-0.006162643,0.010316849,0,
00:09.7,0.003141403,-0.006196976,0.010316849,0,
00:09.7,0.003129959,-0.006225586,0.010316849,0,
00:09.7,0.003141403,-0.006145477,0.010322571,0,
00:09.7,0.003152847,-0.006116867,0.010322571,0,
00:09.7,0.003147125,-0.006145477,0.010322571,0,
00:09.7,0.003147125,-0.006156921,0.010328293,0,
00:09.7,0.003147125,-0.006156921,0.010328293,0,
00:09.7,0.003152847,-0.006116867,0.010328293,0,
00:09.7,0.003158569,-0.006122589,0.010328293,0,
00:09.7,0.003147125,-0.006162643,0.010328293,0,
00:09.7,0.003147125,-0.006151199,0.010328293,0,
00:09.7,0.003152847,-0.006134033,0.010328293,0,
00:09.7,0.003152847,-0.006134033,0.010328293,0,
00:09.7,0.003147125,-0.006145477,0.010328293,0,
00:09.7,0.003141403,-0.006168365,0.010328293,0,
00:09.7,0.003135681,-0.006196976,0.010328293,0,
00:09.7,0.003135681,-0.006168365,0.010328293,0,
00:09.7,0.003152847,-0.006111145,0.010328293,0,
00:09.7,0.003158569,-0.006105423,0.010322571,0,
00:09.7,0.003158569,-0.006099701,0.010328293,0,
00:09.7,0.003158569,-0.006122589,0.010328293,0,
00:09.7,0.003152847,-0.006151199,0.010322571,0,
00:09.7,0.003152847,-0.006151199,0.010322571,0,
00:09.8,0.003152847,-0.006139755,0.010334015,0,
00:09.8,0.003147125,-0.006122589,0.010339737,0,
00:09.8,0.003147125,-0.006116867,0.010345459,0,
00:09.8,0.003152847,-0.006122589,0.010351181,0,
00:09.8,0.003147125,-0.006139755,0.010339737,0,
00:09.8,0.003152847,-0.006168365,0.010339737,0,
00:09.8,0.003147125,-0.006168365,0.010339737,0,
00:09.8,0.003141403,-0.006122589,0.010339737,0,
00:09.8,0.003152847,-0.006099701,0.010345459,0,
00:09.8,0.003158569,-0.006116867,0.010345459,0,
00:09.8,0.003152847,-0.006134033,0.010345459,0,
00:09.8,0.003147125,-0.006134033,0.010345459,0,
00:09.8,0.003152847,-0.006134033,0.010351181,0,
00:09.8,0.003152847,-0.006128311,0.010345459,0,
00:09.8,0.003152847,-0.006128311,0.010345459,0,
00:09.8,0.003147125,-0.006139755,0.010351181,0,
00:09.8,0.003135681,-0.006156921,0.010356903,0,
00:09.8,0.003135681,-0.006191254,0.010351181,0,
00:09.8,0.003147125,-0.006151199,0.010351181,0,
00:09.8,0.003164291,-0.00604248,0.010356903,0,
00:09.8,0.003170013,-0.006048203,0.010356903,0,
00:09.8,0.003164291,-0.006082535,0.010356903,0,
00:09.8,0.003158569,-0.006099701,0.010356903,0,
00:09.8,0.003158569,-0.006111145,0.010356903,0,
00:09.8,0.003152847,-0.006116867,0.010362625,0,
00:09.9,0.003152847,-0.006122589,0.010362625,0,
00:09.9,0.003147125,-0.006156921,0.010362625,0,
00:09.9,0.003135681,-0.006219864,0.010356903,0,
00:09.9,0.003135681,-0.006174088,0.010356903,0,
00:09.9,0.003158569,-0.006048203,0.010362625,0,
00:09.9,0.003164291,-0.006053925,0.010368347,0,
00:09.9,0.003170013,-0.006059647,0.010368347,0,
00:09.9,0.003158569,-0.006082535,0.010368347,0,
00:09.9,0.003158569,-0.006093979,0.010362625,0,
00:09.9,0.003152847,-0.006099701,0.010379791,0,
00:09.9,0.003152847,-0.006099701,0.010379791,0,
00:09.9,0.003152847,-0.006111145,0.010374069,0,
00:09.9,0.003147125,-0.006111145,0.010374069,0,
00:09.9,0.003147125,-0.006116867,0.010374069,0,
00:09.9,0.003147125,-0.006151199,0.010374069,0,
00:09.9,0.003141403,-0.006168365,0.010374069,0,
00:09.9,0.003152847,-0.006116867,0.010374069,0,
00:09.9,0.003164291,-0.006076813,0.010362625,0,
00:09.9,0.003164291,-0.006071091,0.010379791,0,
00:09.9,0.003158569,-0.006065369,0.010385513,0,
00:09.9,0.003158569,-0.006065369,0.010379791,0,
00:09.9,0.003152847,-0.006082535,0.010385513,0,
00:09.9,0.003152847,-0.006082535,0.010385513,0,
00:09.9,0.003158569,-0.006076813,0.010391235,0,
00:09.9,0.003158569,-0.006076813,0.010391235,0,
00:10.0,0.003158569,-0.006082535,0.010391235,0,
00:10.0,0.003152847,-0.006139755,0.010391235,0,
00:10.0,0.003129959,-0.00623703,0.010391235,0,
00:10.0,0.003135681,-0.006151199,0.010391235,0,
00:10.0,0.003158569,-0.006031036,0.010391235,0,
00:10.0,0.003175735,-0.006008148,0.010385513,0,
00:10.0,0.003175735,-0.00601387,0.010385513,0,
00:10.0,0.003164291,-0.006048203,0.010391235,0,
00:10.0,0.003158569,-0.006065369,0.010396957,0,
00:10.0,0.003158569,-0.006082535,0.010402679,0,
00:10.0,0.003152847,-0.006088257,0.010402679,0,
00:10.0,0.003158569,-0.006088257,0.010396957,0,
00:00:10,0.003152847,-0.006111145,0.010396957,0,
00:10.0,0.003147125,-0.006139755,0.010396957,0,
00:10.0,0.003147125,-0.006105423,0.010402679,0,
00:10.0,0.003158569,-0.006053925,0.010396957,0,
00:10.0,0.003164291,-0.00604248,0.010402679,0,
00:10.0,0.003164291,-0.006059647,0.010402679,0,
00:10.0,0.003164291,-0.006071091,0.010402679,0,
00:10.0,0.003164291,-0.006053925,0.010402679,0,
00:10.0,0.003164291,-0.006048203,0.010408401,0,
00:10.0,0.003158569,-0.006065369,0.010414124,0,
00:10.0,0.003147125,-0.006099701,0.010414124,0,
00:10.0,0.003135681,-0.006156921,0.010414124,0,
00:10.0,0.003141403,-0.006122589,0.010414124,0,
00:10.1,0.003164291,-0.006036758,0.010414124,0,
00:10.1,0.003181458,-0.006002426,0.010414124,0,
