Elapsed_Time,EMG1,EMG2,EMG3,BioRadio Event,Unnamed: 5
00:00:00,0.002569199,-0.005487442,0.007478714,0,
00:00.0,0.002569199,-0.00548172,0.007450104,0,
00:00.0,0.002557755,-0.00548172,0.007541656,0,
00:00.0,0.002557755,-0.00548172,0.007535934,0,
00:00.0,0.002563477,-0.005487442,0.00749588,0,
00:00.0,0.002557755,-0.005498886,0.007478714,0,
00:00.0,0.002569199,-0.005493164,0.007478714,0,
00:00.0,0.002574921,-0.005504608,0.007455826,0,
00:00.0,0.00254631,-0.005516052,0.007484436,0,
00:00.0,0.002483368,-0.005561829,0.007581711,0,
00:00.0,0.002500534,-0.005590439,0.007564545,0,
00:00.0,0.002597809,-0.005504608,0.007432938,0,
00:00.0,0.002592087,-0.0054245,0.007398605,0,
00:00.1,0.002586365,-0.005418777,0.007450104,0,
00:00.1,0.002563477,-0.005464554,0.007501602,0,
00:00.1,0.002574921,-0.005487442,0.007513046,0,
00:00.1,0.002569199,-0.005504608,0.007518768,0,
00:00.1,0.002569199,-0.00551033,0.007513046,0,
00:00.1,0.002569199,-0.005504608,0.007501602,0,
00:00.1,0.002574921,-0.005487442,0.007484436,0,
00:00.1,0.002580643,-0.005521774,0.007444382,0,
00:00.1,0.002614975,-0.005464554,0.007461548,0,
00:00.1,0.002592087,-0.005384445,0.00746727,0,
00:00.1,0.002557755,-0.005521774,0.007513046,0,
00:00.1,0.002580643,-0.005487442,0.007541656,0,
00:00.1,0.002563477,-0.005516052,0.007501602,0,
00:00.1,0.002580643,-0.00551033,0.007501602,0,
00:00.1,0.002569199,-0.005521774,0.007501602,0,
00:00.1,0.002552032,-0.005527496,0.00752449,0,
00:00.1,0.002569199,-0.005487442,0.007547379,0,
00:00.1,0.002540588,-0.00548172,0.007581711,0,
00:00.1,0.002500534,-0.005527496,0.007593155,0,
00:00.1,0.002586365,-0.00553894,0.007541656,0,
00:00.1,0.002614975,-0.005493164,0.007472992,0,
00:00.1,0.002592087,-0.005470276,0.007455826,0,
00:00.1,0.002557755,-0.005487442,0.007484436,0,
00:00.1,0.002586365,-0.00548172,0.007501602,0,
00:00.1,0.002603531,-0.005458832,0.007518768,0,
00:00.2,0.002580643,-0.005475998,0.00749588,0,
00:00.2,0.002574921,-0.00551033,0.007507324,0,
00:00.2,0.002574921,-0.00548172,0.007518768,0,
00:00.2,0.002580643,-0.005475998,0.007518768,0,
00:00.2,0.002592087,-0.005458832,0.007507324,0,
00:00.2,0.002580643,-0.005447388,0.007501602,0,
00:00.2,0.002580643,-0.005464554,0.007507324,0,
00:00.2,0.002586365,-0.005475998,0.00749588,0,
00:00.2,0.002569199,-0.005504608,0.007518768,0,
00:00.2,0.002552032,-0.005556107,0.007541656,0,
00:00.2,0.002586365,-0.00551033,0.007530212,0,
00:00.2,0.002574921,-0.005435944,0.007518768,0,
00:00.2,0.002563477,-0.005464554,0.007541656,0,
00:00.2,0.002586365,-0.005458832,0.007535934,0,
00:00.2,0.002574921,-0.005464554,0.00752449,0,
00:00.2,0.002557755,-0.005470276,0.00752449,0,
00:00.2,0.00254631,-0.00548172,0.007575989,0,
00:00.2,0.002574921,-0.005475998,0.007581711,0,
00:00.2,0.002603531,-0.005458832,0.007472992,0,
00:00.2,0.002569199,-0.005475998,0.007484436,0,
00:00.2,0.002569199,-0.005516052,0.007484436,0,
00:00.2,0.002586365,-0.005493164,0.007530212,0,
00:00.2,0.002603531,-0.005418777,0.007558823,0,
00:00.2,0.002597809,-0.005413055,0.007547379,0,
00:00.2,0.002580643,-0.005470276,0.00749588,0,
00:00.3,0.002586365,-0.005447388,0.007513046,0,
00:00.3,0.002563477,-0.00548172,0.007553101,0,
00:00.3,0.002580643,-0.005470276,0.007553101,0,
00:00.3,0.002580643,-0.005470276,0.007535934,0,
00:00.3,0.002592087,-0.005464554,0.007513046,0,
00:00.3,0.002592087,-0.00545311,0.007535934,0,
00:00.3,0.002563477,-0.00548172,0.007547379,0,
00:00.3,0.002569199,-0.005498886,0.007541656,0,
00:00.3,0.002603531,-0.005441666,0.007530212,0,
00:00.3,0.002597809,-0.005441666,0.007535934,0,
00:00.3,0.002540588,-0.00551033,0.00752449,0,
00:00.3,0.002563477,-0.00548172,0.007547379,0,
00:00.3,0.002574921,-0.005435944,0.007570267,0,
00:00.3,0.002580643,-0.005458832,0.007558823,0,
00:00.3,0.002569199,-0.005464554,0.007541656,0,
00:00.3,0.002580643,-0.00545311,0.007587433,0,
00:00.3,0.002597809,-0.005458832,0.007535934,0,
00:00.3,0.002592087,-0.005447388,0.00749588,0,
00:00.3,0.002603531,-0.005401611,0.007484436,0,
00:00.3,0.002557755,-0.005418777,0.007507324,0,
00:00.3,0.002540588,-0.005487442,0.007575989,0,
00:00.3,0.002603531,-0.00548172,0.007598877,0,
00:00.3,0.002592087,-0.005441666,0.007535934,0,
00:00.3,0.002592087,-0.005390167,0.007513046,0,
00:00.3,0.002580643,-0.005441666,0.007541656,0,
00:00.4,0.002586365,-0.005458832,0.007564545,0,
00:00.4,0.002592087,-0.005441666,0.007547379,0,
00:00.4,0.002586365,-0.005458832,0.007547379,0,
00:00.4,0.002574921,-0.005475998,0.007553101,0,
00:00.4,0.002597809,-0.005435944,0.007518768,0,
00:00.4,0.002597809,-0.005413055,0.007513046,0,
00:00.4,0.002569199,-0.005441666,0.007570267,0,
00:00.4,0.002563477,-0.005470276,0.007593155,0,
00:00.4,0.002580643,-0.005475998,0.007553101,0,
00:00.4,0.002580643,-0.005435944,0.00752449,0,
00:00.4,0.002557755,-0.00545311,0.007564545,0,
00:00.4,0.002574921,-0.00545311,0.007610321,0,
00:00.4,0.002580643,-0.005441666,0.007598877,0,
00:00.4,0.002552032,-0.00545311,0.007581711,0,
00:00.4,0.00254631,-0.00545311,0.007598877,0,
00:00.4,0.002580643,-0.00545311,0.007547379,0,
00:00.4,0.002609253,-0.005447388,0.007478714,0,
00:00.4,0.002609253,-0.005441666,0.007490158,0,
00:00.4,0.002603531,-0.005435944,0.00752449,0,
00:00.4,0.002552032,-0.00548172,0.007581711,0,
00:00.4,0.00254631,-0.005464554,0.007593155,0,
00:00.4,0.002597809,-0.005401611,0.007501602,0,
00:00.4,0.002597809,-0.005418777,0.007541656,0,
00:00.4,0.002597809,-0.005430222,0.007530212,0,
00:00.4,0.002586365,-0.005441666,0.007558823,0,
00:00.5,0.002580643,-0.005441666,0.007598877,0,
00:00.5,0.002586365,-0.005430222,0.007558823,0,
00:00.5,0.002609253,-0.005401611,0.007530212,0,
00:00.5,0.002586365,-0.005441666,0.007553101,0,
00:00.5,0.002586365,-0.005441666,0.007564545,0,
00:00.5,0.002580643,-0.005441666,0.007570267,0,
00:00.5,0.002580643,-0.005441666,0.007570267,0,
00:00.5,0.002574921,-0.005475998,0.007581711,0,
00:00.5,0.002580643,-0.005498886,0.007570267,0,
00:00.5,0.002586365,-0.005475998,0.007547379,0,
00:00.5,0.002592087,-0.005418777,0.007558823,0,
00:00.5,0.002603531,-0.005384445,0.007564545,0,
00:00.5,0.002592087,-0.005384445,0.007581711,0,
00:00.5,0.002569199,-0.0054245,0.007593155,0,
00:00.5,0.002574921,-0.005447388,0.007547379,0,
00:00.5,0.002614975,-0.005447388,0.007553101,0,
00:00.5,0.002569199,-0.005487442,0.007598877,0,
00:00.5,0.002586365,-0.005447388,0.007553101,0,
00:00.5,0.002592087,-0.005390167,0.00752449,0,
00:00.5,0.002597809,-0.005407333,0.007553101,0,
00:00.5,0.002592087,-0.005430222,0.007575989,0,
00:00.5,0.002597809,-0.005447388,0.007558823,0,
00:00.5,0.002580643,-0.005458832,0.007564545,0,
00:00.5,0.002574921,-0.005475998,0.007575989,0,
00:00.5,0.002586365,-0.005470276,0.007564545,0,
00:00.6,0.002597809,-0.0054245,0.007570267,0,
00:00.6,0.002597809,-0.005418777,0.007564545,0,
00:00.6,0.002592087,-0.005430222,0.007535934,0,
00:00.6,0.002597809,-0.005401611,0.007587433,0,
00:00.6,0.002586365,-0.005435944,0.007593155,0,
00:00.6,0.002586365,-0.00545311,0.007598877,0,
00:00.6,0.002592087,-0.005464554,0.007575989,0,
00:00.6,0.002586365,-0.005464554,0.007581711,0,
00:00.6,0.002580643,-0.005418777,0.007593155,0,
00:00.6,0.002580643,-0.005418777,0.007604599,0,
00:00.6,0.002563477,-0.005430222,0.007581711,0,
00:00.6,0.002609253,-0.005418777,0.007587433,0,
00:00.6,0.002626419,-0.005435944,0.007547379,0,
00:00.6,0.002580643,-0.005430222,0.007575989,0,
00:00.6,0.002580643,-0.005447388,0.007570267,0,
00:00.6,0.002597809,-0.005447388,0.007553101,0,
00:00.6,0.002603531,-0.005407333,0.007553101,0,
00:00.6,0.002609253,-0.005401611,0.007575989,0,
00:00.6,0.002574921,-0.0054245,0.007604599,0,
00:00.6,0.002557755,-0.005470276,0.007581711,0,
00:00.6,0.002603531,-0.005435944,0.007558823,0,
00:00.6,0.002620697,-0.005395889,0.007570267,0,
00:00.6,0.002603531,-0.005418777,0.007587433,0,
00:00.6,0.002586365,-0.005435944,0.007593155,0,
00:00.6,0.002592087,-0.0054245,0.007581711,0,
00:00.7,0.002603531,-0.005413055,0.007564545,0,
00:00.7,0.002580643,-0.005475998,0.007593155,0,
00:00.7,0.002586365,-0.00545311,0.007570267,0,
00:00.7,0.002603531,-0.0054245,0.007598877,0,
00:00.7,0.002592087,-0.005435944,0.007593155,0,
00:00.7,0.002597809,-0.005413055,0.007558823,0,
00:00.7,0.002592087,-0.005395889,0.007581711,0,
00:00.7,0.002574921,-0.005407333,0.007610321,0,
00:00.7,0.002597809,-0.005435944,0.007650375,0,
00:00.7,0.002592087,-0.005413055,0.007570267,0,
00:00.7,0.002552032,-0.005401611,0.007541656,0,
00:00.7,0.002569199,-0.005430222,0.007575989,0,
00:00.7,0.002626419,-0.005441666,0.007616043,0,
00:00.7,0.002614975,-0.00545311,0.007541656,0,
00:00.7,0.002597809,-0.00545311,0.007541656,0,
00:00.7,0.002597809,-0.005413055,0.007598877,0,
00:00.7,0.002597809,-0.005390167,0.007598877,0,
00:00.7,0.002609253,-0.005401611,0.007581711,0,
00:00.7,0.002620697,-0.005395889,0.007575989,0,
00:00.7,0.002626419,-0.005407333,0.007564545,0,
00:00.7,0.002620697,-0.005390167,0.007558823,0,
00:00.7,0.002586365,-0.005407333,0.007558823,0,
00:00.7,0.002580643,-0.005487442,0.007598877,0,
00:00.7,0.002603531,-0.005418777,0.007610321,0,
00:00.7,0.002620697,-0.005361557,0.007575989,0,
00:00.8,0.002592087,-0.005407333,0.007570267,0,
00:00.8,0.002592087,-0.005418777,0.007598877,0,
00:00.8,0.002603531,-0.005447388,0.007598877,0,
00:00.8,0.002609253,-0.005435944,0.007587433,0,
00:00.8,0.002614975,-0.005407333,0.007587433,0,
00:00.8,0.002580643,-0.005430222,0.007593155,0,
00:00.8,0.002580643,-0.0054245,0.007633209,0,
00:00.8,0.002552032,-0.005413055,0.007644653,0,
00:00.8,0.002603531,-0.005441666,0.007610321,0,
00:00.8,0.002609253,-0.005430222,0.007558823,0,
00:00.8,0.002592087,-0.005407333,0.007593155,0,
00:00.8,0.002614975,-0.0054245,0.007598877,0,
00:00.8,0.002614975,-0.005401611,0.007530212,0,
00:00.8,0.002603531,-0.005373001,0.007558823,0,
00:00.8,0.002603531,-0.005418777,0.007558823,0,
00:00.8,0.002620697,-0.005418777,0.007558823,0,
00:00.8,0.002614975,-0.005350113,0.007633209,0,
00:00.8,0.002614975,-0.005355835,0.007598877,0,
00:00.8,0.002603531,-0.005435944,0.007575989,0,
00:00.8,0.002592087,-0.005447388,0.007616043,0,
00:00.8,0.002592087,-0.00545311,0.007587433,0,
00:00.8,0.002609253,-0.005441666,0.007570267,0,
00:00.8,0.002609253,-0.005361557,0.007570267,0,
00:00.8,0.002626419,-0.005344391,0.007604599,0,
00:00.8,0.002580643,-0.005413055,0.007650375,0,
00:00.9,0.002563477,-0.005447388,0.007644653,0,
00:00.9,0.002609253,-0.005435944,0.007581711,0,
00:00.9,0.002620697,-0.005395889,0.007581711,0,
00:00.9,0.002614975,-0.005407333,0.007581711,0,
00:00.9,0.002592087,-0.005435944,0.007598877,0,
00:00.9,0.002580643,-0.005447388,0.007598877,0,
00:00.9,0.002597809,-0.005390167,0.007621765,0,
00:00.9,0.002620697,-0.005367279,0.007564545,0,
00:00.9,0.002603531,-0.005378723,0.007558823,0,
00:00.9,0.002592087,-0.005390167,0.007633209,0,
00:00.9,0.002597809,-0.005378723,0.007650375,0,
00:00.9,0.002655029,-0.005395889,0.007593155,0,
00:00.9,0.002609253,-0.005435944,0.007570267,0,
00:00.9,0.002592087,-0.005395889,0.007553101,0,
00:00.9,0.002586365,-0.005395889,0.007587433,0,
00:00.9,0.002603531,-0.005418777,0.007598877,0,
00:00.9,0.002632141,-0.005395889,0.007564545,0,
00:00.9,0.002637863,-0.005367279,0.007604599,0,
00:00.9,0.002609253,-0.005395889,0.007610321,0,
00:00.9,0.002597809,-0.005413055,0.007575989,0,
00:00.9,0.002609253,-0.005384445,0.007598877,0,
00:00.9,0.002609253,-0.005390167,0.007610321,0,
00:00.9,0.002620697,-0.005390167,0.007593155,0,
00:00.9,0.002626419,-0.005361557,0.007587433,0,
00:00.9,0.002603531,-0.005378723,0.007593155,0,
00:01.0,0.002609253,-0.005413055,0.007598877,0,
00:01.0,0.002597809,-0.005413055,0.007616043,0,
00:01.0,0.002592087,-0.005401611,0.007656097,0,
00:01.0,0.002597809,-0.005378723,0.007633209,0,
00:01.0,0.002609253,-0.0054245,0.007553101,0,
00:01.0,0.002597809,-0.005475998,0.007547379,0,
00:01.0,0.002597809,-0.005401611,0.007587433,0,
00:01.0,0.002649307,-0.005304337,0.007558823,0,
00:01.0,0.002643585,-0.005315781,0.007633209,0,
00:01.0,0.002603531,-0.005355835,0.007633209,0,
00:01.0,0.002580643,-0.005413055,0.007598877,0,
00:01.0,0.002603531,-0.005413055,0.007581711,0,
00:00:01,0.002620697,-0.005395889,0.007593155,0,
00:01.0,0.002609253,-0.005407333,0.007598877,0,
00:01.0,0.002614975,-0.005407333,0.007598877,0,
00:01.0,0.002614975,-0.005384445,0.007598877,0,
00:01.0,0.002626419,-0.005344391,0.007627487,0,
00:01.0,0.002626419,-0.005350113,0.007598877,0,
00:01.0,0.002620697,-0.005378723,0.007553101,0,
00:01.0,0.002620697,-0.005384445,0.007581711,0,
00:01.0,0.002620697,-0.005355835,0.007593155,0,
00:01.0,0.002603531,-0.005384445,0.007593155,0,
00:01.0,0.002603531,-0.0054245,0.007604599,0,
00:01.0,0.002603531,-0.005430222,0.007587433,0,
00:01.0,0.002603531,-0.005401611,0.007616043,0,
00:01.1,0.002603531,-0.005390167,0.007616043,0,
00:01.1,0.002603531,-0.005367279,0.007621765,0,
00:01.1,0.002603531,-0.005378723,0.007633209,0,
00:01.1,0.002637863,-0.005355835,0.007581711,0,
00:01.1,0.002643585,-0.005332947,0.007575989,0,
00:01.1,0.002620697,-0.005384445,0.007581711,0,
00:01.1,0.002586365,-0.005390167,0.007638931,0,
00:01.1,0.002592087,-0.005378723,0.007650375,0,
00:01.1,0.002632141,-0.005361557,0.007621765,0,
00:01.1,0.002632141,-0.005361557,0.007593155,0,
00:01.1,0.002609253,-0.005390167,0.007621765,0,
00:01.1,0.002609253,-0.005401611,0.007581711,0,
00:01.1,0.002614975,-0.005401611,0.007553101,0,
00:01.1,0.002626419,-0.005378723,0.007593155,0,
00:01.1,0.002620697,-0.005361557,0.007604599,0,
00:01.1,0.002632141,-0.005344391,0.007587433,0,
00:01.1,0.002597809,-0.005378723,0.007616043,0,
00:01.1,0.002609253,-0.005395889,0.007621765,0,
00:01.1,0.002637863,-0.005355835,0.007616043,0,
00:01.1,0.002632141,-0.005355835,0.007598877,0,
00:01.1,0.002637863,-0.005338669,0.007593155,0,
00:01.1,0.002603531,-0.005395889,0.007587433,0,
00:01.1,0.002609253,-0.0054245,0.007621765,0,
00:01.1,0.002632141,-0.005373001,0.007621765,0,
00:01.1,0.002609253,-0.005344391,0.007621765,0,
00:01.2,0.002620697,-0.005350113,0.007587433,0,
00:01.2,0.002643585,-0.005338669,0.007587433,0,
00:01.2,0.002609253,-0.005344391,0.007644653,0,
00:01.2,0.002569199,-0.005350113,0.007684708,0,
00:01.2,0.002580643,-0.0054245,0.007650375,0,
00:01.2,0.002643585,-0.0054245,0.007564545,0,
00:01.2,0.002649307,-0.005338669,0.007558823,0,
00:01.2,0.002620697,-0.005327225,0.007610321,0,
00:01.2,0.002643585,-0.005338669,0.007656097,0,
00:01.2,0.002620697,-0.005384445,0.007650375,0,
00:01.2,0.002632141,-0.005378723,0.007535934,0,
00:01.2,0.002614975,-0.005390167,0.007593155,0,
00:01.2,0.002609253,-0.005395889,0.007598877,0,
00:01.2,0.002614975,-0.005430222,0.007604599,0,
00:01.2,0.002620697,-0.005373001,0.007621765,0,
00:01.2,0.002620697,-0.005344391,0.007593155,0,
00:01.2,0.002632141,-0.005344391,0.007604599,0,
00:01.2,0.002637863,-0.005332947,0.007587433,0,
00:01.2,0.002632141,-0.005310059,0.007593155,0,
00:01.2,0.002620697,-0.005361557,0.007610321,0,
00:01.2,0.002614975,-0.005367279,0.007644653,0,
00:01.2,0.002620697,-0.005355835,0.007621765,0,
00:01.2,0.002626419,-0.005338669,0.007616043,0,
00:01.2,0.002597809,-0.005390167,0.007593155,0,
00:01.2,0.002592087,-0.005378723,0.007604599,0,
00:01.3,0.002614975,-0.005350113,0.007638931,0,
00:01.3,0.002637863,-0.005338669,0.007610321,0,
00:01.3,0.002626419,-0.005350113,0.007587433,0,
00:01.3,0.002632141,-0.005355835,0.007621765,0,
00:01.3,0.002614975,-0.005327225,0.007696152,0,
00:01.3,0.002620697,-0.005350113,0.007644653,0,
00:01.3,0.002649307,-0.005367279,0.007530212,0,
00:01.3,0.002632141,-0.005350113,0.007587433,0,
00:01.3,0.002626419,-0.005327225,0.007587433,0,
00:01.3,0.002620697,-0.005344391,0.007604599,0,
00:01.3,0.002626419,-0.005367279,0.007627487,0,
00:01.3,0.002626419,-0.005378723,0.007610321,0,
00:01.3,0.002626419,-0.005355835,0.007604599,0,
00:01.3,0.002632141,-0.005332947,0.007581711,0,
00:01.3,0.002632141,-0.005344391,0.007581711,0,
00:01.3,0.002643585,-0.005315781,0.007633209,0,
00:01.3,0.002626419,-0.005344391,0.007633209,0,
00:01.3,0.002614975,-0.005407333,0.007621765,0,
00:01.3,0.002609253,-0.005355835,0.007616043,0,
00:01.3,0.002603531,-0.005367279,0.007598877,0,
00:01.3,0.002603531,-0.005355835,0.007644653,0,
00:01.3,0.002597809,-0.005344391,0.007633209,0,
00:01.3,0.002649307,-0.005338669,0.007593155,0,
00:01.3,0.002643585,-0.005350113,0.007598877,0,
00:01.3,0.002626419,-0.005373001,0.007587433,0,
00:01.4,0.002626419,-0.005350113,0.007616043,0,
00:01.4,0.002637863,-0.005310059,0.007656097,0,
00:01.4,0.002609253,-0.005321503,0.007661819,0,
00:01.4,0.002603531,-0.005338669,0.007633209,0,
00:01.4,0.002655029,-0.005315781,0.007593155,0,
00:01.4,0.002609253,-0.005350113,0.007616043,0,
00:01.4,0.002609253,-0.005407333,0.007610321,0,
00:01.4,0.002609253,-0.005367279,0.007593155,0,
00:01.4,0.002632141,-0.005304337,0.007593155,0,
00:01.4,0.002649307,-0.005292892,0.007575989,0,
00:01.4,0.002614975,-0.005361557,0.007581711,0,
00:01.4,0.002597809,-0.005384445,0.007638931,0,
00:01.4,0.002614975,-0.005338669,0.007650375,0,
00:01.4,0.002614975,-0.005321503,0.007644653,0,
00:01.4,0.002614975,-0.005338669,0.007627487,0,
00:01.4,0.002614975,-0.005390167,0.007610321,0,
00:01.4,0.002620697,-0.005378723,0.007604599,0,
00:01.4,0.002632141,-0.005327225,0.007627487,0,
00:01.4,0.002643585,-0.00528717,0.007627487,0,
00:01.4,0.002637863,-0.005292892,0.007570267,0,
00:01.4,0.002620697,-0.005327225,0.007610321,0,
00:01.4,0.002603531,-0.005355835,0.007638931,0,
00:01.4,0.002597809,-0.005378723,0.007633209,0,
00:01.4,0.002609253,-0.005355835,0.007667542,0,
00:01.4,0.002637863,-0.005344391,0.007616043,0,
00:01.5,0.002637863,-0.005332947,0.007570267,0,
00:01.5,0.002609253,-0.005327225,0.007644653,0,
00:01.5,0.002620697,-0.005321503,0.007650375,0,
00:01.5,0.002620697,-0.005310059,0.007593155,0,
00:01.5,0.002614975,-0.005327225,0.007610321,0,
00:01.5,0.002643585,-0.005350113,0.007616043,0,
00:01.5,0.002626419,-0.005310059,0.007616043,0,
00:01.5,0.002614975,-0.005344391,0.007633209,0,
00:01.5,0.002632141,-0.005321503,0.007638931,0,
00:01.5,0.002626419,-0.00528717,0.007593155,0,
00:01.5,0.002620697,-0.005327225,0.007604599,0,
00:01.5,0.002632141,-0.005321503,0.007638931,0,
00:01.5,0.002614975,-0.005321503,0.007621765,0,
00:01.5,0.002597809,-0.005361557,0.007650375,0,
00:01.5,0.002649307,-0.005327225,0.007650375,0,
00:01.5,0.002632141,-0.005338669,0.007593155,0,
00:01.5,0.002609253,-0.005344391,0.007598877,0,
00:01.5,0.002597809,-0.005361557,0.007598877,0,
00:01.5,0.002592087,-0.005350113,0.007644653,0,
00:01.5,0.002626419,-0.005292892,0.007667542,0,
00:01.5,0.002626419,-0.005304337,0.007644653,0,
00:01.5,0.002637863,-0.005355835,0.007593155,0,
00:01.5,0.002643585,-0.005338669,0.007558823,0,
00:01.5,0.002592087,-0.005338669,0.007627487,0,
00:01.5,0.002609253,-0.005310059,0.007673264,0,
00:01.6,0.002609253,-0.005281448,0.007724762,0,
00:01.6,0.002632141,-0.005310059,0.007621765,0,
00:01.6,0.002637863,-0.005310059,0.007593155,0,
00:01.6,0.002637863,-0.005321503,0.007598877,0,
00:01.6,0.002637863,-0.005304337,0.007604599,0,
00:01.6,0.002626419,-0.005321503,0.007627487,0,
00:01.6,0.002620697,-0.005315781,0.007627487,0,
00:01.6,0.002614975,-0.005327225,0.007604599,0,
00:01.6,0.002620697,-0.005321503,0.007610321,0,
00:01.6,0.002620697,-0.005332947,0.007627487,0,
00:01.6,0.002626419,-0.005315781,0.007644653,0,
00:01.6,0.002614975,-0.005304337,0.007627487,0,
00:01.6,0.002609253,-0.005327225,0.007650375,0,
00:01.6,0.002603531,-0.005350113,0.007644653,0,
00:01.6,0.002609253,-0.005355835,0.007627487,0,
00:01.6,0.002626419,-0.005332947,0.007598877,0,
00:01.6,0.002632141,-0.005321503,0.007604599,0,
00:01.6,0.002614975,-0.005292892,0.007598877,0,
00:01.6,0.002603531,-0.00528717,0.007661819,0,
00:01.6,0.002626419,-0.005338669,0.007736206,0,
00:01.6,0.002614975,-0.005344391,0.007673264,0,
00:01.6,0.002626419,-0.005281448,0.007581711,0,
00:01.6,0.002637863,-0.00525856,0.007627487,0,
00:01.6,0.002620697,-0.005281448,0.007644653,0,
00:01.6,0.002632141,-0.005281448,0.007587433,0,
00:01.7,0.002626419,-0.005304337,0.007593155,0,
00:01.7,0.002614975,-0.005304337,0.007627487,0,
00:01.7,0.002626419,-0.005304337,0.007638931,0,
00:01.7,0.002626419,-0.005327225,0.007656097,0,
00:01.7,0.002609253,-0.005344391,0.007627487,0,
00:01.7,0.002637863,-0.005338669,0.007587433,0,
00:01.7,0.002643585,-0.005304337,0.007627487,0,
00:01.7,0.002626419,-0.005298615,0.007644653,0,
00:01.7,0.002632141,-0.00528717,0.007621765,0,
00:01.7,0.002609253,-0.005332947,0.007644653,0,
00:01.7,0.002603531,-0.005332947,0.007644653,0,
00:01.7,0.002614975,-0.005310059,0.007633209,0,
00:01.7,0.002632141,-0.005292892,0.007650375,0,
00:01.7,0.002626419,-0.005327225,0.007650375,0,
00:01.7,0.002620697,-0.005338669,0.007656097,0,
00:01.7,0.002643585,-0.00528717,0.007575989,0,
00:01.7,0.002626419,-0.005270004,0.007604599,0,
00:01.7,0.002597809,-0.005332947,0.007673264,0,
00:01.7,0.002614975,-0.005332947,0.007656097,0,
00:01.7,0.002632141,-0.005310059,0.007616043,0,
00:01.7,0.002626419,-0.00528717,0.007604599,0,
00:01.7,0.002626419,-0.005281448,0.007604599,0,
00:01.7,0.002626419,-0.00528717,0.007650375,0,
00:01.7,0.002643585,-0.005292892,0.007638931,0,
00:01.7,0.002626419,-0.005327225,0.007627487,0,
00:01.8,0.002620697,-0.005332947,0.007610321,0,
00:01.8,0.002614975,-0.005321503,0.007621765,0,
00:01.8,0.002620697,-0.005315781,0.007638931,0,
00:01.8,0.002632141,-0.005275726,0.007627487,0,
00:01.8,0.002620697,-0.00528717,0.007644653,0,
00:01.8,0.002643585,-0.005292892,0.007621765,0,
00:01.8,0.002632141,-0.005292892,0.007610321,0,
00:01.8,0.002603531,-0.005310059,0.007673264,0,
00:01.8,0.002614975,-0.005281448,0.007667542,0,
00:01.8,0.002609253,-0.00528717,0.00769043,0,
00:01.8,0.002626419,-0.005321503,0.007650375,0,
00:01.8,0.002626419,-0.005315781,0.007616043,0,
00:01.8,0.002620697,-0.005292892,0.007638931,0,
00:01.8,0.002603531,-0.005310059,0.007644653,0,
00:01.8,0.002603531,-0.005281448,0.007696152,0,
00:01.8,0.002637863,-0.005275726,0.007661819,0,
00:01.8,0.002620697,-0.005310059,0.007610321,0,
00:01.8,0.002597809,-0.00528717,0.007610321,0,
00:01.8,0.002586365,-0.005281448,0.007650375,0,
00:01.8,0.002626419,-0.005270004,0.007673264,0,
00:01.8,0.002666473,-0.005304337,0.007616043,0,
00:01.8,0.002655029,-0.005298615,0.007581711,0,
00:01.8,0.002620697,-0.005292892,0.007610321,0,
00:01.8,0.002614975,-0.00528717,0.007656097,0,
00:01.8,0.002632141,-0.005275726,0.007650375,0,
00:01.9,0.002632141,-0.005264282,0.007650375,0,
00:01.9,0.002620697,-0.005292892,0.007633209,0,
00:01.9,0.002632141,-0.00528717,0.007638931,0,
00:01.9,0.002620697,-0.005327225,0.007656097,0,
00:01.9,0.002632141,-0.00528717,0.007616043,0,
00:01.9,0.002637863,-0.005264282,0.007604599,0,
00:01.9,0.002620697,-0.005298615,0.007633209,0,
00:01.9,0.002603531,-0.005338669,0.007667542,0,
00:01.9,0.002620697,-0.005304337,0.007638931,0,
00:01.9,0.002626419,-0.005304337,0.007633209,0,
00:01.9,0.002609253,-0.005298615,0.007656097,0,
00:01.9,0.002620697,-0.005270004,0.007610321,0,
00:01.9,0.002614975,-0.00522995,0.007638931,0,
00:01.9,0.002620697,-0.005247116,0.007759094,0,
00:01.9,0.002637863,-0.005304337,0.007736206,0,
00:01.9,0.002603531,-0.005304337,0.007564545,0,
00:01.9,0.002603531,-0.00525856,0.007587433,0,
00:01.9,0.002643585,-0.005298615,0.007633209,0,
00:01.9,0.002626419,-0.005310059,0.007644653,0,
00:01.9,0.002632141,-0.005270004,0.007633209,0,
00:01.9,0.002643585,-0.005241394,0.007616043,0,
00:01.9,0.002637863,-0.005241394,0.007610321,0,
00:01.9,0.002609253,-0.00528717,0.007656097,0,
00:01.9,0.002614975,-0.005281448,0.007678986,0,
00:01.9,0.002620697,-0.005270004,0.007638931,0,
00:02.0,0.002626419,-0.005275726,0.007644653,0,
00:02.0,0.002643585,-0.00525856,0.007633209,0,
00:02.0,0.002597809,-0.005332947,0.007644653,0,
00:02.0,0.002597809,-0.005373001,0.007610321,0,
00:02.0,0.002626419,-0.00528717,0.007610321,0,
00:02.0,0.002620697,-0.00522995,0.007667542,0,
00:02.0,0.002580643,-0.005270004,0.007678986,0,
00:02.0,0.002563477,-0.005292892,0.007701874,0,
00:02.0,0.002614975,-0.005315781,0.007696152,0,
00:02.0,0.002626419,-0.005281448,0.007627487,0,
00:02.0,0.002609253,-0.005218506,0.007627487,0,
00:02.0,0.002655029,-0.005207062,0.007661819,0,
00:00:02,0.002643585,-0.005235672,0.007650375,0,
00:02.0,0.002597809,-0.00525856,0.007610321,0,
00:02.0,0.002586365,-0.005310059,0.007621765,0,
00:02.0,0.002586365,-0.005304337,0.007673264,0,
00:02.0,0.002632141,-0.005270004,0.007656097,0,
00:02.0,0.002655029,-0.005252838,0.007610321,0,
00:02.0,0.002649307,-0.005252838,0.007610321,0,
00:02.0,0.002620697,-0.005252838,0.007604599,0,
00:02.0,0.002620697,-0.005252838,0.007650375,0,
00:02.0,0.002609253,-0.005298615,0.007673264,0,
00:02.0,0.002620697,-0.005270004,0.007667542,0,
00:02.0,0.002620697,-0.005264282,0.007667542,0,
00:02.0,0.002620697,-0.005252838,0.007667542,0,
00:02.1,0.002620697,-0.005275726,0.007633209,0,
00:02.1,0.002609253,-0.005321503,0.007656097,0,
00:02.1,0.002597809,-0.005321503,0.007627487,0,
00:02.1,0.002603531,-0.00525856,0.007644653,0,
00:02.1,0.002614975,-0.00520134,0.007661819,0,
00:02.1,0.002620697,-0.005235672,0.007673264,0,
00:02.1,0.002614975,-0.005252838,0.007673264,0,
00:02.1,0.002609253,-0.005252838,0.00769043,0,
00:02.1,0.002660751,-0.00522995,0.007621765,0,
00:02.1,0.002637863,-0.005264282,0.007627487,0,
00:02.1,0.002609253,-0.00528717,0.007678986,0,
00:02.1,0.002597809,-0.005241394,0.007701874,0,
00:02.1,0.002620697,-0.00525856,0.007610321,0,
00:02.1,0.002649307,-0.005195618,0.007581711,0,
00:02.1,0.002609253,-0.00525856,0.007667542,0,
00:02.1,0.002614975,-0.005275726,0.007673264,0,
00:02.1,0.002614975,-0.005264282,0.007650375,0,
00:02.1,0.002609253,-0.005281448,0.007656097,0,
00:02.1,0.002620697,-0.005275726,0.007638931,0,
00:02.1,0.002620697,-0.005252838,0.007627487,0,
00:02.1,0.002626419,-0.005247116,0.007650375,0,
00:02.1,0.002626419,-0.005247116,0.007656097,0,
00:02.1,0.002614975,-0.005270004,0.007656097,0,
00:02.1,0.002609253,-0.005275726,0.007673264,0,
00:02.1,0.002603531,-0.005275726,0.007678986,0,
00:02.2,0.002597809,-0.005270004,0.007638931,0,
00:02.2,0.002603531,-0.005252838,0.007638931,0,
00:02.2,0.002592087,-0.005189896,0.007724762,0,
00:02.2,0.002620697,-0.005224228,0.007696152,0,
00:02.2,0.002660751,-0.005292892,0.007547379,0,
00:02.2,0.002643585,-0.005264282,0.007610321,0,
00:02.2,0.002620697,-0.005212784,0.007656097,0,
00:02.2,0.002569199,-0.005218506,0.007661819,0,
00:02.2,0.00254631,-0.005224228,0.00769043,0,
00:02.2,0.002626419,-0.005241394,0.007667542,0,
00:02.2,0.002660751,-0.005264282,0.007633209,0,
00:02.2,0.002643585,-0.005235672,0.007667542,0,
00:02.2,0.002620697,-0.005224228,0.007656097,0,
00:02.2,0.002592087,-0.005252838,0.007684708,0,
00:02.2,0.002603531,-0.005275726,0.007667542,0,
00:02.2,0.002632141,-0.00525856,0.007638931,0,
00:02.2,0.002637863,-0.005247116,0.007644653,0,
00:02.2,0.002614975,-0.00525856,0.007633209,0,
00:02.2,0.002609253,-0.005264282,0.007656097,0,
00:02.2,0.002614975,-0.005247116,0.007678986,0,
00:02.2,0.002620697,-0.00525856,0.007638931,0,
00:02.2,0.002626419,-0.005252838,0.007644653,0,
00:02.2,0.002609253,-0.005281448,0.007661819,0,
00:02.2,0.002626419,-0.005252838,0.007644653,0,
00:02.2,0.002643585,-0.00520134,0.007616043,0,
00:02.3,0.002637863,-0.005195618,0.007638931,0,
00:02.3,0.002614975,-0.005224228,0.007684708,0,
00:02.3,0.002614975,-0.005264282,0.007656097,0,
00:02.3,0.002620697,-0.005270004,0.007661819,0,
00:02.3,0.002620697,-0.005212784,0.007667542,0,
00:02.3,0.002620697,-0.005218506,0.007661819,0,
00:02.3,0.002609253,-0.00528717,0.007736206,0,
00:02.3,0.002569199,-0.005275726,0.007730484,0,
00:02.3,0.002614975,-0.005241394,0.007684708,0,
00:02.3,0.002649307,-0.005235672,0.007564545,0,
00:02.3,0.002637863,-0.00520134,0.007610321,0,
00:02.3,0.002632141,-0.005212784,0.007633209,0,
00:02.3,0.002614975,-0.005224228,0.007661819,0,
00:02.3,0.002614975,-0.005252838,0.007667542,0,
00:02.3,0.002586365,-0.005264282,0.007638931,0,
00:02.3,0.002603531,-0.005235672,0.007644653,0,
00:02.3,0.002632141,-0.005224228,0.007656097,0,
00:02.3,0.002620697,-0.005252838,0.007673264,0,
00:02.3,0.002632141,-0.005224228,0.007656097,0,
00:02.3,0.002614975,-0.005247116,0.007656097,0,
00:02.3,0.002620697,-0.005218506,0.007678986,0,
00:02.3,0.002626419,-0.00520134,0.007667542,0,
00:02.3,0.002614975,-0.005252838,0.007633209,0,
00:02.3,0.002614975,-0.00525856,0.007650375,0,
00:02.3,0.002609253,-0.005241394,0.007678986,0,
00:02.4,0.002609253,-0.005275726,0.007678986,0,
00:02.4,0.002609253,-0.005212784,0.00769043,0,
00:02.4,0.002626419,-0.005184174,0.007678986,0,
00:02.4,0.002626419,-0.005224228,0.007656097,0,
00:02.4,0.002637863,-0.005195618,0.007650375,0,
00:02.4,0.002637863,-0.005207062,0.007661819,0,
00:02.4,0.002592087,-0.005235672,0.007667542,0,
00:02.4,0.002609253,-0.005264282,0.007667542,0,
00:02.4,0.002620697,-0.005275726,0.007678986,0,
00:02.4,0.002614975,-0.00525856,0.007650375,0,
00:02.4,0.002614975,-0.005224228,0.007621765,0,
00:02.4,0.002614975,-0.005161285,0.007610321,0,
00:02.4,0.002586365,-0.005195618,0.007638931,0,
00:02.4,0.002586365,-0.005235672,0.007678986,0,
00:02.4,0.002620697,-0.005195618,0.007770538,0,
00:02.4,0.002626419,-0.005241394,0.007713318,0,
00:02.4,0.002660751,-0.005218506,0.007621765,0,
00:02.4,0.002643585,-0.005212784,0.007616043,0,
00:02.4,0.002620697,-0.005212784,0.007673264,0,
00:02.4,0.002614975,-0.00522995,0.007673264,0,
00:02.4,0.002609253,-0.005247116,0.007678986,0,
00:02.4,0.002592087,-0.005281448,0.00769043,0,
00:02.4,0.002603531,-0.005264282,0.007673264,0,
00:02.4,0.002643585,-0.005207062,0.007650375,0,
00:02.4,0.002655029,-0.005178452,0.007616043,0,
00:02.5,0.002597809,-0.005167007,0.007667542,0,
00:02.5,0.002552032,-0.005155563,0.007724762,0,
00:02.5,0.002586365,-0.005247116,0.007713318,0,
00:02.5,0.002649307,-0.005235672,0.007621765,0,
00:02.5,0.002643585,-0.005224228,0.007644653,0,
00:02.5,0.002626419,-0.005218506,0.00769043,0,
00:02.5,0.002614975,-0.00522995,0.007696152,0,
00:02.5,0.002614975,-0.00522995,0.007684708,0,
00:02.5,0.002614975,-0.005252838,0.007696152,0,
00:02.5,0.002603531,-0.005270004,0.007701874,0,
00:02.5,0.002620697,-0.005207062,0.007667542,0,
00:02.5,0.002620697,-0.005172729,0.007678986,0,
00:02.5,0.002632141,-0.005161285,0.007673264,0,
00:02.5,0.002626419,-0.005172729,0.007633209,0,
00:02.5,0.002609253,-0.005178452,0.007598877,0,
00:02.5,0.002626419,-0.00520134,0.00769043,0,
00:02.5,0.002666473,-0.005195618,0.007707596,0,
00:02.5,0.002569199,-0.005304337,0.007667542,0,
00:02.5,0.00254631,-0.005275726,0.007713318,0,
00:02.5,0.002626419,-0.005195618,0.007707596,0,
00:02.5,0.002637863,-0.00520134,0.00769043,0,
00:02.5,0.002620697,-0.005241394,0.007667542,0,
00:02.5,0.002626419,-0.00522995,0.00769043,0,
00:02.5,0.002626419,-0.005189896,0.007684708,0,
00:02.5,0.002620697,-0.005178452,0.007678986,0,
00:02.6,0.002620697,-0.005144119,0.007650375,0,
00:02.6,0.002614975,-0.005178452,0.007633209,0,
00:02.6,0.002597809,-0.005252838,0.007667542,0,
00:02.6,0.002609253,-0.005252838,0.007724762,0,
00:02.6,0.002626419,-0.005184174,0.007701874,0,
00:02.6,0.002626419,-0.005212784,0.007633209,0,
00:02.6,0.002620697,-0.005207062,0.007678986,0,
00:02.6,0.002603531,-0.005172729,0.00771904,0,
00:02.6,0.002586365,-0.005184174,0.007713318,0,
00:02.6,0.002597809,-0.005235672,0.007707596,0,
00:02.6,0.002626419,-0.00525856,0.007678986,0,
00:02.6,0.002626419,-0.005212784,0.007661819,0,
00:02.6,0.002643585,-0.005155563,0.007661819,0,
00:02.6,0.002626419,-0.005189896,0.007678986,0,
00:02.6,0.002626419,-0.00520134,0.007673264,0,
00:02.6,0.002632141,-0.005189896,0.007667542,0,
00:02.6,0.002637863,-0.005184174,0.007644653,0,
00:02.6,0.002614975,-0.005212784,0.007650375,0,
00:02.6,0.002603531,-0.005218506,0.00769043,0,
00:02.6,0.002620697,-0.005218506,0.007713318,0,
00:02.6,0.002632141,-0.005184174,0.007684708,0,
00:02.6,0.002632141,-0.005189896,0.007684708,0,
00:02.6,0.002597809,-0.005218506,0.007707596,0,
00:02.6,0.002614975,-0.005241394,0.007684708,0,
00:02.6,0.002620697,-0.005207062,0.007656097,0,
00:02.7,0.002626419,-0.005155563,0.007667542,0,
00:02.7,0.002620697,-0.005189896,0.007673264,0,
00:02.7,0.002586365,-0.005247116,0.007701874,0,
00:02.7,0.002603531,-0.00520134,0.007724762,0,
00:02.7,0.002637863,-0.005132675,0.007730484,0,
00:02.7,0.002614975,-0.005155563,0.007701874,0,
00:02.7,0.002649307,-0.005195618,0.007684708,0,
00:02.7,0.002643585,-0.005224228,0.007684708,0,
00:02.7,0.002609253,-0.00522995,0.007661819,0,
00:02.7,0.002586365,-0.005184174,0.007684708,0,
00:02.7,0.002620697,-0.005138397,0.007724762,0,
00:02.7,0.002609253,-0.005167007,0.007696152,0,
00:02.7,0.002643585,-0.005195618,0.007627487,0,
00:02.7,0.002632141,-0.005178452,0.007661819,0,
00:02.7,0.002614975,-0.005212784,0.00771904,0,
00:02.7,0.002620697,-0.005195618,0.007701874,0,
00:02.7,0.002620697,-0.005207062,0.007678986,0,
00:02.7,0.002614975,-0.005207062,0.007667542,0,
00:02.7,0.002614975,-0.005184174,0.007713318,0,
00:02.7,0.002626419,-0.005167007,0.00769043,0,
00:02.7,0.002637863,-0.005161285,0.007661819,0,
00:02.7,0.002609253,-0.00522995,0.007701874,0,
00:02.7,0.002574921,-0.005247116,0.00771904,0,
00:02.7,0.002592087,-0.005218506,0.00769043,0,
00:02.7,0.002632141,-0.005184174,0.007684708,0,
00:02.8,0.002643585,-0.005161285,0.007713318,0,
00:02.8,0.002626419,-0.005155563,0.007696152,0,
00:02.8,0.002603531,-0.005184174,0.007730484,0,
00:02.8,0.002603531,-0.005184174,0.007667542,0,
00:02.8,0.002626419,-0.005132675,0.007644653,0,
00:02.8,0.002603531,-0.005161285,0.007701874,0,
00:02.8,0.002609253,-0.00520134,0.007684708,0,
00:02.8,0.002649307,-0.005178452,0.007701874,0,
00:02.8,0.002614975,-0.00520134,0.007701874,0,
00:02.8,0.002614975,-0.005149841,0.007661819,0,
00:02.8,0.002603531,-0.005172729,0.007684708,0,
00:02.8,0.002620697,-0.005189896,0.00774765,0,
00:02.8,0.002620697,-0.00522995,0.007730484,0,
00:02.8,0.002626419,-0.00522995,0.007667542,0,
00:02.8,0.002626419,-0.005207062,0.007644653,0,
00:02.8,0.002626419,-0.005161285,0.007678986,0,
00:02.8,0.002637863,-0.005161285,0.00769043,0,
00:02.8,0.002626419,-0.005167007,0.007713318,0,
00:02.8,0.002614975,-0.005149841,0.007713318,0,
00:02.8,0.002592087,-0.005195618,0.007684708,0,
00:02.8,0.002563477,-0.005235672,0.007684708,0,
00:02.8,0.002609253,-0.005178452,0.00771904,0,
00:02.8,0.002643585,-0.005144119,0.007684708,0,
00:02.8,0.002609253,-0.005167007,0.007696152,0,
00:02.8,0.002609253,-0.005178452,0.007713318,0,
00:02.9,0.002614975,-0.005161285,0.007713318,0,
00:02.9,0.002597809,-0.005184174,0.007730484,0,
00:02.9,0.002632141,-0.005149841,0.007696152,0,
00:02.9,0.002632141,-0.005161285,0.007644653,0,
00:02.9,0.002632141,-0.005184174,0.007661819,0,
00:02.9,0.002620697,-0.005167007,0.007701874,0,
00:02.9,0.002614975,-0.005167007,0.00771904,0,
00:02.9,0.002609253,-0.005184174,0.007701874,0,
00:02.9,0.002614975,-0.005167007,0.00769043,0,
00:02.9,0.002620697,-0.005144119,0.00771904,0,
00:02.9,0.002592087,-0.00520134,0.00774765,0,
00:02.9,0.002603531,-0.005224228,0.007684708,0,
00:02.9,0.002597809,-0.005212784,0.00769043,0,
00:02.9,0.002609253,-0.005184174,0.007678986,0,
00:02.9,0.002614975,-0.005144119,0.007684708,0,
00:02.9,0.002580643,-0.005132675,0.007741928,0,
00:02.9,0.002586365,-0.005155563,0.007724762,0,
00:02.9,0.002632141,-0.005167007,0.007673264,0,
00:02.9,0.002614975,-0.005161285,0.007696152,0,
00:02.9,0.002597809,-0.005178452,0.007730484,0,
00:02.9,0.002632141,-0.005155563,0.00771904,0,
00:02.9,0.002620697,-0.005172729,0.007701874,0,
00:02.9,0.002597809,-0.005155563,0.00771904,0,
00:02.9,0.002609253,-0.005144119,0.007684708,0,
00:02.9,0.002626419,-0.005149841,0.00769043,0,
00:03.0,0.002614975,-0.005172729,0.007724762,0,
00:03.0,0.002597809,-0.005195618,0.007713318,0,
00:03.0,0.002620697,-0.005126953,0.007661819,0,
00:03.0,0.002597809,-0.005178452,0.007684708,0,
00:03.0,0.002597809,-0.00520134,0.007730484,0,
00:03.0,0.002603531,-0.005195618,0.00769043,0,
00:03.0,0.002592087,-0.005178452,0.007701874,0,
00:03.0,0.002614975,-0.005155563,0.007696152,0,
00:03.0,0.002614975,-0.005121231,0.00769043,0,
00:03.0,0.002592087,-0.005115509,0.00771904,0,
00:03.0,0.002563477,-0.005155563,0.007753372,0,
00:03.0,0.002569199,-0.005172729,0.007707596,0,
00:00:03,0.002569199,-0.005126953,0.007759094,0,
00:03.0,0.002609253,-0.005149841,0.007770538,0,
00:03.0,0.002643585,-0.005184174,0.007661819,0,
00:03.0,0.002632141,-0.005161285,0.007673264,0,
00:03.0,0.002614975,-0.005167007,0.007684708,0,
00:03.0,0.002609253,-0.005167007,0.007713318,0,
00:03.0,0.002603531,-0.005178452,0.00769043,0,
00:03.0,0.002597809,-0.005184174,0.007713318,0,
00:03.0,0.002580643,-0.005178452,0.007759094,0,
00:03.0,0.002586365,-0.005138397,0.007736206,0,
00:03.0,0.002603531,-0.005149841,0.00769043,0,
00:03.0,0.002609253,-0.005161285,0.007701874,0,
00:03.0,0.002592087,-0.005167007,0.007713318,0,
00:03.1,0.002603531,-0.005167007,0.007701874,0,
00:03.1,0.002614975,-0.005184174,0.007701874,0,
00:03.1,0.002586365,-0.005184174,0.00771904,0,
00:03.1,0.002586365,-0.005172729,0.007736206,0,
00:03.1,0.002603531,-0.005144119,0.007724762,0,
00:03.1,0.002609253,-0.005161285,0.007724762,0,
00:03.1,0.002580643,-0.005189896,0.007753372,0,
00:03.1,0.002557755,-0.005207062,0.007764816,0,
00:03.1,0.00254631,-0.00520134,0.007799149,0,
00:03.1,0.002614975,-0.005178452,0.007696152,0,
00:03.1,0.002626419,-0.005149841,0.007650375,0,
00:03.1,0.002586365,-0.005195618,0.007696152,0,
00:03.1,0.002569199,-0.005178452,0.007730484,0,
00:03.1,0.002574921,-0.005149841,0.00774765,0,
00:03.1,0.002597809,-0.005155563,0.007730484,0,
00:03.1,0.002614975,-0.005149841,0.007684708,0,
00:03.1,0.002592087,-0.005184174,0.007713318,0,
00:03.1,0.002569199,-0.005184174,0.007724762,0,
00:03.1,0.002580643,-0.005195618,0.00774765,0,
00:03.1,0.002603531,-0.005172729,0.007741928,0,
00:03.1,0.002609253,-0.005167007,0.007730484,0,
00:03.1,0.002592087,-0.005184174,0.007684708,0,
00:03.1,0.002597809,-0.005178452,0.007724762,0,
00:03.1,0.002586365,-0.005178452,0.007764816,0,
00:03.1,0.002574921,-0.005184174,0.007764816,0,
00:03.2,0.002552032,-0.005207062,0.00774765,0,
00:03.2,0.002609253,-0.005167007,0.007741928,0,
00:03.2,0.002609253,-0.005178452,0.007736206,0,
00:03.2,0.002597809,-0.005184174,0.007730484,0,
00:03.2,0.002586365,-0.005189896,0.007724762,0,
00:03.2,0.002580643,-0.005207062,0.007741928,0,
00:03.2,0.002552032,-0.005241394,0.00771904,0,
00:03.2,0.002569199,-0.005189896,0.007770538,0,
00:03.2,0.002597809,-0.005161285,0.007736206,0,
00:03.2,0.002580643,-0.005207062,0.007701874,0,
00:03.2,0.002557755,-0.00520134,0.007741928,0,
00:03.2,0.00254631,-0.005161285,0.007799149,0,
00:03.2,0.002563477,-0.005178452,0.007810593,0,
00:03.2,0.002597809,-0.00520134,0.007736206,0,
00:03.2,0.002614975,-0.005212784,0.00771904,0,
00:03.2,0.002609253,-0.005195618,0.007701874,0,
00:03.2,0.002563477,-0.005178452,0.00774765,0,
00:03.2,0.002552032,-0.005184174,0.007764816,0,
00:03.2,0.002574921,-0.005218506,0.007696152,0,
00:03.2,0.002580643,-0.005212784,0.007724762,0,
00:03.2,0.002580643,-0.005212784,0.007781982,0,
00:03.2,0.002586365,-0.005207062,0.007764816,0,
00:03.2,0.002569199,-0.005195618,0.007736206,0,
00:03.2,0.002557755,-0.00520134,0.007753372,0,
00:03.2,0.002557755,-0.00522995,0.007799149,0,
00:03.3,0.002580643,-0.00522995,0.007741928,0,
00:03.3,0.002586365,-0.005207062,0.007730484,0,
00:03.3,0.002586365,-0.005195618,0.007759094,0,
00:03.3,0.002574921,-0.00522995,0.007730484,0,
00:03.3,0.002557755,-0.005264282,0.007713318,0,
00:03.3,0.002557755,-0.005247116,0.007770538,0,
00:03.3,0.002569199,-0.005224228,0.007770538,0,
00:03.3,0.002597809,-0.005184174,0.00777626,0,
00:03.3,0.002563477,-0.005184174,0.007816315,0,
00:03.3,0.002523422,-0.00522995,0.007822037,0,
00:03.3,0.002557755,-0.005212784,0.007736206,0,
00:03.3,0.002563477,-0.005207062,0.007701874,0,
00:03.3,0.002586365,-0.005224228,0.007741928,0,
00:03.3,0.002586365,-0.005247116,0.007736206,0,
00:03.3,0.002529144,-0.005252838,0.007764816,0,
00:03.3,0.002563477,-0.00522995,0.007764816,0,
00:03.3,0.002614975,-0.005161285,0.007753372,0,
00:03.3,0.002586365,-0.005207062,0.007753372,0,
00:03.3,0.002586365,-0.005212784,0.007759094,0,
00:03.3,0.002569199,-0.00525856,0.007730484,0,
00:03.3,0.002552032,-0.005264282,0.007759094,0,
00:03.3,0.002540588,-0.005270004,0.007781982,0,
00:03.3,0.00254631,-0.005270004,0.007804871,0,
00:03.3,0.002557755,-0.005247116,0.007799149,0,
00:03.3,0.002574921,-0.00520134,0.007804871,0,
00:03.4,0.002569199,-0.00520134,0.007753372,0,
00:03.4,0.002534866,-0.005224228,0.00774765,0,
00:03.4,0.002511978,-0.005252838,0.007822037,0,
00:03.4,0.002563477,-0.00525856,0.007787704,0,
00:03.4,0.002586365,-0.00522995,0.007736206,0,
00:03.4,0.002569199,-0.00522995,0.00774765,0,
00:03.4,0.002552032,-0.005252838,0.007810593,0,
00:03.4,0.002569199,-0.005241394,0.007810593,0,
00:03.4,0.002563477,-0.005270004,0.00774765,0,
00:03.4,0.002557755,-0.00528717,0.007764816,0,
00:03.4,0.002563477,-0.00525856,0.00777626,0,
00:03.4,0.002574921,-0.005218506,0.00777626,0,
00:03.4,0.002563477,-0.005212784,0.007764816,0,
00:03.4,0.002563477,-0.005189896,0.007724762,0,
00:03.4,0.002563477,-0.005252838,0.007827759,0,
00:03.4,0.002534866,-0.005281448,0.007822037,0,
00:03.4,0.002557755,-0.005247116,0.007713318,0,
00:03.4,0.00254631,-0.005270004,0.007764816,0,
00:03.4,0.002529144,-0.005281448,0.007816315,0,
00:03.4,0.0025177,-0.005292892,0.007839203,0,
00:03.4,0.002557755,-0.005310059,0.007827759,0,
00:03.4,0.002574921,-0.005281448,0.007781982,0,
00:03.4,0.002557755,-0.005281448,0.007781982,0,
00:03.4,0.002580643,-0.005235672,0.007799149,0,
00:03.4,0.002563477,-0.005235672,0.007833481,0,
00:03.5,0.00254631,-0.005252838,0.007787704,0,
00:03.5,0.002552032,-0.005270004,0.007759094,0,
00:03.5,0.002540588,-0.005275726,0.007799149,0,
00:03.5,0.002552032,-0.005281448,0.007810593,0,
00:03.5,0.00254631,-0.005292892,0.007781982,0,
00:03.5,0.002523422,-0.005315781,0.007816315,0,
00:03.5,0.002534866,-0.005275726,0.007804871,0,
00:03.5,0.002529144,-0.005270004,0.007753372,0,
00:03.5,0.002552032,-0.005332947,0.007804871,0,
00:03.5,0.002563477,-0.005327225,0.007862091,0,
00:03.5,0.002563477,-0.005298615,0.007799149,0,
00:03.5,0.002552032,-0.005264282,0.007770538,0,
00:03.5,0.002552032,-0.005247116,0.007804871,0,
00:03.5,0.002557755,-0.005270004,0.007799149,0,
00:03.5,0.002534866,-0.005315781,0.007781982,0,
00:03.5,0.002529144,-0.005327225,0.007810593,0,
00:03.5,0.002552032,-0.005298615,0.007810593,0,
00:03.5,0.002557755,-0.005298615,0.007816315,0,
00:03.5,0.002540588,-0.005304337,0.007839203,0,
00:03.5,0.002540588,-0.005292892,0.007839203,0,
00:03.5,0.002529144,-0.005292892,0.007799149,0,
00:03.5,0.002511978,-0.005332947,0.007759094,0,
00:03.5,0.00254631,-0.005332947,0.007844925,0,
00:03.5,0.002552032,-0.005315781,0.007850647,0,
00:03.5,0.002529144,-0.005327225,0.007822037,0,
00:03.6,0.002563477,-0.005315781,0.007816315,0,
00:03.6,0.002557755,-0.005315781,0.007804871,0,
00:03.6,0.002540588,-0.005304337,0.007787704,0,
00:03.6,0.002529144,-0.005338669,0.007799149,0,
00:03.6,0.002540588,-0.005338669,0.007799149,0,
00:03.6,0.00254631,-0.005332947,0.007810593,0,
00:03.6,0.002529144,-0.005332947,0.007833481,0,
00:03.6,0.002540588,-0.005315781,0.007833481,0,
00:03.6,0.00254631,-0.005310059,0.007827759,0,
00:03.6,0.002540588,-0.005327225,0.007822037,0,
00:03.6,0.002540588,-0.005344391,0.007816315,0,
00:03.6,0.002540588,-0.005361557,0.007827759,0,
00:03.6,0.002534866,-0.005361557,0.007839203,0,
00:03.6,0.002511978,-0.005350113,0.007787704,0,
00:03.6,0.002506256,-0.005327225,0.007822037,0,
00:03.6,0.002529144,-0.005321503,0.007839203,0,
00:03.6,0.0025177,-0.005327225,0.007844925,0,
00:03.6,0.002529144,-0.005332947,0.007844925,0,
00:03.6,0.002569199,-0.005344391,0.007827759,0,
00:03.6,0.002534866,-0.005344391,0.007839203,0,
00:03.6,0.002529144,-0.005401611,0.007799149,0,
00:03.6,0.002552032,-0.005401611,0.007764816,0,
00:03.6,0.002534866,-0.005361557,0.007793427,0,
00:03.6,0.002529144,-0.005367279,0.007856369,0,
00:03.6,0.002540588,-0.005373001,0.007850647,0,
00:03.7,0.00254631,-0.005361557,0.007833481,0,
00:03.7,0.002540588,-0.005344391,0.007833481,0,
00:03.7,0.002540588,-0.005327225,0.007793427,0,
00:03.7,0.002540588,-0.005315781,0.007804871,0,
00:03.7,0.002529144,-0.005390167,0.007827759,0,
00:03.7,0.002529144,-0.005401611,0.007862091,0,
00:03.7,0.002529144,-0.005384445,0.007844925,0,
00:03.7,0.002534866,-0.005378723,0.007822037,0,
00:03.7,0.002511978,-0.005413055,0.007856369,0,
00:03.7,0.002523422,-0.005430222,0.007833481,0,
00:03.7,0.002540588,-0.005407333,0.007827759,0,
00:03.7,0.002529144,-0.005390167,0.007804871,0,
00:03.7,0.002494812,-0.005350113,0.007793427,0,
00:03.7,0.002443314,-0.005355835,0.007844925,0,
00:03.7,0.00248909,-0.005458832,0.007856369,0,
00:03.7,0.00254631,-0.005350113,0.007873535,0,
00:03.7,0.002569199,-0.005373001,0.007839203,0,
00:03.7,0.002574921,-0.005413055,0.007764816,0,
00:03.7,0.002569199,-0.005407333,0.00777626,0,
00:03.7,0.002540588,-0.005441666,0.007822037,0,
00:03.7,0.002540588,-0.005430222,0.007844925,0,
00:03.7,0.002540588,-0.005418777,0.007822037,0,
00:03.7,0.002534866,-0.005413055,0.007822037,0,
00:03.7,0.00254631,-0.005418777,0.007833481,0,
00:03.7,0.002552032,-0.0054245,0.007816315,0,
00:03.8,0.002552032,-0.005407333,0.007816315,0,
00:03.8,0.002563477,-0.005401611,0.007793427,0,
00:03.8,0.002540588,-0.00545311,0.007793427,0,
00:03.8,0.002534866,-0.005430222,0.007850647,0,
00:03.8,0.002511978,-0.005447388,0.007839203,0,
00:03.8,0.0025177,-0.00548172,0.007833481,0,
00:03.8,0.002523422,-0.005464554,0.007810593,0,
00:03.8,0.002552032,-0.005418777,0.007804871,0,
00:03.8,0.002540588,-0.00545311,0.007850647,0,
00:03.8,0.002552032,-0.005447388,0.007804871,0,
00:03.8,0.002563477,-0.005458832,0.007781982,0,
00:03.8,0.002534866,-0.005498886,0.007764816,0,
00:03.8,0.002534866,-0.005458832,0.007759094,0,
00:03.8,0.00254631,-0.005435944,0.007839203,0,
00:03.8,0.002552032,-0.005395889,0.007816315,0,
00:03.8,0.002557755,-0.005418777,0.007799149,0,
00:03.8,0.002557755,-0.005470276,0.007764816,0,
00:03.8,0.002569199,-0.005464554,0.007759094,0,
00:03.8,0.002534866,-0.005458832,0.007804871,0,
00:03.8,0.002523422,-0.005493164,0.007816315,0,
00:03.8,0.002534866,-0.005493164,0.007816315,0,
00:03.8,0.002552032,-0.005475998,0.007793427,0,
00:03.8,0.002569199,-0.005458832,0.007799149,0,
00:03.8,0.00254631,-0.00548172,0.007793427,0,
00:03.8,0.002506256,-0.005493164,0.007787704,0,
00:03.9,0.002534866,-0.00545311,0.007822037,0,
00:03.9,0.002552032,-0.005504608,0.007884979,0,
00:03.9,0.002557755,-0.005527496,0.007741928,0,
00:03.9,0.002552032,-0.005516052,0.007730484,0,
00:03.9,0.002552032,-0.005493164,0.00774765,0,
00:03.9,0.002557755,-0.005487442,0.007764816,0,
00:03.9,0.002552032,-0.005498886,0.007759094,0,
00:03.9,0.00254631,-0.00551033,0.007764816,0,
00:03.9,0.002552032,-0.005533218,0.007781982,0,
00:03.9,0.002523422,-0.005561829,0.007770538,0,
00:03.9,0.002540588,-0.005498886,0.007753372,0,
00:03.9,0.002552032,-0.005504608,0.00774765,0,
00:03.9,0.002552032,-0.00551033,0.007741928,0,
00:03.9,0.002557755,-0.005498886,0.007730484,0,
00:03.9,0.00254631,-0.00553894,0.007781982,0,
00:03.9,0.002540588,-0.005561829,0.007770538,0,
00:03.9,0.002540588,-0.005521774,0.007736206,0,
00:03.9,0.002534866,-0.005470276,0.007753372,0,
00:03.9,0.002540588,-0.00551033,0.007759094,0,
00:03.9,0.002540588,-0.005573273,0.00774765,0,
00:03.9,0.002540588,-0.005567551,0.007770538,0,
00:03.9,0.002569199,-0.005550385,0.007764816,0,
00:03.9,0.002557755,-0.005521774,0.007741928,0,
00:03.9,0.002557755,-0.005533218,0.007736206,0,
00:03.9,0.002569199,-0.005578995,0.007707596,0,
00:04.0,0.00254631,-0.005584717,0.007707596,0,
00:04.0,0.002534866,-0.00553894,0.00774765,0,
00:04.0,0.002557755,-0.005521774,0.007736206,0,
00:04.0,0.002574921,-0.005521774,0.007707596,0,
00:04.0,0.002557755,-0.005544662,0.007701874,0,
00:04.0,0.002563477,-0.005561829,0.007724762,0,
00:04.0,0.002563477,-0.005561829,0.007713318,0,
00:04.0,0.002557755,-0.005550385,0.007713318,0,
00:04.0,0.002569199,-0.005521774,0.007696152,0,
00:04.0,0.002563477,-0.005573273,0.007701874,0,
00:04.0,0.002552032,-0.005613327,0.00771904,0,
00:04.0,0.002552032,-0.005584717,0.007713318,0,
00:00:04,0.0025177,-0.005590439,0.007730484,0,
00:04.0,0.002563477,-0.005556107,0.007730484,0,
00:04.0,0.002592087,-0.005573273,0.007633209,0,
00:04.0,0.002563477,-0.005596161,0.007650375,0,
00:04.0,0.002552032,-0.005624771,0.007736206,0,
00:04.0,0.002534866,-0.005601883,0.007753372,0,
00:04.0,0.002506256,-0.005573273,0.007741928,0,
00:04.0,0.002574921,-0.005550385,0.007610321,0,
00:04.0,0.002603531,-0.005544662,0.007644653,0,
00:04.0,0.002574921,-0.005607605,0.007684708,0,
00:04.0,0.002557755,-0.005630493,0.007678986,0,
00:04.0,0.002563477,-0.005641937,0.007696152,0,
00:04.0,0.002574921,-0.005584717,0.007616043,0,
00:04.1,0.002574921,-0.005556107,0.007661819,0,
00:04.1,0.002580643,-0.005561829,0.007684708,0,
00:04.1,0.002580643,-0.005590439,0.007661819,0,
00:04.1,0.002574921,-0.005607605,0.007661819,0,
00:04.1,0.002557755,-0.005630493,0.007667542,0,
00:04.1,0.002552032,-0.005659103,0.007650375,0,
00:04.1,0.002569199,-0.005630493,0.007656097,0,
00:04.1,0.002586365,-0.005590439,0.007650375,0,
00:04.1,0.002580643,-0.005590439,0.007650375,0,
00:04.1,0.00254631,-0.005596161,0.007627487,0,
00:04.1,0.002540588,-0.005681992,0.007684708,0,
00:04.1,0.002557755,-0.005687714,0.007656097,0,
00:04.1,0.002569199,-0.005641937,0.007667542,0,
00:04.1,0.002569199,-0.005573273,0.007673264,0,
00:04.1,0.002586365,-0.005584717,0.007684708,0,
00:04.1,0.002609253,-0.005607605,0.007661819,0,
00:04.1,0.002580643,-0.005607605,0.007547379,0,
00:04.1,0.002563477,-0.005664825,0.007575989,0,
00:04.1,0.002552032,-0.005664825,0.007638931,0,
00:04.1,0.002592087,-0.005636215,0.007656097,0,
00:04.1,0.002569199,-0.005636215,0.007621765,0,
00:04.1,0.002580643,-0.005607605,0.007644653,0,
00:04.1,0.002597809,-0.005607605,0.007621765,0,
00:04.1,0.002580643,-0.005647659,0.007598877,0,
00:04.1,0.002563477,-0.005641937,0.007616043,0,
00:04.2,0.002586365,-0.005641937,0.007621765,0,
00:04.2,0.002580643,-0.005659103,0.007610321,0,
00:04.2,0.002586365,-0.005653381,0.007616043,0,
00:04.2,0.002569199,-0.005681992,0.007604599,0,
00:04.2,0.002563477,-0.00570488,0.007598877,0,
00:04.2,0.002574921,-0.005664825,0.007593155,0,
00:04.2,0.002592087,-0.005607605,0.007575989,0,
00:04.2,0.002603531,-0.005613327,0.007593155,0,
00:04.2,0.002580643,-0.005636215,0.007604599,0,
00:04.2,0.002569199,-0.00570488,0.007621765,0,
00:04.2,0.002552032,-0.005710602,0.007616043,0,
00:04.2,0.002557755,-0.005659103,0.007644653,0,
00:04.2,0.002574921,-0.005624771,0.007564545,0,
00:04.2,0.002580643,-0.005647659,0.007604599,0,
00:04.2,0.002626419,-0.005659103,0.007553101,0,
00:04.2,0.002563477,-0.005664825,0.00749588,0,
00:04.2,0.00254631,-0.00567627,0.007587433,0,
00:04.2,0.00254631,-0.005693436,0.007598877,0,
00:04.2,0.002603531,-0.005693436,0.007587433,0,
00:04.2,0.002620697,-0.005659103,0.007593155,0,
00:04.2,0.002597809,-0.005653381,0.007581711,0,
00:04.2,0.002586365,-0.005664825,0.007553101,0,
00:04.2,0.002592087,-0.005659103,0.007547379,0,
00:04.2,0.002603531,-0.005641937,0.007530212,0,
00:04.2,0.002574921,-0.005722046,0.007553101,0,
00:04.3,0.002569199,-0.005716324,0.007570267,0,
00:04.3,0.002563477,-0.005670547,0.007541656,0,
00:04.3,0.002586365,-0.005653381,0.007535934,0,
00:04.3,0.002597809,-0.005670547,0.007587433,0,
00:04.3,0.002609253,-0.005681992,0.007541656,0,
00:04.3,0.002637863,-0.005653381,0.007501602,0,
00:04.3,0.002603531,-0.005613327,0.007490158,0,
00:04.3,0.002529144,-0.005722046,0.007564545,0,
00:04.3,0.002557755,-0.005693436,0.007553101,0,
00:04.3,0.002597809,-0.005693436,0.007518768,0,
00:04.3,0.002569199,-0.005722046,0.007593155,0,
00:04.3,0.002540588,-0.00567627,0.007667542,0,
00:04.3,0.002569199,-0.005647659,0.007535934,0,
00:04.3,0.002563477,-0.005687714,0.007513046,0,
00:04.3,0.002494812,-0.00570488,0.007507324,0,
00:04.3,0.002557755,-0.005710602,0.007484436,0,
00:04.3,0.002655029,-0.00567627,0.00746727,0,
00:04.3,0.002609253,-0.005687714,0.007541656,0,
00:04.3,0.002586365,-0.005722046,0.007530212,0,
00:04.3,0.002586365,-0.00570488,0.007472992,0,
00:04.3,0.002586365,-0.005664825,0.007507324,0,
00:04.3,0.002574921,-0.005722046,0.007541656,0,
00:04.3,0.002586365,-0.005727768,0.007541656,0,
00:04.3,0.002603531,-0.005687714,0.007507324,0,
00:04.3,0.002597809,-0.005664825,0.007501602,0,
00:04.4,0.002597809,-0.005636215,0.007518768,0,
00:04.4,0.002597809,-0.005653381,0.007484436,0,
00:04.4,0.002574921,-0.005710602,0.007513046,0,
00:04.4,0.002557755,-0.00573349,0.007501602,0,
00:04.4,0.002569199,-0.005716324,0.007484436,0,
00:04.4,0.002580643,-0.005687714,0.00749588,0,
00:04.4,0.002580643,-0.005699158,0.00749588,0,
00:04.4,0.002586365,-0.00570488,0.007507324,0,
00:04.4,0.002563477,-0.005681992,0.007541656,0,
00:04.4,0.002500534,-0.005710602,0.007518768,0,
00:04.4,0.00254631,-0.005722046,0.00752449,0,
00:04.4,0.002603531,-0.005744934,0.007472992,0,
00:04.4,0.002609253,-0.005744934,0.007421494,0,
00:04.4,0.002592087,-0.005687714,0.00743866,0,
00:04.4,0.002552032,-0.005659103,0.007484436,0,
00:04.4,0.002569199,-0.005670547,0.007501602,0,
00:04.4,0.002574921,-0.005699158,0.007478714,0,
00:04.4,0.002557755,-0.00570488,0.007432938,0,
00:04.4,0.002563477,-0.005750656,0.007478714,0,
00:04.4,0.002574921,-0.005727768,0.00749588,0,
00:04.4,0.002580643,-0.00567627,0.007472992,0,
00:04.4,0.002557755,-0.005687714,0.007450104,0,
00:04.4,0.002580643,-0.005681992,0.007472992,0,
00:04.4,0.002597809,-0.005641937,0.007444382,0,
00:04.4,0.002580643,-0.005699158,0.007421494,0,
00:04.5,0.002580643,-0.005722046,0.007472992,0,
00:04.5,0.00254631,-0.00573349,0.007484436,0,
00:04.5,0.002506256,-0.00573349,0.007518768,0,
00:04.5,0.00248909,-0.0057621,0.007472992,0,
00:04.5,0.002574921,-0.005699158,0.00743866,0,
00:04.5,0.002574921,-0.00567627,0.007461548,0,
00:04.5,0.002557755,-0.005727768,0.007455826,0,
00:04.5,0.002580643,-0.00570488,0.007415771,0,
00:04.5,0.002580643,-0.00573349,0.007398605,0,
00:04.5,0.002557755,-0.005716324,0.007478714,0,
00:04.5,0.002534866,-0.005716324,0.007455826,0,
00:04.5,0.002569199,-0.005716324,0.007450104,0,
00:04.5,0.002569199,-0.005670547,0.007450104,0,
00:04.5,0.002552032,-0.005687714,0.007427216,0,
00:04.5,0.002563477,-0.005681992,0.007427216,0,
00:04.5,0.002563477,-0.005699158,0.007450104,0,
00:04.5,0.002557755,-0.005739212,0.00743866,0,
00:04.5,0.002557755,-0.0057621,0.007432938,0,
00:04.5,0.002557755,-0.00570488,0.007432938,0,
00:04.5,0.002557755,-0.005670547,0.007427216,0,
00:04.5,0.00254631,-0.005693436,0.007404327,0,
00:04.5,0.002552032,-0.005693436,0.007427216,0,
00:04.5,0.002563477,-0.005722046,0.007392883,0,
00:04.5,0.002552032,-0.005744934,0.00743866,0,
00:04.5,0.002580643,-0.005699158,0.007432938,0,
00:04.6,0.002569199,-0.005693436,0.007427216,0,
00:04.6,0.002534866,-0.005727768,0.007427216,0,
00:04.6,0.0025177,-0.0057621,0.007427216,0,
00:04.6,0.002511978,-0.00573349,0.007421494,0,
00:04.6,0.0025177,-0.005699158,0.007455826,0,
00:04.6,0.002557755,-0.005659103,0.007427216,0,
00:04.6,0.002523422,-0.005716324,0.007450104,0,
00:04.6,0.002540588,-0.005722046,0.007427216,0,
00:04.6,0.002529144,-0.005693436,0.007404327,0,
00:04.6,0.002500534,-0.00573349,0.007415771,0,
00:04.6,0.002552032,-0.005773544,0.007432938,0,
00:04.6,0.002592087,-0.005739212,0.007347107,0,
00:04.6,0.002569199,-0.005693436,0.007364273,0,
00:04.6,0.002557755,-0.005687714,0.007415771,0,
00:04.6,0.002563477,-0.00567627,0.007398605,0,
00:04.6,0.002540588,-0.005716324,0.007392883,0,
00:04.6,0.00254631,-0.00573349,0.007375717,0,
00:04.6,0.002557755,-0.005722046,0.007381439,0,
00:04.6,0.002534866,-0.005727768,0.007415771,0,
00:04.6,0.002529144,-0.00570488,0.007432938,0,
00:04.6,0.002511978,-0.005739212,0.007404327,0,
00:04.6,0.002523422,-0.005756378,0.007398605,0,
00:04.6,0.00254631,-0.005727768,0.007375717,0,
00:04.6,0.002557755,-0.005716324,0.007364273,0,
00:04.6,0.002534866,-0.005767822,0.007392883,0,
00:04.7,0.002534866,-0.00573349,0.007432938,0,
00:04.7,0.002511978,-0.005722046,0.007398605,0,
00:04.7,0.002494812,-0.005710602,0.007410049,0,
00:04.7,0.002523422,-0.005727768,0.007415771,0,
00:04.7,0.002557755,-0.005722046,0.007404327,0,
00:04.7,0.002523422,-0.005699158,0.007444382,0,
00:04.7,0.002494812,-0.005670547,0.007392883,0,
00:04.7,0.002529144,-0.005716324,0.007364273,0,
00:04.7,0.002552032,-0.00573349,0.007335663,0,
00:04.7,0.002540588,-0.005744934,0.007398605,0,
00:04.7,0.0025177,-0.005773544,0.007381439,0,
00:04.7,0.0025177,-0.005756378,0.007375717,0,
00:04.7,0.002529144,-0.005716324,0.007369995,0,
00:04.7,0.002540588,-0.005727768,0.007375717,0,
00:04.7,0.00254631,-0.005744934,0.007364273,0,
00:04.7,0.002534866,-0.0057621,0.007369995,0,
00:04.7,0.00254631,-0.005716324,0.007364273,0,
00:04.7,0.0025177,-0.005716324,0.007387161,0,
00:04.7,0.002523422,-0.00573349,0.007398605,0,
00:04.7,0.002534866,-0.005716324,0.007358551,0,
00:04.7,0.002523422,-0.005739212,0.007358551,0,
00:04.7,0.0025177,-0.0057621,0.007404327,0,
00:04.7,0.002511978,-0.005779266,0.007375717,0,
00:04.7,0.002511978,-0.005773544,0.007364273,0,
00:04.7,0.00248909,-0.005750656,0.007364273,0,
00:04.8,0.002506256,-0.005739212,0.007375717,0,
00:04.8,0.002494812,-0.005750656,0.007432938,0,
00:04.8,0.002506256,-0.005756378,0.007432938,0,
00:04.8,0.0025177,-0.00573349,0.007432938,0,
00:04.8,0.0025177,-0.005727768,0.007341385,0,
00:04.8,0.002540588,-0.005716324,0.007312775,0,
00:04.8,0.002511978,-0.005756378,0.007324219,0,
00:04.8,0.002471924,-0.0057621,0.007392883,0,
00:04.8,0.002466202,-0.005744934,0.007381439,0,
00:04.8,0.002511978,-0.005727768,0.007398605,0,
00:04.8,0.002540588,-0.005750656,0.007347107,0,
00:04.8,0.0025177,-0.00579071,0.007318497,0,
00:04.8,0.00248909,-0.005813599,0.007369995,0,
00:04.8,0.002511978,-0.005779266,0.007369995,0,
00:04.8,0.002511978,-0.005767822,0.007375717,0,
00:04.8,0.002506256,-0.005727768,0.007392883,0,
00:04.8,0.0025177,-0.00573349,0.007352829,0,
00:04.8,0.0025177,-0.0057621,0.007364273,0,
00:04.8,0.002494812,-0.005784988,0.007381439,0,
00:04.8,0.002500534,-0.0057621,0.007369995,0,
00:04.8,0.002494812,-0.0057621,0.007352829,0,
00:04.8,0.002511978,-0.005750656,0.007329941,0,
00:04.8,0.002523422,-0.005750656,0.007335663,0,
00:04.8,0.002506256,-0.005779266,0.007341385,0,
00:04.8,0.002466202,-0.005830765,0.007410049,0,
00:04.9,0.002471924,-0.005830765,0.007369995,0,
00:04.9,0.002511978,-0.00570488,0.007381439,0,
00:04.9,0.002511978,-0.005716324,0.007387161,0,
00:04.9,0.0025177,-0.0057621,0.007329941,0,
00:04.9,0.002511978,-0.005750656,0.007352829,0,
00:04.9,0.002500534,-0.005784988,0.007387161,0,
00:04.9,0.002500534,-0.005802155,0.007364273,0,
00:04.9,0.002500534,-0.005802155,0.007324219,0,
00:04.9,0.002494812,-0.005767822,0.007341385,0,
00:04.9,0.00246048,-0.00579071,0.007398605,0,
00:04.9,0.002471924,-0.005859375,0.007369995,0,
00:04.9,0.00248909,-0.005899429,0.007341385,0,
00:04.9,0.0025177,-0.005802155,0.007352829,0,
00:04.9,0.002534866,-0.005659103,0.007318497,0,
00:04.9,0.00248909,-0.005716324,0.007341385,0,
00:04.9,0.002483368,-0.005750656,0.007387161,0,
00:04.9,0.00248909,-0.005779266,0.007312775,0,
00:04.9,0.002506256,-0.005807877,0.007352829,0,
00:04.9,0.00248909,-0.005807877,0.007375717,0,
00:04.9,0.002494812,-0.00579071,0.007369995,0,
00:04.9,0.002511978,-0.005779266,0.007352829,0,
00:04.9,0.00246048,-0.005836487,0.007335663,0,
00:04.9,0.002454758,-0.005842209,0.007364273,0,
00:04.9,0.002477646,-0.005802155,0.007410049,0,
00:04.9,0.00248909,-0.005767822,0.007358551,0,
00:05.0,0.002500534,-0.005773544,0.007295609,0,
00:05.0,0.002471924,-0.00579071,0.007312775,0,
00:05.0,0.002449036,-0.005813599,0.007415771,0,
00:05.0,0.00243187,-0.005825043,0.007432938,0,
00:05.0,0.002449036,-0.005813599,0.007369995,0,
00:05.0,0.002494812,-0.005802155,0.007329941,0,
00:05.0,0.002466202,-0.005813599,0.007324219,0,
00:05.0,0.002420425,-0.005876541,0.007347107,0,
00:05.0,0.002420425,-0.005859375,0.007375717,0,
00:05.0,0.002471924,-0.0057621,0.007375717,0,
00:05.0,0.002477646,-0.005756378,0.007364273,0,
00:05.0,0.002466202,-0.005779266,0.007341385,0,
00:00:05,0.002483368,-0.005784988,0.007284164,0,
00:05.0,0.002471924,-0.005813599,0.007284164,0,
00:05.0,0.002449036,-0.005836487,0.007335663,0,
00:05.0,0.002443314,-0.005836487,0.007352829,0,
00:05.0,0.002454758,-0.005825043,0.007364273,0,
00:05.0,0.002483368,-0.005807877,0.007307053,0,
00:05.0,0.002449036,-0.005887985,0.007312775,0,
00:05.0,0.00243187,-0.005910873,0.007358551,0,
00:05.0,0.002426147,-0.005859375,0.007352829,0,
00:05.0,0.002443314,-0.00579071,0.007358551,0,
00:05.0,0.002466202,-0.005767822,0.007347107,0,
00:05.0,0.00246048,-0.005784988,0.007352829,0,
00:05.0,0.002449036,-0.005813599,0.007352829,0,
00:05.1,0.002454758,-0.005819321,0.007324219,0,
00:05.1,0.002454758,-0.005825043,0.007307053,0,
00:05.1,0.002437592,-0.005819321,0.007352829,0,
00:05.1,0.002374649,-0.005876541,0.007421494,0,
00:05.1,0.002374649,-0.005933762,0.007455826,0,
00:05.1,0.002397537,-0.005916595,0.007387161,0,
00:05.1,0.002443314,-0.005807877,0.00727272,0,
00:05.1,0.002494812,-0.005739212,0.007307053,0,
00:05.1,0.002477646,-0.005773544,0.007318497,0,
00:05.1,0.002454758,-0.005830765,0.007318497,0,
00:05.1,0.002449036,-0.005813599,0.007301331,0,
00:05.1,0.002443314,-0.005847931,0.007324219,0,
00:05.1,0.002437592,-0.005853653,0.007341385,0,
00:05.1,0.00243187,-0.005847931,0.007307053,0,
00:05.1,0.002437592,-0.005842209,0.007301331,0,
00:05.1,0.00243187,-0.005842209,0.007341385,0,
00:05.1,0.002420425,-0.005916595,0.007347107,0,
00:05.1,0.002397537,-0.005962372,0.007335663,0,
00:05.1,0.002420425,-0.005916595,0.007335663,0,
00:05.1,0.002437592,-0.005813599,0.007347107,0,
00:05.1,0.002449036,-0.0057621,0.007324219,0,
00:05.1,0.002454758,-0.005802155,0.007295609,0,
00:05.1,0.002437592,-0.005836487,0.007301331,0,
00:05.1,0.002420425,-0.005859375,0.007341385,0,
00:05.1,0.00243187,-0.005847931,0.007364273,0,
00:05.2,0.002420425,-0.005859375,0.007347107,0,
00:05.2,0.002397537,-0.005905151,0.007324219,0,
00:05.2,0.002403259,-0.00592804,0.007352829,0,
00:05.2,0.002408981,-0.005842209,0.007341385,0,
00:05.2,0.002437592,-0.005813599,0.007301331,0,
00:05.2,0.002471924,-0.005847931,0.007278442,0,
00:05.2,0.002437592,-0.005853653,0.007289886,0,
00:05.2,0.00243187,-0.005825043,0.007312775,0,
00:05.2,0.002449036,-0.005836487,0.007289886,0,
00:05.2,0.002449036,-0.005870819,0.007324219,0,
00:05.2,0.002426147,-0.005910873,0.007329941,0,
00:05.2,0.002420425,-0.005945206,0.007329941,0,
00:05.2,0.002426147,-0.005910873,0.007301331,0,
00:05.2,0.002449036,-0.005813599,0.007284164,0,
00:05.2,0.002437592,-0.005825043,0.007295609,0,
00:05.2,0.002426147,-0.005865097,0.007329941,0,
00:05.2,0.002420425,-0.005870819,0.007324219,0,
00:05.2,0.002408981,-0.005899429,0.007318497,0,
00:05.2,0.002420425,-0.005893707,0.007284164,0,
00:05.2,0.00243187,-0.005887985,0.007238388,0,
00:05.2,0.00243187,-0.005905151,0.007284164,0,
00:05.2,0.002414703,-0.005859375,0.007307053,0,
00:05.2,0.002397537,-0.005865097,0.007301331,0,
00:05.2,0.002380371,-0.005887985,0.007352829,0,
00:05.2,0.002403259,-0.005893707,0.007341385,0,
00:05.3,0.002437592,-0.005905151,0.00727272,0,
00:05.3,0.002414703,-0.005876541,0.00727272,0,
00:05.3,0.002386093,-0.005870819,0.007295609,0,
00:05.3,0.002408981,-0.005865097,0.007301331,0,
00:05.3,0.002454758,-0.005836487,0.007284164,0,
00:05.3,0.002391815,-0.005899429,0.007301331,0,
00:05.3,0.002386093,-0.005916595,0.007266998,0,
00:05.3,0.00243187,-0.005865097,0.00724411,0,
00:05.3,0.002420425,-0.005847931,0.007295609,0,
00:05.3,0.002408981,-0.005887985,0.007307053,0,
00:05.3,0.002403259,-0.005887985,0.007295609,0,
00:05.3,0.002403259,-0.005899429,0.007261276,0,
00:05.3,0.002414703,-0.005893707,0.007232666,0,
00:05.3,0.002420425,-0.005870819,0.007261276,0,
00:05.3,0.002414703,-0.005876541,0.007289886,0,
00:05.3,0.002397537,-0.005887985,0.007278442,0,
00:05.3,0.002397537,-0.005899429,0.007284164,0,
00:05.3,0.002408981,-0.005905151,0.007284164,0,
00:05.3,0.002397537,-0.005910873,0.00727272,0,
00:05.3,0.002386093,-0.005910873,0.007261276,0,
00:05.3,0.002403259,-0.005916595,0.007284164,0,
00:05.3,0.002408981,-0.005887985,0.007278442,0,
00:05.3,0.002403259,-0.005865097,0.007289886,0,
00:05.3,0.002386093,-0.005893707,0.007266998,0,
00:05.3,0.002408981,-0.005905151,0.00724411,0,
00:05.4,0.002420425,-0.005882263,0.007238388,0,
00:05.4,0.002391815,-0.005836487,0.007307053,0,
00:05.4,0.002351761,-0.005876541,0.007347107,0,
00:05.4,0.002408981,-0.005916595,0.007278442,0,
00:05.4,0.002397537,-0.005882263,0.007255554,0,
00:05.4,0.002380371,-0.005893707,0.0072155,0,
00:05.4,0.002426147,-0.005876541,0.00718689,0,
00:05.4,0.002391815,-0.005865097,0.007226944,0,
00:05.4,0.002346039,-0.005893707,0.007209778,0,
00:05.4,0.002357483,-0.005893707,0.007278442,0,
00:05.4,0.002420425,-0.005876541,0.007255554,0,
00:05.4,0.00246048,-0.005853653,0.007198334,0,
00:05.4,0.002414703,-0.005865097,0.007209778,0,
00:05.4,0.002403259,-0.005887985,0.007226944,0,
00:05.4,0.002391815,-0.005922318,0.007232666,0,
00:05.4,0.002391815,-0.005939484,0.00727272,0,
00:05.4,0.002397537,-0.005922318,0.007238388,0,
00:05.4,0.002397537,-0.005939484,0.00724411,0,
00:05.4,0.002380371,-0.005910873,0.007226944,0,
00:05.4,0.002391815,-0.005887985,0.007204056,0,
00:05.4,0.002403259,-0.005859375,0.00718689,0,
00:05.4,0.002408981,-0.005853653,0.00724411,0,
00:05.4,0.002397537,-0.005870819,0.00727272,0,
00:05.4,0.002386093,-0.005853653,0.007289886,0,
00:05.4,0.002368927,-0.005893707,0.00724411,0,
00:05.5,0.002403259,-0.005922318,0.007152557,0,
00:05.5,0.002408981,-0.005905151,0.007226944,0,
00:05.5,0.002391815,-0.005876541,0.00724411,0,
00:05.5,0.002403259,-0.005859375,0.007209778,0,
00:05.5,0.002386093,-0.005842209,0.007226944,0,
00:05.5,0.002408981,-0.005859375,0.007181168,0,
00:05.5,0.002397537,-0.005899429,0.007175446,0,
00:05.5,0.002380371,-0.005893707,0.007198334,0,
00:05.5,0.002414703,-0.005865097,0.007192612,0,
00:05.5,0.002397537,-0.005870819,0.007181168,0,
00:05.5,0.002374649,-0.005893707,0.007204056,0,
00:05.5,0.002374649,-0.005905151,0.007238388,0,
00:05.5,0.002386093,-0.005899429,0.007204056,0,
00:05.5,0.002386093,-0.005899429,0.007158279,0,
00:05.5,0.002397537,-0.005882263,0.007169724,0,
00:05.5,0.002391815,-0.00592804,0.00718689,0,
00:05.5,0.002374649,-0.005916595,0.007198334,0,
00:05.5,0.002391815,-0.005853653,0.007192612,0,
00:05.5,0.002391815,-0.005853653,0.007158279,0,
00:05.5,0.002380371,-0.005882263,0.007226944,0,
00:05.5,0.002391815,-0.005882263,0.007238388,0,
00:05.5,0.002374649,-0.005882263,0.00718689,0,
00:05.5,0.002391815,-0.005887985,0.00718689,0,
00:05.5,0.002386093,-0.005859375,0.007164001,0,
00:05.5,0.002397537,-0.005819321,0.007169724,0,
00:05.6,0.002403259,-0.005836487,0.007204056,0,
00:05.6,0.002386093,-0.005859375,0.007141113,0,
00:05.6,0.002420425,-0.005842209,0.007129669,0,
00:05.6,0.002386093,-0.005882263,0.007146835,0,
00:05.6,0.002340317,-0.005933762,0.007198334,0,
00:05.6,0.002368927,-0.005899429,0.007169724,0,
00:05.6,0.002403259,-0.005859375,0.007158279,0,
00:05.6,0.002414703,-0.005825043,0.007175446,0,
00:05.6,0.002386093,-0.005882263,0.007181168,0,
00:05.6,0.002397537,-0.005865097,0.007164001,0,
00:05.6,0.002357483,-0.005876541,0.007175446,0,
00:05.6,0.002357483,-0.005859375,0.007204056,0,
00:05.6,0.002397537,-0.005836487,0.007209778,0,
00:05.6,0.002397537,-0.005842209,0.007181168,0,
00:05.6,0.002397537,-0.005865097,0.007112503,0,
00:05.6,0.002397537,-0.005876541,0.007129669,0,
00:05.6,0.002397537,-0.005870819,0.007169724,0,
00:05.6,0.002357483,-0.005893707,0.007141113,0,
00:05.6,0.002334595,-0.005865097,0.007158279,0,
00:05.6,0.002386093,-0.005865097,0.00718689,0,
00:05.6,0.002414703,-0.005870819,0.007101059,0,
00:05.6,0.002397537,-0.005859375,0.007112503,0,
00:05.6,0.002380371,-0.005842209,0.007204056,0,
00:05.6,0.002397537,-0.005830765,0.00718689,0,
00:05.6,0.002414703,-0.005802155,0.007118225,0,
00:05.7,0.002386093,-0.005819321,0.007146835,0,
00:05.7,0.002386093,-0.005836487,0.007221222,0,
00:05.7,0.002374649,-0.00592804,0.007221222,0,
00:05.7,0.002368927,-0.005905151,0.007106781,0,
00:05.7,0.002374649,-0.005876541,0.007129669,0,
00:05.7,0.002403259,-0.005802155,0.007158279,0,
00:05.7,0.002403259,-0.005825043,0.007135391,0,
00:05.7,0.002391815,-0.005836487,0.007118225,0,
00:05.7,0.002386093,-0.005853653,0.007158279,0,
00:05.7,0.002386093,-0.005847931,0.007158279,0,
00:05.7,0.002380371,-0.005842209,0.007164001,0,
00:05.7,0.002374649,-0.005830765,0.007158279,0,
00:05.7,0.002340317,-0.005819321,0.007152557,0,
00:05.7,0.002334595,-0.005853653,0.007164001,0,
00:05.7,0.002391815,-0.005847931,0.00718689,0,
00:05.7,0.002403259,-0.005853653,0.007164001,0,
00:05.7,0.002386093,-0.005865097,0.007135391,0,
00:05.7,0.002386093,-0.005807877,0.007146835,0,
00:05.7,0.00243187,-0.005773544,0.007106781,0,
00:05.7,0.002391815,-0.00579071,0.007123947,0,
00:05.7,0.002351761,-0.005807877,0.007164001,0,
00:05.7,0.002374649,-0.005859375,0.007164001,0,
00:05.7,0.002397537,-0.005842209,0.007083893,0,
00:05.7,0.002403259,-0.005830765,0.007106781,0,
00:05.7,0.002386093,-0.005859375,0.007141113,0,
00:05.8,0.002380371,-0.005836487,0.007146835,0,
00:05.8,0.002380371,-0.005807877,0.007112503,0,
00:05.8,0.002374649,-0.005819321,0.007135391,0,
00:05.8,0.002386093,-0.005819321,0.007118225,0,
00:05.8,0.002380371,-0.005830765,0.007129669,0,
00:05.8,0.002363205,-0.005853653,0.007146835,0,
00:05.8,0.002368927,-0.005859375,0.007135391,0,
00:05.8,0.002374649,-0.005847931,0.007112503,0,
00:05.8,0.002386093,-0.005802155,0.007106781,0,
00:05.8,0.002357483,-0.005802155,0.007141113,0,
00:05.8,0.002305984,-0.005847931,0.007146835,0,
00:05.8,0.002357483,-0.005819321,0.007181168,0,
00:05.8,0.002420425,-0.005784988,0.007175446,0,
00:05.8,0.002420425,-0.005722046,0.007078171,0,
00:05.8,0.002363205,-0.005807877,0.007101059,0,
00:05.8,0.002351761,-0.005819321,0.007112503,0,
00:05.8,0.002408981,-0.005813599,0.007095337,0,
00:05.8,0.002408981,-0.005825043,0.007112503,0,
00:05.8,0.002340317,-0.005813599,0.007141113,0,
00:05.8,0.002328873,-0.005830765,0.007123947,0,
00:05.8,0.002408981,-0.005802155,0.007112503,0,
00:05.8,0.002403259,-0.005807877,0.007089615,0,
00:05.8,0.002386093,-0.005819321,0.007123947,0,
00:05.8,0.002386093,-0.005784988,0.007146835,0,
00:05.8,0.002380371,-0.005802155,0.007118225,0,
00:05.9,0.002386093,-0.005819321,0.007112503,0,
00:05.9,0.002397537,-0.005807877,0.007129669,0,
00:05.9,0.002380371,-0.00579071,0.007129669,0,
00:05.9,0.002386093,-0.005802155,0.007118225,0,
00:05.9,0.002374649,-0.0057621,0.007152557,0,
00:05.9,0.002346039,-0.005784988,0.007175446,0,
00:05.9,0.002386093,-0.005784988,0.007078171,0,
00:05.9,0.002408981,-0.005813599,0.007101059,0,
00:05.9,0.002391815,-0.005802155,0.007089615,0,
00:05.9,0.002374649,-0.005825043,0.007101059,0,
00:05.9,0.002363205,-0.005802155,0.007123947,0,
00:05.9,0.002351761,-0.005767822,0.007123947,0,
00:05.9,0.002368927,-0.005802155,0.007095337,0,
00:05.9,0.002408981,-0.005784988,0.007072449,0,
00:05.9,0.002420425,-0.005773544,0.007106781,0,
00:05.9,0.002380371,-0.005756378,0.007141113,0,
00:05.9,0.002368927,-0.005784988,0.007118225,0,
00:05.9,0.002374649,-0.005802155,0.007118225,0,
00:05.9,0.002380371,-0.005802155,0.007106781,0,
00:05.9,0.002380371,-0.005779266,0.007118225,0,
00:05.9,0.002374649,-0.00579071,0.007101059,0,
00:05.9,0.002368927,-0.005767822,0.007089615,0,
00:05.9,0.002363205,-0.005779266,0.007101059,0,
00:05.9,0.002357483,-0.005750656,0.007141113,0,
00:05.9,0.002334595,-0.005796432,0.007152557,0,
00:06.0,0.002414703,-0.0057621,0.007083893,0,
00:06.0,0.002414703,-0.0057621,0.007061005,0,
00:06.0,0.002403259,-0.005784988,0.007101059,0,
00:06.0,0.002346039,-0.005784988,0.007118225,0,
00:06.0,0.002340317,-0.0057621,0.007146835,0,
00:06.0,0.002391815,-0.005739212,0.007152557,0,
00:06.0,0.002397537,-0.0057621,0.007146835,0,
00:06.0,0.002363205,-0.005819321,0.007038116,0,
00:06.0,0.002340317,-0.005830765,0.00702095,0,
00:06.0,0.002368927,-0.005784988,0.007095337,0,
00:06.0,0.002397537,-0.005727768,0.007135391,0,
00:06.0,0.002380371,-0.005744934,0.007089615,0,
00:00:06,0.002380371,-0.005750656,0.007123947,0,
00:06.0,0.002368927,-0.005750656,0.007112503,0,
00:06.0,0.002351761,-0.005750656,0.007106781,0,
00:06.0,0.002380371,-0.005744934,0.007118225,0,
00:06.0,0.002386093,-0.0057621,0.007095337,0,
00:06.0,0.002386093,-0.0057621,0.007101059,0,
00:06.0,0.002374649,-0.005807877,0.007101059,0,
00:06.0,0.002380371,-0.00579071,0.007095337,0,
00:06.0,0.002368927,-0.005744934,0.007101059,0,
00:06.0,0.002368927,-0.0057621,0.007072449,0,
00:06.0,0.002374649,-0.005739212,0.007106781,0,
00:06.0,0.002357483,-0.005681992,0.007141113,0,
00:06.0,0.002317429,-0.005756378,0.00718689,0,
00:06.1,0.002368927,-0.005807877,0.007095337,0,
00:06.1,0.002368927,-0.005767822,0.007049561,0,
00:06.1,0.002351761,-0.005750656,0.007095337,0,
00:06.1,0.002380371,-0.0057621,0.007135391,0,
00:06.1,0.002397537,-0.005739212,0.007055283,0,
00:06.1,0.002363205,-0.005750656,0.007078171,0,
00:06.1,0.002368927,-0.005739212,0.007129669,0,
00:06.1,0.002374649,-0.005722046,0.007072449,0,
00:06.1,0.002380371,-0.0057621,0.007038116,0,
00:06.1,0.002346039,-0.005756378,0.007175446,0,
00:06.1,0.002363205,-0.005716324,0.007181168,0,
00:06.1,0.002391815,-0.005767822,0.007112503,0,
00:06.1,0.002374649,-0.005784988,0.007049561,0,
00:06.1,0.002380371,-0.005744934,0.007055283,0,
00:06.1,0.002391815,-0.00570488,0.007101059,0,
00:06.1,0.002380371,-0.005716324,0.007106781,0,
00:06.1,0.002363205,-0.005727768,0.007083893,0,
00:06.1,0.002363205,-0.005744934,0.007112503,0,
00:06.1,0.002363205,-0.0057621,0.007106781,0,
00:06.1,0.002368927,-0.005722046,0.007106781,0,
00:06.1,0.002357483,-0.005802155,0.007083893,0,
00:06.1,0.002351761,-0.005825043,0.007118225,0,
00:06.1,0.002380371,-0.00573349,0.007066727,0,
00:06.1,0.002408981,-0.005647659,0.007061005,0,
00:06.1,0.002368927,-0.005664825,0.007123947,0,
00:06.2,0.002334595,-0.005716324,0.007129669,0,
00:06.2,0.002368927,-0.005739212,0.007181168,0,
00:06.2,0.002374649,-0.0057621,0.007135391,0,
00:06.2,0.002386093,-0.00573349,0.007072449,0,
00:06.2,0.002368927,-0.005750656,0.007083893,0,
00:06.2,0.002368927,-0.005756378,0.007032394,0,
00:06.2,0.002363205,-0.005716324,0.007089615,0,
00:06.2,0.002380371,-0.005693436,0.007078171,0,
00:06.2,0.002403259,-0.005681992,0.007078171,0,
00:06.2,0.002374649,-0.00573349,0.007095337,0,
00:06.2,0.002374649,-0.005750656,0.007066727,0,
00:06.2,0.002368927,-0.005722046,0.007089615,0,
00:06.2,0.002363205,-0.005716324,0.007106781,0,
00:06.2,0.002357483,-0.005710602,0.007101059,0,
00:06.2,0.002346039,-0.005722046,0.007135391,0,
00:06.2,0.002386093,-0.005750656,0.007078171,0,
00:06.2,0.002391815,-0.005739212,0.007038116,0,
00:06.2,0.002368927,-0.005727768,0.007083893,0,
00:06.2,0.002351761,-0.005687714,0.007072449,0,
00:06.2,0.002380371,-0.005659103,0.007061005,0,
00:06.2,0.002363205,-0.005699158,0.007129669,0,
00:06.2,0.002351761,-0.005710602,0.007118225,0,
00:06.2,0.002380371,-0.005727768,0.007078171,0,
00:06.2,0.002386093,-0.005693436,0.007118225,0,
00:06.2,0.002328873,-0.005693436,0.007146835,0,
00:06.3,0.002346039,-0.005744934,0.007123947,0,
00:06.3,0.002380371,-0.005756378,0.007101059,0,
00:06.3,0.002386093,-0.00567627,0.007038116,0,
00:06.3,0.002397537,-0.005630493,0.007049561,0,
00:06.3,0.002357483,-0.00570488,0.007072449,0,
00:06.3,0.002323151,-0.005710602,0.007101059,0,
00:06.3,0.002380371,-0.005716324,0.007078171,0,
00:06.3,0.002380371,-0.005722046,0.007066727,0,
00:06.3,0.002346039,-0.005722046,0.007101059,0,
00:06.3,0.002368927,-0.00570488,0.007083893,0,
00:06.3,0.002380371,-0.005710602,0.007078171,0,
00:06.3,0.002351761,-0.005722046,0.007078171,0,
00:06.3,0.002363205,-0.005693436,0.007095337,0,
00:06.3,0.002374649,-0.005681992,0.007078171,0,
00:06.3,0.002368927,-0.005664825,0.007101059,0,
00:06.3,0.002397537,-0.005636215,0.007112503,0,
00:06.3,0.002380371,-0.005641937,0.007089615,0,
00:06.3,0.002334595,-0.005681992,0.007164001,0,
00:06.3,0.002351761,-0.005687714,0.007146835,0,
00:06.3,0.002408981,-0.00570488,0.007055283,0,
00:06.3,0.002374649,-0.005716324,0.007049561,0,
00:06.3,0.002351761,-0.005699158,0.007066727,0,
00:06.3,0.002357483,-0.005681992,0.007101059,0,
00:06.3,0.002300262,-0.005659103,0.007135391,0,
00:06.3,0.002317429,-0.00570488,0.007129669,0,
00:06.4,0.002397537,-0.00567627,0.007066727,0,
00:06.4,0.002386093,-0.005670547,0.007055283,0,
00:06.4,0.002363205,-0.005722046,0.007095337,0,
00:06.4,0.002340317,-0.005750656,0.007106781,0,
00:06.4,0.002357483,-0.005681992,0.007141113,0,
00:06.4,0.002391815,-0.005641937,0.007089615,0,
00:06.4,0.002403259,-0.005601883,0.007043839,0,
00:06.4,0.002403259,-0.005624771,0.007072449,0,
00:06.4,0.002363205,-0.005716324,0.007083893,0,
00:06.4,0.002346039,-0.005756378,0.007118225,0,
00:06.4,0.002357483,-0.005693436,0.007112503,0,
00:06.4,0.002386093,-0.005636215,0.007078171,0,
00:06.4,0.002380371,-0.005653381,0.007083893,0,
00:06.4,0.002368927,-0.005653381,0.007101059,0,
00:06.4,0.002374649,-0.005641937,0.007101059,0,
00:06.4,0.002357483,-0.005687714,0.007146835,0,
00:06.4,0.002357483,-0.005699158,0.007112503,0,
00:06.4,0.002351761,-0.005727768,0.007095337,0,
00:06.4,0.002334595,-0.005681992,0.007089615,0,
00:06.4,0.002317429,-0.005681992,0.007158279,0,
00:06.4,0.002351761,-0.005659103,0.007164001,0,
00:06.4,0.002397537,-0.005653381,0.007141113,0,
00:06.4,0.002408981,-0.005659103,0.007049561,0,
00:06.4,0.002368927,-0.005687714,0.007089615,0,
00:06.4,0.002374649,-0.005647659,0.007101059,0,
00:06.5,0.002380371,-0.005659103,0.007083893,0,
00:06.5,0.002374649,-0.005670547,0.007066727,0,
00:06.5,0.002374649,-0.00567627,0.007089615,0,
00:06.5,0.002363205,-0.005653381,0.007141113,0,
00:06.5,0.002363205,-0.005653381,0.007123947,0,
00:06.5,0.002380371,-0.005647659,0.007112503,0,
00:06.5,0.002368927,-0.00567627,0.007112503,0,
00:06.5,0.002368927,-0.005664825,0.007066727,0,
00:06.5,0.002368927,-0.005670547,0.007095337,0,
00:06.5,0.002374649,-0.005653381,0.007129669,0,
00:06.5,0.002363205,-0.00567627,0.007112503,0,
00:06.5,0.002374649,-0.005659103,0.007089615,0,
00:06.5,0.002374649,-0.005619049,0.007118225,0,
00:06.5,0.002351761,-0.005664825,0.007135391,0,
00:06.5,0.002357483,-0.005681992,0.007112503,0,
00:06.5,0.002386093,-0.005647659,0.007112503,0,
00:06.5,0.002391815,-0.005659103,0.007129669,0,
00:06.5,0.002351761,-0.005687714,0.007129669,0,
00:06.5,0.002317429,-0.005681992,0.007141113,0,
00:06.5,0.002374649,-0.005647659,0.007112503,0,
00:06.5,0.002386093,-0.005601883,0.007129669,0,
00:06.5,0.002374649,-0.005619049,0.007055283,0,
00:06.5,0.002346039,-0.005653381,0.007072449,0,
00:06.5,0.002368927,-0.005659103,0.007141113,0,
00:06.5,0.002386093,-0.005653381,0.007129669,0,
00:06.6,0.002386093,-0.005641937,0.007106781,0,
00:06.6,0.002397537,-0.005647659,0.007112503,0,
00:06.6,0.002380371,-0.005659103,0.007135391,0,
00:06.6,0.002374649,-0.005653381,0.007106781,0,
00:06.6,0.002368927,-0.005664825,0.007112503,0,
00:06.6,0.002386093,-0.005641937,0.007095337,0,
00:06.6,0.002391815,-0.005630493,0.007083893,0,
00:06.6,0.002363205,-0.005641937,0.007118225,0,
00:06.6,0.002368927,-0.005664825,0.007135391,0,
00:06.6,0.002391815,-0.005653381,0.007101059,0,
00:06.6,0.002386093,-0.005636215,0.007078171,0,
00:06.6,0.002380371,-0.005619049,0.007152557,0,
00:06.6,0.002386093,-0.005641937,0.007158279,0,
00:06.6,0.002374649,-0.005613327,0.007106781,0,
00:06.6,0.002346039,-0.005590439,0.007123947,0,
00:06.6,0.002328873,-0.005624771,0.007181168,0,
00:06.6,0.002391815,-0.005664825,0.007152557,0,
00:06.6,0.002386093,-0.005641937,0.007112503,0,
00:06.6,0.002391815,-0.005619049,0.007112503,0,
00:06.6,0.002363205,-0.005630493,0.007089615,0,
00:06.6,0.002363205,-0.005613327,0.007169724,0,
00:06.6,0.002386093,-0.005607605,0.007175446,0,
00:06.6,0.002403259,-0.005590439,0.007089615,0,
00:06.6,0.002397537,-0.005596161,0.007101059,0,
00:06.6,0.002397537,-0.005619049,0.007106781,0,
00:06.7,0.002391815,-0.005653381,0.007118225,0,
00:06.7,0.002380371,-0.005636215,0.007129669,0,
00:06.7,0.002380371,-0.005596161,0.007135391,0,
00:06.7,0.002380371,-0.005619049,0.007141113,0,
00:06.7,0.002363205,-0.005613327,0.007129669,0,
00:06.7,0.002380371,-0.005601883,0.007123947,0,
00:06.7,0.002380371,-0.005636215,0.007129669,0,
00:06.7,0.002380371,-0.005636215,0.007135391,0,
00:06.7,0.002386093,-0.005613327,0.007095337,0,
00:06.7,0.002403259,-0.005584717,0.007112503,0,
00:06.7,0.002386093,-0.005619049,0.007141113,0,
00:06.7,0.002368927,-0.005636215,0.007169724,0,
00:06.7,0.002357483,-0.005590439,0.007146835,0,
00:06.7,0.002368927,-0.005607605,0.007169724,0,
00:06.7,0.002391815,-0.005619049,0.007192612,0,
00:06.7,0.002403259,-0.005601883,0.007123947,0,
00:06.7,0.002403259,-0.005630493,0.007106781,0,
00:06.7,0.002386093,-0.005636215,0.007146835,0,
00:06.7,0.002386093,-0.005624771,0.007135391,0,
00:06.7,0.002380371,-0.005641937,0.007101059,0,
00:06.7,0.002357483,-0.005630493,0.007164001,0,
00:06.7,0.002357483,-0.005590439,0.00718689,0,
00:06.7,0.002374649,-0.005584717,0.007169724,0,
00:06.7,0.002420425,-0.005601883,0.007101059,0,
00:06.7,0.002397537,-0.005624771,0.007118225,0,
00:06.8,0.002403259,-0.005607605,0.007152557,0,
00:06.8,0.002386093,-0.005601883,0.007146835,0,
00:06.8,0.002386093,-0.005613327,0.007146835,0,
00:06.8,0.002391815,-0.005601883,0.007146835,0,
00:06.8,0.002391815,-0.005567551,0.007141113,0,
00:06.8,0.002380371,-0.005550385,0.007169724,0,
00:06.8,0.002380371,-0.005630493,0.007169724,0,
00:06.8,0.002397537,-0.005670547,0.007146835,0,
00:06.8,0.002391815,-0.005630493,0.007141113,0,
00:06.8,0.002374649,-0.005613327,0.007141113,0,
00:06.8,0.002391815,-0.005573273,0.007158279,0,
00:06.8,0.002391815,-0.005596161,0.007123947,0,
00:06.8,0.002374649,-0.005670547,0.007158279,0,
00:06.8,0.002363205,-0.005653381,0.00718689,0,
00:06.8,0.002346039,-0.005601883,0.00718689,0,
00:06.8,0.002403259,-0.005556107,0.007135391,0,
00:06.8,0.00243187,-0.005544662,0.007123947,0,
00:06.8,0.002408981,-0.005578995,0.007192612,0,
00:06.8,0.002414703,-0.005584717,0.007158279,0,
00:06.8,0.002391815,-0.005596161,0.007158279,0,
00:06.8,0.002368927,-0.005607605,0.007181168,0,
00:06.8,0.002380371,-0.005601883,0.007169724,0,
00:06.8,0.002386093,-0.005584717,0.007129669,0,
00:06.8,0.002357483,-0.005573273,0.007164001,0,
00:06.8,0.002363205,-0.005578995,0.007158279,0,
00:06.9,0.002420425,-0.005584717,0.007169724,0,
00:06.9,0.002420425,-0.005584717,0.007169724,0,
00:06.9,0.002397537,-0.005613327,0.007123947,0,
00:06.9,0.002397537,-0.005619049,0.007123947,0,
00:06.9,0.002380371,-0.005630493,0.007175446,0,
00:06.9,0.002391815,-0.005550385,0.007169724,0,
00:06.9,0.002397537,-0.005521774,0.00718689,0,
00:06.9,0.002386093,-0.005590439,0.007175446,0,
00:06.9,0.002380371,-0.005653381,0.007181168,0,
00:06.9,0.002380371,-0.005630493,0.007209778,0,
00:06.9,0.002386093,-0.005607605,0.007175446,0,
00:06.9,0.002397537,-0.005573273,0.007169724,0,
00:06.9,0.002403259,-0.005544662,0.007175446,0,
00:06.9,0.002386093,-0.005550385,0.007192612,0,
00:06.9,0.002380371,-0.005596161,0.007152557,0,
00:06.9,0.002397537,-0.005630493,0.007152557,0,
00:06.9,0.002414703,-0.005573273,0.007181168,0,
00:06.9,0.002391815,-0.005561829,0.007204056,0,
00:06.9,0.002391815,-0.005561829,0.00718689,0,
00:06.9,0.002368927,-0.005590439,0.007198334,0,
00:06.9,0.002386093,-0.005578995,0.007204056,0,
00:06.9,0.002414703,-0.005561829,0.007158279,0,
00:06.9,0.002403259,-0.005556107,0.007146835,0,
00:06.9,0.002391815,-0.005556107,0.007181168,0,
00:06.9,0.002397537,-0.005573273,0.0072155,0,
00:07.0,0.002391815,-0.005596161,0.00718689,0,
00:07.0,0.002391815,-0.005613327,0.007175446,0,
00:07.0,0.002397537,-0.005584717,0.007198334,0,
00:07.0,0.002408981,-0.00553894,0.007175446,0,
00:07.0,0.002414703,-0.00553894,0.00718689,0,
00:07.0,0.002397537,-0.005578995,0.007175446,0,
00:07.0,0.002397537,-0.005573273,0.007209778,0,
00:07.0,0.002397537,-0.005561829,0.0072155,0,
00:07.0,0.002386093,-0.005590439,0.007209778,0,
00:07.0,0.002386093,-0.005607605,0.007181168,0,
00:07.0,0.002380371,-0.005567551,0.007209778,0,
00:07.0,0.002368927,-0.005544662,0.00724411,0,
00:00:07,0.002380371,-0.005556107,0.007232666,0,
00:07.0,0.002357483,-0.005556107,0.007249832,0,
00:07.0,0.002351761,-0.005567551,0.007209778,0,
00:07.0,0.002397537,-0.005590439,0.007175446,0,
00:07.0,0.002374649,-0.005561829,0.007158279,0,
00:07.0,0.002380371,-0.005544662,0.007181168,0,
00:07.0,0.002420425,-0.00553894,0.007198334,0,
00:07.0,0.002397537,-0.005550385,0.00718689,0,
00:07.0,0.002420425,-0.005590439,0.007181168,0,
00:07.0,0.002426147,-0.005578995,0.007181168,0,
00:07.0,0.002414703,-0.005578995,0.007198334,0,
00:07.0,0.002408981,-0.005561829,0.007192612,0,
00:07.0,0.00243187,-0.005527496,0.007181168,0,
00:07.1,0.002408981,-0.005578995,0.007232666,0,
00:07.1,0.002391815,-0.005573273,0.007226944,0,
00:07.1,0.002403259,-0.005584717,0.007204056,0,
00:07.1,0.002391815,-0.005607605,0.007204056,0,
00:07.1,0.002403259,-0.005584717,0.00724411,0,
00:07.1,0.002403259,-0.005550385,0.007232666,0,
00:07.1,0.002386093,-0.005567551,0.007198334,0,
00:07.1,0.002408981,-0.005504608,0.007221222,0,
00:07.1,0.002426147,-0.005521774,0.0072155,0,
00:07.1,0.002386093,-0.005550385,0.007232666,0,
00:07.1,0.002386093,-0.005533218,0.007284164,0,
00:07.1,0.002414703,-0.005544662,0.007289886,0,
00:07.1,0.002397537,-0.005567551,0.007181168,0,
00:07.1,0.002386093,-0.00553894,0.007198334,0,
00:07.1,0.002397537,-0.005556107,0.007255554,0,
00:07.1,0.002420425,-0.005573273,0.007249832,0,
00:07.1,0.00243187,-0.005573273,0.00718689,0,
00:07.1,0.002426147,-0.005550385,0.007198334,0,
00:07.1,0.002414703,-0.005521774,0.007221222,0,
00:07.1,0.002414703,-0.005521774,0.007209778,0,
00:07.1,0.002414703,-0.005561829,0.007226944,0,
00:07.1,0.002420425,-0.005567551,0.007221222,0,
00:07.1,0.002403259,-0.005573273,0.007221222,0,
00:07.1,0.002408981,-0.005544662,0.007261276,0,
00:07.1,0.002408981,-0.00553894,0.007255554,0,
00:07.2,0.002403259,-0.005556107,0.007226944,0,
00:07.2,0.002414703,-0.005584717,0.007226944,0,
00:07.2,0.002403259,-0.005584717,0.007221222,0,
00:07.2,0.002414703,-0.005573273,0.007232666,0,
00:07.2,0.002397537,-0.005544662,0.007249832,0,
00:07.2,0.002380371,-0.005561829,0.007261276,0,
00:07.2,0.002397537,-0.005550385,0.007295609,0,
00:07.2,0.00243187,-0.005493164,0.007289886,0,
00:07.2,0.002414703,-0.005498886,0.007266998,0,
00:07.2,0.002397537,-0.005573273,0.007209778,0,
00:07.2,0.002414703,-0.005556107,0.007232666,0,
00:07.2,0.002403259,-0.005556107,0.007249832,0,
00:07.2,0.002403259,-0.005544662,0.007249832,0,
00:07.2,0.002386093,-0.005504608,0.007266998,0,
00:07.2,0.002426147,-0.005521774,0.007221222,0,
00:07.2,0.002437592,-0.00553894,0.007204056,0,
00:07.2,0.002414703,-0.005584717,0.007261276,0,
00:07.2,0.002420425,-0.005544662,0.007226944,0,
00:07.2,0.002408981,-0.00553894,0.007249832,0,
00:07.2,0.002414703,-0.005544662,0.007255554,0,
00:07.2,0.002426147,-0.005533218,0.007255554,0,
00:07.2,0.00243187,-0.005527496,0.007221222,0,
00:07.2,0.002420425,-0.00551033,0.007238388,0,
00:07.2,0.002403259,-0.00553894,0.00724411,0,
00:07.2,0.002403259,-0.005584717,0.007255554,0,
00:07.3,0.002408981,-0.005567551,0.007266998,0,
00:07.3,0.002408981,-0.005567551,0.007249832,0,
00:07.3,0.002403259,-0.005590439,0.007266998,0,
00:07.3,0.002403259,-0.00553894,0.00727272,0,
00:07.3,0.002408981,-0.005498886,0.007249832,0,
00:07.3,0.002403259,-0.005521774,0.007266998,0,
00:07.3,0.002408981,-0.00551033,0.00727272,0,
00:07.3,0.002408981,-0.005521774,0.007266998,0,
00:07.3,0.002426147,-0.005533218,0.007301331,0,
00:07.3,0.002391815,-0.005533218,0.007318497,0,
00:07.3,0.002351761,-0.00553894,0.007266998,0,
00:07.3,0.002386093,-0.005527496,0.007261276,0,
00:07.3,0.002443314,-0.005533218,0.007238388,0,
00:07.3,0.002408981,-0.005556107,0.007278442,0,
00:07.3,0.002397537,-0.005578995,0.007284164,0,
00:07.3,0.002443314,-0.005527496,0.007261276,0,
00:07.3,0.002443314,-0.005487442,0.007226944,0,
00:07.3,0.002414703,-0.005487442,0.007266998,0,
00:07.3,0.002414703,-0.005493164,0.007289886,0,
00:07.3,0.00243187,-0.005487442,0.007255554,0,
00:07.3,0.002426147,-0.005516052,0.007249832,0,
00:07.3,0.002408981,-0.005533218,0.007289886,0,
00:07.3,0.002408981,-0.005544662,0.00727272,0,
00:07.3,0.002414703,-0.005556107,0.007238388,0,
00:07.3,0.002408981,-0.00553894,0.007295609,0,
00:07.4,0.002414703,-0.005504608,0.007307053,0,
00:07.4,0.002414703,-0.00551033,0.007295609,0,
00:07.4,0.002397537,-0.005533218,0.007301331,0,
00:07.4,0.002408981,-0.00553894,0.007301331,0,
00:07.4,0.002391815,-0.005533218,0.007295609,0,
00:07.4,0.002374649,-0.00551033,0.007312775,0,
00:07.4,0.002403259,-0.005493164,0.007307053,0,
00:07.4,0.002426147,-0.005544662,0.007255554,0,
00:07.4,0.00243187,-0.005584717,0.007295609,0,
00:07.4,0.00243187,-0.005498886,0.007295609,0,
00:07.4,0.002403259,-0.005470276,0.007255554,0,
00:07.4,0.002414703,-0.005498886,0.007278442,0,
00:07.4,0.002426147,-0.00551033,0.007249832,0,
00:07.4,0.002437592,-0.00551033,0.007255554,0,
00:07.4,0.002414703,-0.00551033,0.007324219,0,
00:07.4,0.002414703,-0.00551033,0.007312775,0,
00:07.4,0.002426147,-0.005516052,0.007301331,0,
00:07.4,0.002443314,-0.005527496,0.00727272,0,
00:07.4,0.00243187,-0.00548172,0.007221222,0,
00:07.4,0.002391815,-0.005487442,0.007307053,0,
00:07.4,0.002403259,-0.00548172,0.007329941,0,
00:07.4,0.002414703,-0.005504608,0.007358551,0,
00:07.4,0.002426147,-0.00551033,0.007341385,0,
00:07.4,0.002414703,-0.005521774,0.007295609,0,
00:07.4,0.002414703,-0.005504608,0.007324219,0,
00:07.5,0.002420425,-0.00551033,0.007312775,0,
00:07.5,0.002408981,-0.005533218,0.007307053,0,
00:07.5,0.002414703,-0.005516052,0.007307053,0,
00:07.5,0.002386093,-0.00551033,0.007307053,0,
00:07.5,0.002368927,-0.005527496,0.007352829,0,
00:07.5,0.002408981,-0.005493164,0.007295609,0,
00:07.5,0.002374649,-0.005498886,0.007238388,0,
00:07.5,0.002443314,-0.005516052,0.007232666,0,
00:07.5,0.002449036,-0.00551033,0.007329941,0,
00:07.5,0.002414703,-0.005521774,0.007352829,0,
00:07.5,0.002403259,-0.005527496,0.007335663,0,
00:07.5,0.002414703,-0.005504608,0.007324219,0,
00:07.5,0.002414703,-0.005493164,0.007329941,0,
00:07.5,0.00243187,-0.00548172,0.007318497,0,
00:07.5,0.00243187,-0.005464554,0.007301331,0,
00:07.5,0.002408981,-0.005470276,0.007312775,0,
00:07.5,0.002408981,-0.005458832,0.007335663,0,
00:07.5,0.002500534,-0.005418777,0.007255554,0,
00:07.5,0.00246048,-0.00551033,0.007249832,0,
00:07.5,0.002403259,-0.005533218,0.007312775,0,
00:07.5,0.002397537,-0.005521774,0.007347107,0,
00:07.5,0.002403259,-0.005498886,0.007352829,0,
00:07.5,0.002414703,-0.005498886,0.007358551,0,
00:07.5,0.002408981,-0.005521774,0.007318497,0,
00:07.5,0.002414703,-0.005498886,0.007335663,0,
00:07.6,0.002420425,-0.005475998,0.007335663,0,
00:07.6,0.002397537,-0.00548172,0.007329941,0,
00:07.6,0.002403259,-0.005487442,0.007364273,0,
00:07.6,0.00246048,-0.005464554,0.007329941,0,
00:07.6,0.00243187,-0.005533218,0.007295609,0,
00:07.6,0.002397537,-0.005556107,0.007318497,0,
00:07.6,0.002374649,-0.005441666,0.007341385,0,
00:07.6,0.002380371,-0.005435944,0.007324219,0,
00:07.6,0.002437592,-0.005498886,0.0072155,0,
00:07.6,0.002397537,-0.005475998,0.007312775,0,
00:07.6,0.002386093,-0.005487442,0.007398605,0,
00:07.6,0.002437592,-0.005527496,0.007352829,0,
00:07.6,0.002426147,-0.005550385,0.007341385,0,
00:07.6,0.002437592,-0.005493164,0.007307053,0,
00:07.6,0.002443314,-0.00545311,0.007329941,0,
00:07.6,0.002449036,-0.005435944,0.007329941,0,
00:07.6,0.002454758,-0.005418777,0.007329941,0,
00:07.6,0.002420425,-0.005475998,0.007347107,0,
00:07.6,0.002420425,-0.005498886,0.007341385,0,
00:07.6,0.002408981,-0.005498886,0.007312775,0,
00:07.6,0.002420425,-0.005493164,0.007358551,0,
00:07.6,0.002443314,-0.005464554,0.007358551,0,
00:07.6,0.00243187,-0.005458832,0.007329941,0,
00:07.6,0.002414703,-0.005470276,0.007364273,0,
00:07.6,0.002380371,-0.005498886,0.007364273,0,
00:07.7,0.002397537,-0.005470276,0.007375717,0,
00:07.7,0.00243187,-0.005470276,0.007324219,0,
00:07.7,0.002443314,-0.005493164,0.007301331,0,
00:07.7,0.002437592,-0.005498886,0.007312775,0,
00:07.7,0.002437592,-0.005458832,0.007358551,0,
00:07.7,0.002408981,-0.005458832,0.007358551,0,
00:07.7,0.002420425,-0.005475998,0.007369995,0,
00:07.7,0.002443314,-0.005475998,0.007375717,0,
00:07.7,0.002420425,-0.005527496,0.007358551,0,
00:07.7,0.002414703,-0.005544662,0.007329941,0,
00:07.7,0.002426147,-0.005464554,0.007335663,0,
00:07.7,0.002449036,-0.005407333,0.007335663,0,
00:07.7,0.002449036,-0.005401611,0.007301331,0,
00:07.7,0.002420425,-0.005447388,0.007318497,0,
00:07.7,0.002420425,-0.00545311,0.007347107,0,
00:07.7,0.002403259,-0.005464554,0.007392883,0,
00:07.7,0.002408981,-0.005418777,0.007455826,0,
00:07.7,0.002414703,-0.005475998,0.007352829,0,
00:07.7,0.00243187,-0.00551033,0.007278442,0,
00:07.7,0.002408981,-0.005504608,0.007318497,0,
00:07.7,0.002426147,-0.005447388,0.007347107,0,
00:07.7,0.00243187,-0.005413055,0.007369995,0,
00:07.7,0.00243187,-0.005447388,0.007375717,0,
00:07.7,0.00243187,-0.00545311,0.007369995,0,
00:07.7,0.002426147,-0.005475998,0.007364273,0,
00:07.8,0.002414703,-0.00551033,0.007358551,0,
00:07.8,0.002403259,-0.005527496,0.007358551,0,
00:07.8,0.002391815,-0.005441666,0.007358551,0,
00:07.8,0.002403259,-0.005395889,0.007381439,0,
00:07.8,0.00243187,-0.005407333,0.007410049,0,
00:07.8,0.00246048,-0.005407333,0.007387161,0,
00:07.8,0.002426147,-0.005435944,0.007381439,0,
00:07.8,0.002437592,-0.00545311,0.007301331,0,
00:07.8,0.002420425,-0.00548172,0.007341385,0,
00:07.8,0.002408981,-0.00548172,0.007381439,0,
00:07.8,0.002426147,-0.005458832,0.007392883,0,
00:07.8,0.002408981,-0.005464554,0.007392883,0,
00:07.8,0.002408981,-0.005470276,0.007341385,0,
00:07.8,0.002437592,-0.005430222,0.007341385,0,
00:07.8,0.002449036,-0.005401611,0.007364273,0,
00:07.8,0.002466202,-0.005401611,0.007358551,0,
00:07.8,0.00243187,-0.005441666,0.007369995,0,
00:07.8,0.002414703,-0.005475998,0.007364273,0,
00:07.8,0.00243187,-0.005464554,0.007375717,0,
00:07.8,0.00243187,-0.005435944,0.007398605,0,
00:07.8,0.00243187,-0.005458832,0.007415771,0,
00:07.8,0.002437592,-0.005470276,0.007387161,0,
00:07.8,0.002408981,-0.005493164,0.007369995,0,
00:07.8,0.002397537,-0.00548172,0.007369995,0,
00:07.8,0.002386093,-0.005441666,0.007387161,0,
00:07.9,0.002420425,-0.005407333,0.007398605,0,
00:07.9,0.00248909,-0.005378723,0.007392883,0,
00:07.9,0.002477646,-0.005390167,0.007341385,0,
00:07.9,0.002449036,-0.005413055,0.007289886,0,
00:07.9,0.002403259,-0.005447388,0.007410049,0,
00:07.9,0.002420425,-0.005441666,0.007410049,0,
00:07.9,0.002414703,-0.005413055,0.007369995,0,
00:07.9,0.002368927,-0.005493164,0.007404327,0,
00:07.9,0.002391815,-0.005493164,0.007398605,0,
00:07.9,0.002449036,-0.005458832,0.007358551,0,
00:07.9,0.002449036,-0.005401611,0.007404327,0,
00:07.9,0.002443314,-0.005395889,0.007392883,0,
00:07.9,0.00246048,-0.005390167,0.007335663,0,
00:07.9,0.002449036,-0.005401611,0.007358551,0,
00:07.9,0.002437592,-0.005441666,0.007410049,0,
00:07.9,0.002426147,-0.005470276,0.007398605,0,
00:07.9,0.002420425,-0.005464554,0.007398605,0,
00:07.9,0.002426147,-0.005441666,0.007387161,0,
00:07.9,0.00243187,-0.005413055,0.007404327,0,
00:07.9,0.00243187,-0.005435944,0.007410049,0,
00:07.9,0.002403259,-0.005470276,0.007381439,0,
00:07.9,0.002426147,-0.005430222,0.007392883,0,
00:07.9,0.002449036,-0.005395889,0.007415771,0,
00:07.9,0.002437592,-0.005390167,0.007358551,0,
00:07.9,0.002426147,-0.005401611,0.007375717,0,
00:08.0,0.002437592,-0.005407333,0.007392883,0,
00:08.0,0.002443314,-0.005373001,0.007381439,0,
00:08.0,0.002466202,-0.005390167,0.007375717,0,
00:08.0,0.002437592,-0.005458832,0.007369995,0,
00:08.0,0.002414703,-0.005458832,0.007404327,0,
00:08.0,0.002414703,-0.005418777,0.00743866,0,
00:08.0,0.002420425,-0.0054245,0.007415771,0,
00:08.0,0.002443314,-0.005401611,0.007398605,0,
00:08.0,0.002426147,-0.005390167,0.007381439,0,
00:08.0,0.002397537,-0.005441666,0.007410049,0,
00:08.0,0.002403259,-0.005447388,0.007421494,0,
00:08.0,0.002449036,-0.0054245,0.007381439,0,
00:00:08,0.002454758,-0.005395889,0.007381439,0,
00:08.0,0.00246048,-0.005384445,0.007392883,0,
00:08.0,0.002454758,-0.005361557,0.007358551,0,
00:08.0,0.002426147,-0.0054245,0.007381439,0,
00:08.0,0.002408981,-0.005487442,0.007421494,0,
00:08.0,0.002414703,-0.005435944,0.007415771,0,
00:08.0,0.00243187,-0.005407333,0.007392883,0,
00:08.0,0.002437592,-0.005413055,0.007427216,0,
00:08.0,0.002437592,-0.005378723,0.007415771,0,
00:08.0,0.002437592,-0.005384445,0.007392883,0,
00:08.0,0.002426147,-0.005401611,0.007404327,0,
00:08.0,0.002408981,-0.005395889,0.007444382,0,
00:08.0,0.00243187,-0.005395889,0.007410049,0,
00:08.1,0.002449036,-0.005413055,0.007375717,0,
00:08.1,0.00246048,-0.005401611,0.007398605,0,
00:08.1,0.002437592,-0.005418777,0.007421494,0,
00:08.1,0.002397537,-0.005395889,0.007444382,0,
00:08.1,0.002391815,-0.005384445,0.00749588,0,
00:08.1,0.002471924,-0.005407333,0.007387161,0,
00:08.1,0.002454758,-0.005418777,0.007358551,0,
00:08.1,0.002397537,-0.005430222,0.007421494,0,
00:08.1,0.002414703,-0.00545311,0.007404327,0,
00:08.1,0.002449036,-0.005367279,0.007381439,0,
00:08.1,0.002437592,-0.005327225,0.007329941,0,
00:08.1,0.002454758,-0.005344391,0.007432938,0,
00:08.1,0.002443314,-0.005395889,0.007490158,0,
00:08.1,0.00243187,-0.005413055,0.007421494,0,
00:08.1,0.002443314,-0.005390167,0.007392883,0,
00:08.1,0.002437592,-0.005390167,0.007444382,0,
00:08.1,0.002426147,-0.005395889,0.007421494,0,
00:08.1,0.00243187,-0.005441666,0.007432938,0,
00:08.1,0.00243187,-0.00545311,0.007421494,0,
00:08.1,0.002449036,-0.005378723,0.007415771,0,
00:08.1,0.002449036,-0.005355835,0.007421494,0,
00:08.1,0.002420425,-0.005395889,0.00743866,0,
00:08.1,0.002414703,-0.005413055,0.007415771,0,
00:08.1,0.002443314,-0.005418777,0.007450104,0,
00:08.1,0.002437592,-0.005441666,0.007392883,0,
00:08.2,0.002414703,-0.005384445,0.007375717,0,
00:08.2,0.002414703,-0.005355835,0.007444382,0,
00:08.2,0.002466202,-0.005361557,0.007472992,0,
00:08.2,0.002449036,-0.005350113,0.007432938,0,
00:08.2,0.002408981,-0.005367279,0.007427216,0,
00:08.2,0.00243187,-0.005373001,0.007410049,0,
00:08.2,0.002466202,-0.005378723,0.007404327,0,
00:08.2,0.002449036,-0.005395889,0.007410049,0,
00:08.2,0.002443314,-0.005378723,0.007432938,0,
00:08.2,0.002449036,-0.005378723,0.00743866,0,
00:08.2,0.002443314,-0.005378723,0.007432938,0,
00:08.2,0.002443314,-0.005361557,0.007404327,0,
00:08.2,0.00243187,-0.005378723,0.007421494,0,
00:08.2,0.002426147,-0.005390167,0.00743866,0,
00:08.2,0.002437592,-0.005413055,0.007432938,0,
00:08.2,0.00243187,-0.005390167,0.007455826,0,
00:08.2,0.002420425,-0.005373001,0.007444382,0,
00:08.2,0.002386093,-0.005441666,0.007472992,0,
00:08.2,0.002408981,-0.005413055,0.007478714,0,
00:08.2,0.002466202,-0.005355835,0.007392883,0,
00:08.2,0.002420425,-0.005395889,0.007450104,0,
00:08.2,0.002408981,-0.005401611,0.007490158,0,
00:08.2,0.002454758,-0.005350113,0.007415771,0,
00:08.2,0.002449036,-0.005373001,0.007404327,0,
00:08.2,0.002454758,-0.005378723,0.007410049,0,
00:08.3,0.002443314,-0.005378723,0.007421494,0,
00:08.3,0.002426147,-0.005361557,0.007432938,0,
00:08.3,0.002437592,-0.005338669,0.007444382,0,
00:08.3,0.00246048,-0.005344391,0.007427216,0,
00:08.3,0.00246048,-0.005332947,0.007415771,0,
00:08.3,0.002420425,-0.005384445,0.007455826,0,
00:08.3,0.002420425,-0.005407333,0.007450104,0,
00:08.3,0.002454758,-0.005367279,0.007421494,0,
00:08.3,0.002449036,-0.005327225,0.007415771,0,
00:08.3,0.002437592,-0.005355835,0.007432938,0,
00:08.3,0.002426147,-0.005384445,0.007432938,0,
00:08.3,0.002403259,-0.005401611,0.007450104,0,
00:08.3,0.00243187,-0.005367279,0.007472992,0,
00:08.3,0.002454758,-0.005355835,0.007461548,0,
00:08.3,0.002437592,-0.0054245,0.007450104,0,
00:08.3,0.002426147,-0.005441666,0.007432938,0,
00:08.3,0.002437592,-0.005315781,0.007461548,0,
00:08.3,0.002426147,-0.005304337,0.007507324,0,
00:08.3,0.002414703,-0.005344391,0.00749588,0,
00:08.3,0.002449036,-0.005344391,0.007398605,0,
00:08.3,0.002449036,-0.005350113,0.007398605,0,
00:08.3,0.002426147,-0.005367279,0.00746727,0,
00:08.3,0.00243187,-0.005373001,0.00749588,0,
00:08.3,0.002443314,-0.005384445,0.007432938,0,
00:08.3,0.00243187,-0.005373001,0.007352829,0,
00:08.4,0.002437592,-0.005367279,0.007450104,0,
00:08.4,0.002454758,-0.005350113,0.007484436,0,
00:08.4,0.002437592,-0.005321503,0.007478714,0,
00:08.4,0.00243187,-0.005367279,0.007444382,0,
00:08.4,0.002437592,-0.005384445,0.007444382,0,
00:08.4,0.002437592,-0.005384445,0.00746727,0,
00:08.4,0.002449036,-0.005332947,0.007461548,0,
00:08.4,0.002437592,-0.005327225,0.007450104,0,
00:08.4,0.00243187,-0.005338669,0.007461548,0,
00:08.4,0.002437592,-0.005367279,0.00746727,0,
00:08.4,0.002454758,-0.005373001,0.007455826,0,
00:08.4,0.002454758,-0.005321503,0.00746727,0,
00:08.4,0.002443314,-0.005298615,0.007461548,0,
00:08.4,0.002443314,-0.005321503,0.007472992,0,
00:08.4,0.002426147,-0.005355835,0.007450104,0,
00:08.4,0.002403259,-0.005361557,0.007461548,0,
00:08.4,0.002426147,-0.005344391,0.00749588,0,
00:08.4,0.002443314,-0.005355835,0.007484436,0,
00:08.4,0.002443314,-0.005355835,0.007518768,0,
00:08.4,0.002437592,-0.005367279,0.007444382,0,
00:08.4,0.002454758,-0.005367279,0.007444382,0,
00:08.4,0.002437592,-0.005367279,0.007432938,0,
00:08.4,0.00243187,-0.005315781,0.007461548,0,
00:08.4,0.002420425,-0.005327225,0.007450104,0,
00:08.4,0.002426147,-0.005332947,0.007490158,0,
00:08.5,0.002443314,-0.005321503,0.00749588,0,
00:08.5,0.002443314,-0.005292892,0.007421494,0,
00:08.5,0.002437592,-0.005338669,0.007444382,0,
00:08.5,0.00243187,-0.005367279,0.007490158,0,
00:08.5,0.002437592,-0.005350113,0.007490158,0,
00:08.5,0.00243187,-0.005338669,0.00746727,0,
00:08.5,0.002426147,-0.005344391,0.00743866,0,
00:08.5,0.002426147,-0.005367279,0.007444382,0,
00:08.5,0.002454758,-0.005298615,0.007461548,0,
00:08.5,0.002443314,-0.005275726,0.007472992,0,
00:08.5,0.002386093,-0.005321503,0.007547379,0,
00:08.5,0.002420425,-0.005344391,0.007518768,0,
00:08.5,0.002449036,-0.005355835,0.007427216,0,
00:08.5,0.002414703,-0.005355835,0.00746727,0,
00:08.5,0.002414703,-0.005332947,0.007501602,0,
00:08.5,0.002426147,-0.005292892,0.007450104,0,
00:08.5,0.002443314,-0.005315781,0.00746727,0,
00:08.5,0.002420425,-0.005378723,0.007444382,0,
00:08.5,0.002449036,-0.0054245,0.007461548,0,
00:08.5,0.002449036,-0.005384445,0.007490158,0,
00:08.5,0.00243187,-0.005252838,0.007501602,0,
00:08.5,0.002426147,-0.005241394,0.007478714,0,
00:08.5,0.00243187,-0.00528717,0.007513046,0,
00:08.5,0.002437592,-0.005298615,0.007461548,0,
00:08.5,0.002426147,-0.005304337,0.007450104,0,
00:08.6,0.002426147,-0.005304337,0.00749588,0,
00:08.6,0.002426147,-0.005332947,0.007501602,0,
00:08.6,0.00243187,-0.005350113,0.007518768,0,
00:08.6,0.00243187,-0.005332947,0.00746727,0,
00:08.6,0.002426147,-0.005327225,0.007455826,0,
00:08.6,0.002414703,-0.005344391,0.007484436,0,
00:08.6,0.002408981,-0.005344391,0.007490158,0,
00:08.6,0.002414703,-0.005332947,0.00749588,0,
00:08.6,0.002426147,-0.005315781,0.007484436,0,
00:08.6,0.00243187,-0.005315781,0.00746727,0,
00:08.6,0.002420425,-0.005338669,0.00743866,0,
00:08.6,0.002426147,-0.005350113,0.007478714,0,
00:08.6,0.002420425,-0.005321503,0.007513046,0,
00:08.6,0.00243187,-0.005292892,0.007530212,0,
00:08.6,0.002449036,-0.005275726,0.007478714,0,
00:08.6,0.00243187,-0.00525856,0.007490158,0,
00:08.6,0.002397537,-0.005298615,0.007530212,0,
00:08.6,0.002391815,-0.005310059,0.00749588,0,
00:08.6,0.002437592,-0.005304337,0.007455826,0,
00:08.6,0.002449036,-0.005304337,0.00746727,0,
00:08.6,0.00246048,-0.005315781,0.007507324,0,
00:08.6,0.002454758,-0.005338669,0.007518768,0,
00:08.6,0.002454758,-0.005327225,0.00749588,0,
00:08.6,0.002420425,-0.005321503,0.007455826,0,
00:08.6,0.002426147,-0.005321503,0.007450104,0,
00:08.7,0.002426147,-0.005304337,0.007472992,0,
00:08.7,0.002437592,-0.005275726,0.007501602,0,
00:08.7,0.002426147,-0.00528717,0.00746727,0,
00:08.7,0.002403259,-0.005332947,0.007478714,0,
00:08.7,0.00243187,-0.005332947,0.007518768,0,
00:08.7,0.002437592,-0.005327225,0.007484436,0,
00:08.7,0.002403259,-0.005373001,0.007478714,0,
00:08.7,0.002391815,-0.005378723,0.007518768,0,
00:08.7,0.00243187,-0.005327225,0.007518768,0,
00:08.7,0.002437592,-0.005252838,0.007513046,0,
00:08.7,0.002437592,-0.005235672,0.007484436,0,
00:08.7,0.002391815,-0.005264282,0.007501602,0,
00:08.7,0.002368927,-0.005310059,0.007513046,0,
00:08.7,0.00246048,-0.005304337,0.007518768,0,
00:08.7,0.002449036,-0.005304337,0.007541656,0,
00:08.7,0.002426147,-0.005281448,0.007461548,0,
00:08.7,0.002426147,-0.00528717,0.007472992,0,
00:08.7,0.002449036,-0.005275726,0.007490158,0,
00:08.7,0.002414703,-0.005310059,0.007490158,0,
00:08.7,0.002403259,-0.005327225,0.007484436,0,
00:08.7,0.002437592,-0.005321503,0.007501602,0,
00:08.7,0.002449036,-0.005315781,0.007513046,0,
00:08.7,0.00243187,-0.005310059,0.007484436,0,
00:08.7,0.002443314,-0.00528717,0.00749588,0,
00:08.7,0.002437592,-0.00528717,0.007501602,0,
00:08.8,0.00243187,-0.005304337,0.007530212,0,
00:08.8,0.002437592,-0.005315781,0.007507324,0,
00:08.8,0.002426147,-0.005332947,0.00749588,0,
00:08.8,0.002426147,-0.005298615,0.007535934,0,
00:08.8,0.00243187,-0.005298615,0.00749588,0,
00:08.8,0.002437592,-0.00528717,0.007484436,0,
00:08.8,0.00243187,-0.005310059,0.007518768,0,
00:08.8,0.002426147,-0.005315781,0.007513046,0,
00:08.8,0.002408981,-0.005350113,0.007507324,0,
00:08.8,0.002408981,-0.005327225,0.007513046,0,
00:08.8,0.002386093,-0.005247116,0.007518768,0,
00:08.8,0.002420425,-0.00522995,0.007553101,0,
00:08.8,0.002443314,-0.005298615,0.007518768,0,
00:08.8,0.002454758,-0.005332947,0.007432938,0,
00:08.8,0.002449036,-0.005292892,0.007444382,0,
00:08.8,0.002426147,-0.005270004,0.007507324,0,
00:08.8,0.002437592,-0.005292892,0.00752449,0,
00:08.8,0.002420425,-0.005304337,0.007535934,0,
00:08.8,0.002420425,-0.005310059,0.007530212,0,
00:08.8,0.002420425,-0.005304337,0.007478714,0,
00:08.8,0.00243187,-0.005270004,0.007513046,0,
00:08.8,0.002426147,-0.005310059,0.007530212,0,
00:08.8,0.002437592,-0.005315781,0.007530212,0,
00:08.8,0.002437592,-0.005281448,0.00749588,0,
00:08.8,0.002454758,-0.005264282,0.007501602,0,
00:08.9,0.002420425,-0.005315781,0.00752449,0,
00:08.9,0.002426147,-0.005270004,0.00749588,0,
00:08.9,0.002414703,-0.005327225,0.00752449,0,
00:08.9,0.002414703,-0.005332947,0.007535934,0,
00:08.9,0.002426147,-0.005270004,0.007535934,0,
00:08.9,0.002443314,-0.005247116,0.00752449,0,
00:08.9,0.002414703,-0.005281448,0.007478714,0,
00:08.9,0.002380371,-0.00528717,0.00752449,0,
00:08.9,0.002403259,-0.005298615,0.007598877,0,
00:08.9,0.002426147,-0.005298615,0.007530212,0,
00:08.9,0.002443314,-0.005270004,0.007507324,0,
00:08.9,0.00246048,-0.005281448,0.007518768,0,
00:08.9,0.00243187,-0.005321503,0.007518768,0,
00:08.9,0.002426147,-0.005315781,0.007518768,0,
00:08.9,0.002443314,-0.00528717,0.00749588,0,
00:08.9,0.002437592,-0.00525856,0.00752449,0,
00:08.9,0.002426147,-0.005281448,0.007535934,0,
00:08.9,0.002437592,-0.005264282,0.007507324,0,
00:08.9,0.00243187,-0.005270004,0.007501602,0,
00:08.9,0.002420425,-0.005292892,0.007513046,0,
00:08.9,0.00243187,-0.005298615,0.007530212,0,
00:08.9,0.002426147,-0.00528717,0.007553101,0,
00:08.9,0.002426147,-0.005298615,0.007530212,0,
00:08.9,0.002420425,-0.005310059,0.00752449,0,
00:08.9,0.002414703,-0.005315781,0.007518768,0,
00:09.0,0.002420425,-0.005247116,0.00752449,0,
00:09.0,0.002426147,-0.005252838,0.00752449,0,
00:09.0,0.00243187,-0.005270004,0.007518768,0,
00:09.0,0.00243187,-0.005298615,0.007541656,0,
00:09.0,0.002414703,-0.005304337,0.007535934,0,
00:09.0,0.002408981,-0.005281448,0.007541656,0,
00:09.0,0.002420425,-0.005270004,0.007535934,0,
00:09.0,0.002403259,-0.005275726,0.007616043,0,
00:09.0,0.002426147,-0.005264282,0.007547379,0,
00:09.0,0.002471924,-0.005264282,0.007444382,0,
00:09.0,0.002443314,-0.005270004,0.007461548,0,
00:09.0,0.00243187,-0.00528717,0.007513046,0,
00:00:09,0.00243187,-0.00528717,0.007553101,0,
00:09.0,0.002420425,-0.005298615,0.007581711,0,
00:09.0,0.002426147,-0.005292892,0.007558823,0,
00:09.0,0.002414703,-0.00528717,0.007547379,0,
00:09.0,0.002426147,-0.005275726,0.007535934,0,
00:09.0,0.002426147,-0.00528717,0.00752449,0,
00:09.0,0.002414703,-0.005327225,0.007553101,0,
00:09.0,0.00243187,-0.005327225,0.007535934,0,
00:09.0,0.002420425,-0.005292892,0.007507324,0,
00:09.0,0.002426147,-0.005275726,0.007535934,0,
00:09.0,0.002437592,-0.005252838,0.007564545,0,
00:09.0,0.00243187,-0.00525856,0.007518768,0,
00:09.0,0.002426147,-0.005270004,0.007535934,0,
00:09.1,0.002426147,-0.005264282,0.007570267,0,
00:09.1,0.002414703,-0.005252838,0.007547379,0,
00:09.1,0.00243187,-0.00525856,0.007558823,0,
00:09.1,0.00243187,-0.005292892,0.007541656,0,
00:09.1,0.002426147,-0.00528717,0.007547379,0,
00:09.1,0.002420425,-0.005264282,0.007553101,0,
00:09.1,0.002403259,-0.005252838,0.007575989,0,
00:09.1,0.002391815,-0.005281448,0.007610321,0,
00:09.1,0.00246048,-0.005281448,0.007484436,0,
00:09.1,0.002437592,-0.005281448,0.007507324,0,
00:09.1,0.002443314,-0.005241394,0.007535934,0,
00:09.1,0.002449036,-0.00525856,0.007513046,0,
00:09.1,0.002420425,-0.005275726,0.007564545,0,
00:09.1,0.002408981,-0.005264282,0.007570267,0,
00:09.1,0.002408981,-0.005281448,0.007570267,0,
00:09.1,0.002426147,-0.005304337,0.007513046,0,
00:09.1,0.002408981,-0.005275726,0.007490158,0,
00:09.1,0.002443314,-0.005184174,0.00752449,0,
00:09.1,0.002443314,-0.005224228,0.007593155,0,
00:09.1,0.002414703,-0.005292892,0.007598877,0,
00:09.1,0.002420425,-0.00528717,0.007564545,0,
00:09.1,0.002426147,-0.005275726,0.007575989,0,
00:09.1,0.00243187,-0.005241394,0.007564545,0,
00:09.1,0.00243187,-0.005235672,0.007541656,0,
00:09.1,0.002437592,-0.005247116,0.007553101,0,
00:09.2,0.002426147,-0.00525856,0.007541656,0,
00:09.2,0.002386093,-0.00528717,0.007530212,0,
00:09.2,0.002340317,-0.005298615,0.007593155,0,
00:09.2,0.002403259,-0.005298615,0.007593155,0,
00:09.2,0.002466202,-0.005247116,0.007490158,0,
00:09.2,0.002454758,-0.005241394,0.007564545,0,
00:09.2,0.002449036,-0.005247116,0.007570267,0,
00:09.2,0.002449036,-0.005235672,0.007553101,0,
00:09.2,0.002437592,-0.005235672,0.007541656,0,
00:09.2,0.002420425,-0.005252838,0.007564545,0,
00:09.2,0.002420425,-0.005252838,0.007581711,0,
00:09.2,0.002420425,-0.005264282,0.007564545,0,
00:09.2,0.00243187,-0.005264282,0.007535934,0,
00:09.2,0.002426147,-0.005281448,0.00746727,0,
00:09.2,0.002408981,-0.005332947,0.00752449,0,
00:09.2,0.002414703,-0.005270004,0.007564545,0,
00:09.2,0.002443314,-0.005178452,0.007575989,0,
00:09.2,0.00243187,-0.005207062,0.007570267,0,
00:09.2,0.002420425,-0.005241394,0.007564545,0,
00:09.2,0.00243187,-0.005241394,0.007575989,0,
00:09.2,0.002426147,-0.00525856,0.007575989,0,
00:09.2,0.002426147,-0.005247116,0.007575989,0,
00:09.2,0.002420425,-0.005247116,0.007581711,0,
00:09.2,0.002420425,-0.005252838,0.007570267,0,
00:09.2,0.002420425,-0.00525856,0.007564545,0,
00:09.3,0.002414703,-0.005270004,0.007564545,0,
00:09.3,0.002386093,-0.005315781,0.007547379,0,
00:09.3,0.002351761,-0.005367279,0.007472992,0,
00:09.3,0.002403259,-0.005292892,0.007575989,0,
00:09.3,0.002443314,-0.005104065,0.007661819,0,
00:09.3,0.002414703,-0.005104065,0.007541656,0,
00:09.3,0.00246048,-0.005235672,0.007518768,0,
00:09.3,0.002466202,-0.00522995,0.007575989,0,
00:09.3,0.002443314,-0.005247116,0.007604599,0,
00:09.3,0.00243187,-0.005252838,0.007581711,0,
00:09.3,0.002420425,-0.00525856,0.007570267,0,
00:09.3,0.002414703,-0.005275726,0.007553101,0,
00:09.3,0.002420425,-0.00525856,0.007547379,0,
00:09.3,0.00243187,-0.005252838,0.007535934,0,
00:09.3,0.002426147,-0.00522995,0.007553101,0,
00:09.3,0.002437592,-0.005224228,0.007547379,0,
00:09.3,0.002403259,-0.005241394,0.007598877,0,
00:09.3,0.002408981,-0.005247116,0.007598877,0,
00:09.3,0.002437592,-0.00525856,0.007587433,0,
00:09.3,0.002426147,-0.005252838,0.007575989,0,
00:09.3,0.00243187,-0.005247116,0.007558823,0,
00:09.3,0.002426147,-0.005247116,0.007564545,0,
00:09.3,0.002426147,-0.005218506,0.007575989,0,
00:09.3,0.002397537,-0.005212784,0.007564545,0,
00:09.3,0.002374649,-0.00522995,0.007593155,0,
00:09.4,0.002397537,-0.005292892,0.007558823,0,
00:09.4,0.002454758,-0.005264282,0.007547379,0,
00:09.4,0.002443314,-0.005212784,0.007604599,0,
00:09.4,0.002437592,-0.005241394,0.007627487,0,
00:09.4,0.002426147,-0.005275726,0.007558823,0,
00:09.4,0.002403259,-0.00528717,0.007518768,0,
00:09.4,0.002403259,-0.005270004,0.007570267,0,
00:09.4,0.002443314,-0.005207062,0.007587433,0,
00:09.4,0.00246048,-0.005144119,0.007547379,0,
00:09.4,0.00243187,-0.005207062,0.007581711,0,
00:09.4,0.002420425,-0.005235672,0.007604599,0,
00:09.4,0.002426147,-0.005212784,0.007581711,0,
00:09.4,0.002443314,-0.005218506,0.007558823,0,
00:09.4,0.002414703,-0.005252838,0.007575989,0,
00:09.4,0.002414703,-0.005264282,0.007604599,0,
00:09.4,0.00243187,-0.005224228,0.007587433,0,
00:09.4,0.002426147,-0.005224228,0.007581711,0,
00:09.4,0.002426147,-0.005241394,0.007558823,0,
00:09.4,0.002426147,-0.005235672,0.007564545,0,
00:09.4,0.002391815,-0.005247116,0.007610321,0,
00:09.4,0.002386093,-0.005275726,0.007656097,0,
00:09.4,0.00243187,-0.005270004,0.007621765,0,
00:09.4,0.002403259,-0.005247116,0.007513046,0,
00:09.4,0.002414703,-0.005218506,0.007518768,0,
00:09.4,0.002437592,-0.005235672,0.007575989,0,
00:09.5,0.002454758,-0.005195618,0.007593155,0,
00:09.5,0.002420425,-0.005195618,0.007616043,0,
00:09.5,0.002414703,-0.005252838,0.007587433,0,
00:09.5,0.00243187,-0.00528717,0.007558823,0,
00:09.5,0.002437592,-0.005247116,0.007598877,0,
00:09.5,0.002437592,-0.00520134,0.007575989,0,
00:09.5,0.002437592,-0.005184174,0.007547379,0,
00:09.5,0.002414703,-0.005218506,0.007587433,0,
00:09.5,0.002420425,-0.005235672,0.007598877,0,
00:09.5,0.00243187,-0.005207062,0.007564545,0,
00:09.5,0.002443314,-0.005212784,0.007535934,0,
00:09.5,0.002414703,-0.005264282,0.007547379,0,
00:09.5,0.002403259,-0.00528717,0.007598877,0,
00:09.5,0.002420425,-0.005264282,0.007598877,0,
00:09.5,0.00243187,-0.005189896,0.007604599,0,
00:09.5,0.002426147,-0.005212784,0.007593155,0,
00:09.5,0.002403259,-0.00525856,0.007598877,0,
00:09.5,0.002408981,-0.00520134,0.007644653,0,
00:09.5,0.002414703,-0.00522995,0.007633209,0,
00:09.5,0.002437592,-0.00522995,0.007593155,0,
00:09.5,0.002437592,-0.005218506,0.007570267,0,
00:09.5,0.002391815,-0.00522995,0.007575989,0,
00:09.5,0.002443314,-0.005224228,0.007570267,0,
00:09.5,0.002449036,-0.00520134,0.007564545,0,
00:09.5,0.00243187,-0.005224228,0.007570267,0,
00:09.6,0.002408981,-0.00525856,0.007633209,0,
00:09.6,0.002426147,-0.00525856,0.007598877,0,
00:09.6,0.002443314,-0.005218506,0.007564545,0,
00:09.6,0.002437592,-0.005195618,0.007547379,0,
00:09.6,0.00243187,-0.005167007,0.007564545,0,
00:09.6,0.002414703,-0.005212784,0.007621765,0,
00:09.6,0.002420425,-0.005235672,0.007627487,0,
00:09.6,0.002420425,-0.005252838,0.007604599,0,
00:09.6,0.002426147,-0.005252838,0.007553101,0,
00:09.6,0.002420425,-0.005241394,0.007604599,0,
00:09.6,0.002426147,-0.005207062,0.007598877,0,
00:09.6,0.002437592,-0.005195618,0.007587433,0,
00:09.6,0.00243187,-0.005207062,0.007610321,0,
00:09.6,0.002443314,-0.005218506,0.007570267,0,
00:09.6,0.00243187,-0.005212784,0.007598877,0,
00:09.6,0.002403259,-0.005212784,0.007616043,0,
00:09.6,0.002386093,-0.00522995,0.007638931,0,
00:09.6,0.002403259,-0.00528717,0.007633209,0,
00:09.6,0.002443314,-0.005247116,0.007581711,0,
00:09.6,0.002443314,-0.00520134,0.007530212,0,
00:09.6,0.002454758,-0.005138397,0.007575989,0,
00:09.6,0.00246048,-0.005161285,0.007581711,0,
00:09.6,0.002426147,-0.005195618,0.007627487,0,
00:09.6,0.002414703,-0.005207062,0.007621765,0,
00:09.6,0.002443314,-0.005212784,0.007547379,0,
00:09.7,0.002449036,-0.005212784,0.007581711,0,
00:09.7,0.002414703,-0.00522995,0.007610321,0,
00:09.7,0.002414703,-0.00522995,0.007621765,0,
00:09.7,0.002437592,-0.00520134,0.007610321,0,
00:09.7,0.00243187,-0.005207062,0.007598877,0,
00:09.7,0.002437592,-0.00520134,0.007587433,0,
00:09.7,0.00243187,-0.005207062,0.007570267,0,
00:09.7,0.00243187,-0.005224228,0.007638931,0,
00:09.7,0.002420425,-0.005235672,0.007633209,0,
00:09.7,0.002408981,-0.005224228,0.007570267,0,
00:09.7,0.002420425,-0.005252838,0.007587433,0,
00:09.7,0.002420425,-0.00528717,0.007598877,0,
00:09.7,0.002443314,-0.005167007,0.007621765,0,
00:09.7,0.00246048,-0.005109787,0.007616043,0,
00:09.7,0.002408981,-0.005189896,0.007593155,0,
00:09.7,0.002374649,-0.005212784,0.007616043,0,
00:09.7,0.002397537,-0.005235672,0.007627487,0,
00:09.7,0.002426147,-0.005212784,0.007587433,0,
00:09.7,0.002471924,-0.005138397,0.007547379,0,
00:09.7,0.002471924,-0.005172729,0.007547379,0,
00:09.7,0.002443314,-0.005189896,0.007616043,0,
00:09.7,0.002437592,-0.005195618,0.007667542,0,
00:09.7,0.00243187,-0.005189896,0.007644653,0,
00:09.7,0.002414703,-0.005178452,0.007598877,0,
00:09.7,0.002380371,-0.005212784,0.007598877,0,
00:09.8,0.002408981,-0.005218506,0.007616043,0,
00:09.8,0.002426147,-0.005218506,0.007621765,0,
00:09.8,0.002443314,-0.005252838,0.007593155,0,
00:09.8,0.002426147,-0.005212784,0.007575989,0,
00:09.8,0.002443314,-0.005212784,0.007610321,0,
00:09.8,0.002449036,-0.005224228,0.007593155,0,
00:09.8,0.002437592,-0.005212784,0.007604599,0,
00:09.8,0.002420425,-0.00522995,0.007638931,0,
00:09.8,0.002414703,-0.005218506,0.007627487,0,
00:09.8,0.002443314,-0.005144119,0.007616043,0,
00:09.8,0.002443314,-0.005184174,0.007581711,0,
00:09.8,0.002426147,-0.005212784,0.007581711,0,
00:09.8,0.002437592,-0.005161285,0.007621765,0,
00:09.8,0.002437592,-0.005144119,0.007604599,0,
00:09.8,0.002408981,-0.005178452,0.007644653,0,
00:09.8,0.002426147,-0.005189896,0.007644653,0,
00:09.8,0.002420425,-0.005212784,0.007575989,0,
00:09.8,0.002403259,-0.005218506,0.007581711,0,
00:09.8,0.002420425,-0.00520134,0.007644653,0,
00:09.8,0.002408981,-0.00520134,0.007638931,0,
00:09.8,0.002443314,-0.005189896,0.007610321,0,
00:09.8,0.002449036,-0.005189896,0.007598877,0,
00:09.8,0.002437592,-0.005212784,0.007581711,0,
00:09.8,0.00243187,-0.005247116,0.007593155,0,
00:09.8,0.002420425,-0.005275726,0.007593155,0,
00:09.9,0.002426147,-0.00520134,0.007633209,0,
00:09.9,0.002443314,-0.005138397,0.007604599,0,
00:09.9,0.002449036,-0.005144119,0.007570267,0,
00:09.9,0.00243187,-0.005207062,0.007621765,0,
00:09.9,0.002437592,-0.005189896,0.007673264,0,
00:09.9,0.002426147,-0.00520134,0.007598877,0,
00:09.9,0.002426147,-0.005207062,0.007581711,0,
00:09.9,0.002437592,-0.00520134,0.007598877,0,
00:09.9,0.002420425,-0.005195618,0.007616043,0,
00:09.9,0.002403259,-0.005178452,0.007638931,0,
00:09.9,0.002420425,-0.005138397,0.007656097,0,
00:09.9,0.002414703,-0.005161285,0.007610321,0,
00:09.9,0.002368927,-0.005178452,0.007644653,0,
00:09.9,0.002408981,-0.00522995,0.007673264,0,
00:09.9,0.002466202,-0.005195618,0.007581711,0,
00:09.9,0.002449036,-0.005184174,0.007575989,0,
00:09.9,0.002414703,-0.00520134,0.007587433,0,
00:09.9,0.002443314,-0.005189896,0.007587433,0,
00:09.9,0.00243187,-0.005195618,0.007558823,0,
00:09.9,0.002420425,-0.005207062,0.007616043,0,
00:09.9,0.002414703,-0.005212784,0.007638931,0,
00:09.9,0.002408981,-0.005207062,0.007621765,0,
00:09.9,0.002426147,-0.005167007,0.007621765,0,
00:09.9,0.00243187,-0.005149841,0.007644653,0,
00:09.9,0.00243187,-0.005189896,0.007616043,0,
00:10.0,0.002437592,-0.005184174,0.007575989,0,
00:10.0,0.002426147,-0.005167007,0.007621765,0,
00:10.0,0.002414703,-0.005172729,0.007627487,0,
00:10.0,0.002420425,-0.005189896,0.007638931,0,
00:10.0,0.002408981,-0.005195618,0.007627487,0,
00:10.0,0.002403259,-0.005189896,0.007610321,0,
00:10.0,0.002426147,-0.005178452,0.007593155,0,
00:10.0,0.00243187,-0.005189896,0.007598877,0,
00:10.0,0.002420425,-0.00520134,0.007667542,0,
00:10.0,0.002408981,-0.005212784,0.007656097,0,
00:10.0,0.002374649,-0.005207062,0.007661819,0,
00:10.0,0.002426147,-0.005184174,0.007656097,0,
00:00:10,0.002449036,-0.005178452,0.007610321,0,
00:10.0,0.002397537,-0.005178452,0.007581711,0,
00:10.0,0.002346039,-0.005218506,0.007644653,0,
00:10.0,0.00243187,-0.005178452,0.007564545,0,
00:10.0,0.002391815,-0.005075455,0.007484436,0,
00:10.0,0.002380371,-0.005178452,0.007644653,0,
00:10.0,0.002466202,-0.005207062,0.007673264,0,
00:10.0,0.002449036,-0.005195618,0.007638931,0,
00:10.0,0.002420425,-0.005207062,0.007627487,0,
00:10.0,0.002408981,-0.005195618,0.007633209,0,
00:10.0,0.002403259,-0.005195618,0.007627487,0,
00:10.0,0.002414703,-0.005195618,0.007621765,0,
00:10.0,0.002426147,-0.005184174,0.007627487,0,
