Elapsed_Time,EMG1,EMG2,EMG3,BioRadio Event,Unnamed: 5
00:00:00,0.003828049,0.004182816,0.006099701,0,
00:00.0,0.003828049,0.004177094,0.006088257,0,
00:00.0,0.003828049,0.004177094,0.006093979,0,
00:00.0,0.003828049,0.004177094,0.006111145,0,
00:00.0,0.003816605,0.004171371,0.006105423,0,
00:00.0,0.003822327,0.004171371,0.006111145,0,
00:00.0,0.003822327,0.004159927,0.006111145,0,
00:00.0,0.003833771,0.004154205,0.006099701,0,
00:00.0,0.003828049,0.004171371,0.006111145,0,
00:00.0,0.003822327,0.004188538,0.006099701,0,
00:00.0,0.003810883,0.004177094,0.006105423,0,
00:00.0,0.003810883,0.004165649,0.006099701,0,
00:00.0,0.003833771,0.004154205,0.006093979,0,
00:00.1,0.003833771,0.004159927,0.006122589,0,
00:00.1,0.003828049,0.004182816,0.006116867,0,
00:00.1,0.003822327,0.00419426,0.006111145,0,
00:00.1,0.003810883,0.004165649,0.006105423,0,
00:00.1,0.003810883,0.004154205,0.006122589,0,
00:00.1,0.003828049,0.004159927,0.006128311,0,
00:00.1,0.003833771,0.004205704,0.006116867,0,
00:00.1,0.003833771,0.004199982,0.006116867,0,
00:00.1,0.003833771,0.004188538,0.006122589,0,
00:00.1,0.003828049,0.004177094,0.006116867,0,
00:00.1,0.003810883,0.004165649,0.006111145,0,
00:00.1,0.003828049,0.004182816,0.006111145,0,
00:00.1,0.003816605,0.004182816,0.006099701,0,
00:00.1,0.003822327,0.004177094,0.006105423,0,
00:00.1,0.003833771,0.004171371,0.006116867,0,
00:00.1,0.003828049,0.004177094,0.006122589,0,
00:00.1,0.003810883,0.004177094,0.006122589,0,
00:00.1,0.003822327,0.004171371,0.006116867,0,
00:00.1,0.003839493,0.004177094,0.006111145,0,
00:00.1,0.003833771,0.004177094,0.006111145,0,
00:00.1,0.003833771,0.004177094,0.006122589,0,
00:00.1,0.003828049,0.004177094,0.006111145,0,
00:00.1,0.003822327,0.004154205,0.006134033,0,
00:00.1,0.003822327,0.004165649,0.006116867,0,
00:00.1,0.003822327,0.00419426,0.006105423,0,
00:00.2,0.003805161,0.004188538,0.006122589,0,
00:00.2,0.003810883,0.004171371,0.006122589,0,
00:00.2,0.003833771,0.004165649,0.006116867,0,
00:00.2,0.003828049,0.004165649,0.006116867,0,
00:00.2,0.003833771,0.004171371,0.006116867,0,
00:00.2,0.003833771,0.004171371,0.006111145,0,
00:00.2,0.003822327,0.004159927,0.006116867,0,
00:00.2,0.003822327,0.004165649,0.006111145,0,
00:00.2,0.003822327,0.004171371,0.006122589,0,
00:00.2,0.003822327,0.004188538,0.006122589,0,
00:00.2,0.003822327,0.00419426,0.006122589,0,
00:00.2,0.003810883,0.004182816,0.006128311,0,
00:00.2,0.003793716,0.004165649,0.006116867,0,
00:00.2,0.003805161,0.004154205,0.006111145,0,
00:00.2,0.003845215,0.004159927,0.006116867,0,
00:00.2,0.003839493,0.004188538,0.006111145,0,
00:00.2,0.003833771,0.004182816,0.006122589,0,
00:00.2,0.003828049,0.004177094,0.006122589,0,
00:00.2,0.003822327,0.004165649,0.006116867,0,
00:00.2,0.003816605,0.004177094,0.006116867,0,
00:00.2,0.003816605,0.004159927,0.006116867,0,
00:00.2,0.003822327,0.004165649,0.006111145,0,
00:00.2,0.003805161,0.004188538,0.006105423,0,
00:00.2,0.003822327,0.004182816,0.006111145,0,
00:00.2,0.003845215,0.004177094,0.006122589,0,
00:00.3,0.003822327,0.004171371,0.006134033,0,
00:00.3,0.003805161,0.004165649,0.006111145,0,
00:00.3,0.003810883,0.004154205,0.006122589,0,
00:00.3,0.003822327,0.004159927,0.006122589,0,
00:00.3,0.003833771,0.004159927,0.006116867,0,
00:00.3,0.003839493,0.004182816,0.006128311,0,
00:00.3,0.003828049,0.004177094,0.006128311,0,
00:00.3,0.003822327,0.004159927,0.006122589,0,
00:00.3,0.003822327,0.004159927,0.006128311,0,
00:00.3,0.003816605,0.004188538,0.006122589,0,
00:00.3,0.003822327,0.004165649,0.006116867,0,
00:00.3,0.003833771,0.004171371,0.006116867,0,
00:00.3,0.003810883,0.004171371,0.006116867,0,
00:00.3,0.003810883,0.004171371,0.006116867,0,
00:00.3,0.003828049,0.004188538,0.006116867,0,
00:00.3,0.003828049,0.004177094,0.006134033,0,
00:00.3,0.003822327,0.004165649,0.006122589,0,
00:00.3,0.003816605,0.004165649,0.006116867,0,
00:00.3,0.003799438,0.004165649,0.006128311,0,
00:00.3,0.003816605,0.004171371,0.006122589,0,
00:00.3,0.003839493,0.004177094,0.006122589,0,
00:00.3,0.003822327,0.004171371,0.006122589,0,
00:00.3,0.003816605,0.004154205,0.006116867,0,
00:00.3,0.003816605,0.004148483,0.006128311,0,
00:00.3,0.003822327,0.004177094,0.006134033,0,
00:00.4,0.003816605,0.004177094,0.006134033,0,
00:00.4,0.003822327,0.004177094,0.006139755,0,
00:00.4,0.003833771,0.004165649,0.006128311,0,
00:00.4,0.003828049,0.004148483,0.006122589,0,
00:00.4,0.003828049,0.004159927,0.006122589,0,
00:00.4,0.003816605,0.004188538,0.006139755,0,
00:00.4,0.003828049,0.004171371,0.006134033,0,
00:00.4,0.003828049,0.004165649,0.006122589,0,
00:00.4,0.003810883,0.004159927,0.006116867,0,
00:00.4,0.003816605,0.004137039,0.006116867,0,
00:00.4,0.003828049,0.004159927,0.006116867,0,
00:00.4,0.003822327,0.004182816,0.006134033,0,
00:00.4,0.003816605,0.004165649,0.006128311,0,
00:00.4,0.003816605,0.004171371,0.006134033,0,
00:00.4,0.003805161,0.004159927,0.006134033,0,
00:00.4,0.003810883,0.004182816,0.006139755,0,
00:00.4,0.003839493,0.004182816,0.006134033,0,
00:00.4,0.003828049,0.004154205,0.006134033,0,
00:00.4,0.003816605,0.004154205,0.006128311,0,
00:00.4,0.003810883,0.004171371,0.006134033,0,
00:00.4,0.003822327,0.004177094,0.006128311,0,
00:00.4,0.003828049,0.004177094,0.006128311,0,
00:00.4,0.003822327,0.004159927,0.006122589,0,
00:00.4,0.003822327,0.004154205,0.006122589,0,
00:00.4,0.003816605,0.004154205,0.006122589,0,
00:00.5,0.003816605,0.004154205,0.006122589,0,
00:00.5,0.003816605,0.004165649,0.006122589,0,
00:00.5,0.003799438,0.004177094,0.006111145,0,
00:00.5,0.003828049,0.004165649,0.006111145,0,
00:00.5,0.003850937,0.004165649,0.006134033,0,
00:00.5,0.003822327,0.004159927,0.006128311,0,
00:00.5,0.003810883,0.004159927,0.006134033,0,
00:00.5,0.003810883,0.004148483,0.006134033,0,
00:00.5,0.003816605,0.004154205,0.006139755,0,
00:00.5,0.003810883,0.004159927,0.006139755,0,
00:00.5,0.003805161,0.004177094,0.006128311,0,
00:00.5,0.003793716,0.004171371,0.006122589,0,
00:00.5,0.003816605,0.004159927,0.006128311,0,
00:00.5,0.003822327,0.004154205,0.006122589,0,
00:00.5,0.003816605,0.004148483,0.006122589,0,
00:00.5,0.003839493,0.004171371,0.006122589,0,
00:00.5,0.003828049,0.004171371,0.006122589,0,
00:00.5,0.003822327,0.004159927,0.006128311,0,
00:00.5,0.003822327,0.004165649,0.006116867,0,
00:00.5,0.003816605,0.004159927,0.006128311,0,
00:00.5,0.003810883,0.004154205,0.006139755,0,
00:00.5,0.003810883,0.004154205,0.006128311,0,
00:00.5,0.003810883,0.004159927,0.006122589,0,
00:00.5,0.003816605,0.004159927,0.006128311,0,
00:00.5,0.003822327,0.004159927,0.006122589,0,
00:00.6,0.003810883,0.004159927,0.006139755,0,
00:00.6,0.003805161,0.004142761,0.006134033,0,
00:00.6,0.003810883,0.004148483,0.006128311,0,
00:00.6,0.003828049,0.004137039,0.006116867,0,
00:00.6,0.003816605,0.004125595,0.006122589,0,
00:00.6,0.003816605,0.004171371,0.006128311,0,
00:00.6,0.003822327,0.00419426,0.006128311,0,
00:00.6,0.003816605,0.004171371,0.006128311,0,
00:00.6,0.003810883,0.004148483,0.006116867,0,
00:00.6,0.003816605,0.004154205,0.006128311,0,
00:00.6,0.003799438,0.004159927,0.006116867,0,
00:00.6,0.003793716,0.004159927,0.006116867,0,
00:00.6,0.003833771,0.004171371,0.006122589,0,
00:00.6,0.003828049,0.004159927,0.006122589,0,
00:00.6,0.003822327,0.004159927,0.006128311,0,
00:00.6,0.003822327,0.004159927,0.006134033,0,
00:00.6,0.003810883,0.004154205,0.006128311,0,
00:00.6,0.003810883,0.004148483,0.006128311,0,
00:00.6,0.003816605,0.004159927,0.006122589,0,
00:00.6,0.003810883,0.004165649,0.006111145,0,
00:00.6,0.003805161,0.004159927,0.006105423,0,
00:00.6,0.003816605,0.004142761,0.006111145,0,
00:00.6,0.003816605,0.004142761,0.006128311,0,
00:00.6,0.003816605,0.004131317,0.006134033,0,
00:00.6,0.003810883,0.004142761,0.006116867,0,
00:00.7,0.003816605,0.004154205,0.006111145,0,
00:00.7,0.003816605,0.004142761,0.006128311,0,
00:00.7,0.003793716,0.004148483,0.006116867,0,
00:00.7,0.003805161,0.004165649,0.006111145,0,
00:00.7,0.003828049,0.004165649,0.006122589,0,
00:00.7,0.003816605,0.004154205,0.006139755,0,
00:00.7,0.003805161,0.004148483,0.006134033,0,
00:00.7,0.003805161,0.004159927,0.006128311,0,
00:00.7,0.003810883,0.004154205,0.006116867,0,
00:00.7,0.003816605,0.004142761,0.006111145,0,
00:00.7,0.003822327,0.004154205,0.006111145,0,
00:00.7,0.003816605,0.004154205,0.006122589,0,
00:00.7,0.003810883,0.004159927,0.006128311,0,
00:00.7,0.003810883,0.004148483,0.006128311,0,
00:00.7,0.003822327,0.004148483,0.006122589,0,
00:00.7,0.003816605,0.004165649,0.006116867,0,
00:00.7,0.003805161,0.004154205,0.006116867,0,
00:00.7,0.003799438,0.004148483,0.006116867,0,
00:00.7,0.003822327,0.004148483,0.006122589,0,
00:00.7,0.003816605,0.004148483,0.006128311,0,
00:00.7,0.003799438,0.004159927,0.006111145,0,
00:00.7,0.003787994,0.004154205,0.006116867,0,
00:00.7,0.003810883,0.004131317,0.006128311,0,
00:00.7,0.003828049,0.004131317,0.006111145,0,
00:00.7,0.003810883,0.004148483,0.006116867,0,
00:00.8,0.003805161,0.004148483,0.006116867,0,
00:00.8,0.003816605,0.004142761,0.006116867,0,
00:00.8,0.003816605,0.004131317,0.006122589,0,
00:00.8,0.003810883,0.004148483,0.006111145,0,
00:00.8,0.003805161,0.004159927,0.006099701,0,
00:00.8,0.003787994,0.004137039,0.006099701,0,
00:00.8,0.003805161,0.004125595,0.006111145,0,
00:00.8,0.003822327,0.004159927,0.006128311,0,
00:00.8,0.003816605,0.004148483,0.006128311,0,
00:00.8,0.003805161,0.004154205,0.006128311,0,
00:00.8,0.003793716,0.004165649,0.006122589,0,
00:00.8,0.003805161,0.004148483,0.006111145,0,
00:00.8,0.003810883,0.004119873,0.006105423,0,
00:00.8,0.003805161,0.004119873,0.006122589,0,
00:00.8,0.003793716,0.004148483,0.006139755,0,
00:00.8,0.003810883,0.004165649,0.006128311,0,
00:00.8,0.003828049,0.004159927,0.006116867,0,
00:00.8,0.003816605,0.004142761,0.006111145,0,
00:00.8,0.003810883,0.004148483,0.006116867,0,
00:00.8,0.003805161,0.004154205,0.006111145,0,
00:00.8,0.003799438,0.004142761,0.006116867,0,
00:00.8,0.003810883,0.004125595,0.006105423,0,
00:00.8,0.003799438,0.004119873,0.006099701,0,
00:00.8,0.003793716,0.004142761,0.006105423,0,
00:00.8,0.003810883,0.004159927,0.006128311,0,
00:00.9,0.003816605,0.004165649,0.006122589,0,
00:00.9,0.003805161,0.004142761,0.006116867,0,
00:00.9,0.003799438,0.004119873,0.006116867,0,
00:00.9,0.003805161,0.004102707,0.006116867,0,
00:00.9,0.003805161,0.004125595,0.006105423,0,
00:00.9,0.003799438,0.004154205,0.006105423,0,
00:00.9,0.003799438,0.004148483,0.006105423,0,
00:00.9,0.003799438,0.004148483,0.006116867,0,
00:00.9,0.003805161,0.004148483,0.006128311,0,
00:00.9,0.003799438,0.004142761,0.006122589,0,
00:00.9,0.003782272,0.004142761,0.006116867,0,
00:00.9,0.003799438,0.004137039,0.006111145,0,
00:00.9,0.003810883,0.004131317,0.006111145,0,
00:00.9,0.003810883,0.004137039,0.006111145,0,
00:00.9,0.003810883,0.004137039,0.006111145,0,
00:00.9,0.003810883,0.004137039,0.006099701,0,
00:00.9,0.003799438,0.004137039,0.006093979,0,
00:00.9,0.003799438,0.004137039,0.006093979,0,
00:00.9,0.003799438,0.004137039,0.006111145,0,
00:00.9,0.003810883,0.004137039,0.006105423,0,
00:00.9,0.003805161,0.004131317,0.006093979,0,
00:00.9,0.003793716,0.004119873,0.006111145,0,
00:00.9,0.003793716,0.004119873,0.006116867,0,
00:00.9,0.003787994,0.004137039,0.006111145,0,
00:00.9,0.003805161,0.004102707,0.006116867,0,
00:01.0,0.003810883,0.004091263,0.006105423,0,
00:01.0,0.003799438,0.004125595,0.006093979,0,
00:01.0,0.003805161,0.004165649,0.006111145,0,
00:01.0,0.003816605,0.004159927,0.006111145,0,
00:01.0,0.003810883,0.004154205,0.006105423,0,
00:01.0,0.003805161,0.004148483,0.006105423,0,
00:01.0,0.003799438,0.004131317,0.006099701,0,
00:01.0,0.003793716,0.004137039,0.006099701,0,
00:01.0,0.003805161,0.004131317,0.006093979,0,
00:01.0,0.003816605,0.004137039,0.006088257,0,
00:01.0,0.003799438,0.004137039,0.006071091,0,
00:01.0,0.003793716,0.004142761,0.006116867,0,
00:00:01,0.003787994,0.004131317,0.006134033,0,
00:01.0,0.003793716,0.004131317,0.006116867,0,
00:01.0,0.003816605,0.004142761,0.006099701,0,
00:01.0,0.003799438,0.004137039,0.006111145,0,
00:01.0,0.003810883,0.004125595,0.006116867,0,
00:01.0,0.003810883,0.004102707,0.006105423,0,
00:01.0,0.003793716,0.004125595,0.006099701,0,
00:01.0,0.003787994,0.004142761,0.006093979,0,
00:01.0,0.003793716,0.004131317,0.006105423,0,
00:01.0,0.003793716,0.004125595,0.006111145,0,
00:01.0,0.003805161,0.004119873,0.006105423,0,
00:01.0,0.003799438,0.004119873,0.006093979,0,
00:01.0,0.003805161,0.004148483,0.006105423,0,
00:01.1,0.003799438,0.004142761,0.006111145,0,
00:01.1,0.003787994,0.004131317,0.006088257,0,
00:01.1,0.003793716,0.004119873,0.006088257,0,
00:01.1,0.003805161,0.004102707,0.006099701,0,
00:01.1,0.003799438,0.004108429,0.006093979,0,
00:01.1,0.003805161,0.004142761,0.006105423,0,
00:01.1,0.003799438,0.004137039,0.006111145,0,
00:01.1,0.003793716,0.004137039,0.006105423,0,
00:01.1,0.003782272,0.004131317,0.006105423,0,
00:01.1,0.003787994,0.004119873,0.006099701,0,
00:01.1,0.003810883,0.004137039,0.006105423,0,
00:01.1,0.003805161,0.004131317,0.006105423,0,
00:01.1,0.003793716,0.004119873,0.006093979,0,
00:01.1,0.003799438,0.004137039,0.006093979,0,
00:01.1,0.003793716,0.004142761,0.006105423,0,
00:01.1,0.003770828,0.004131317,0.006105423,0,
00:01.1,0.00377655,0.004119873,0.006111145,0,
00:01.1,0.003782272,0.004125595,0.006099701,0,
00:01.1,0.003793716,0.004125595,0.006093979,0,
00:01.1,0.003810883,0.004125595,0.006099701,0,
00:01.1,0.003805161,0.004131317,0.006111145,0,
00:01.1,0.003793716,0.004125595,0.006105423,0,
00:01.1,0.003799438,0.004125595,0.006105423,0,
00:01.1,0.003799438,0.004131317,0.006088257,0,
00:01.1,0.003799438,0.004131317,0.006071091,0,
00:01.2,0.003793716,0.004131317,0.006105423,0,
00:01.2,0.003793716,0.004125595,0.006111145,0,
00:01.2,0.003793716,0.004114151,0.006105423,0,
00:01.2,0.003782272,0.004102707,0.006105423,0,
00:01.2,0.003765106,0.004125595,0.006105423,0,
00:01.2,0.003787994,0.004137039,0.006099701,0,
00:01.2,0.003816605,0.004137039,0.006099701,0,
00:01.2,0.003805161,0.004125595,0.006099701,0,
00:01.2,0.003799438,0.004119873,0.006088257,0,
00:01.2,0.003787994,0.004131317,0.006099701,0,
00:01.2,0.003787994,0.004137039,0.006099701,0,
00:01.2,0.003793716,0.004125595,0.006093979,0,
00:01.2,0.003782272,0.004102707,0.006093979,0,
00:01.2,0.003782272,0.004119873,0.006099701,0,
00:01.2,0.003799438,0.004131317,0.006099701,0,
00:01.2,0.003793716,0.004119873,0.006093979,0,
00:01.2,0.003793716,0.004114151,0.006076813,0,
00:01.2,0.003799438,0.004119873,0.006071091,0,
00:01.2,0.003799438,0.004119873,0.006105423,0,
00:01.2,0.00377655,0.004125595,0.006105423,0,
00:01.2,0.003753662,0.004131317,0.006093979,0,
00:01.2,0.003805161,0.004125595,0.006082535,0,
00:01.2,0.003810883,0.004119873,0.006093979,0,
00:01.2,0.003799438,0.004119873,0.006099701,0,
00:01.2,0.003799438,0.004125595,0.006088257,0,
00:01.3,0.003787994,0.004131317,0.006082535,0,
00:01.3,0.003782272,0.004125595,0.006093979,0,
00:01.3,0.003787994,0.004119873,0.006099701,0,
00:01.3,0.003793716,0.004125595,0.006093979,0,
00:01.3,0.003793716,0.004125595,0.006093979,0,
00:01.3,0.003793716,0.004131317,0.006082535,0,
00:01.3,0.00377655,0.004125595,0.006082535,0,
00:01.3,0.00377655,0.004119873,0.006088257,0,
00:01.3,0.003793716,0.004114151,0.006093979,0,
00:01.3,0.003799438,0.004114151,0.006088257,0,
00:01.3,0.003787994,0.004125595,0.006088257,0,
00:01.3,0.00377655,0.004114151,0.006093979,0,
00:01.3,0.003787994,0.004114151,0.006093979,0,
00:01.3,0.003793716,0.004131317,0.006093979,0,
00:01.3,0.003787994,0.004137039,0.006093979,0,
00:01.3,0.00377655,0.004125595,0.006093979,0,
00:01.3,0.003799438,0.004119873,0.006082535,0,
00:01.3,0.003799438,0.004108429,0.006082535,0,
00:01.3,0.003787994,0.004108429,0.006088257,0,
00:01.3,0.003787994,0.004114151,0.006088257,0,
00:01.3,0.003787994,0.004119873,0.006088257,0,
00:01.3,0.003782272,0.004119873,0.006088257,0,
00:01.3,0.003770828,0.004085541,0.006076813,0,
00:01.3,0.003759384,0.004085541,0.006076813,0,
00:01.3,0.003799438,0.004125595,0.006093979,0,
00:01.4,0.003805161,0.004148483,0.006093979,0,
00:01.4,0.003793716,0.004131317,0.006088257,0,
00:01.4,0.003787994,0.004114151,0.006093979,0,
00:01.4,0.003787994,0.004091263,0.006088257,0,
00:01.4,0.003793716,0.004131317,0.006093979,0,
00:01.4,0.003793716,0.004131317,0.006082535,0,
00:01.4,0.003782272,0.004125595,0.006065369,0,
00:01.4,0.00377655,0.004114151,0.006082535,0,
00:01.4,0.003793716,0.004114151,0.006093979,0,
00:01.4,0.003787994,0.004114151,0.006088257,0,
00:01.4,0.003793716,0.004119873,0.006088257,0,
00:01.4,0.003782272,0.004114151,0.006071091,0,
00:01.4,0.003770828,0.004102707,0.006076813,0,
00:01.4,0.003787994,0.004108429,0.006076813,0,
00:01.4,0.003793716,0.004119873,0.006076813,0,
00:01.4,0.003787994,0.004114151,0.006076813,0,
00:01.4,0.003782272,0.004114151,0.006071091,0,
00:01.4,0.003787994,0.004114151,0.006065369,0,
00:01.4,0.00377655,0.004119873,0.006071091,0,
00:01.4,0.003765106,0.004125595,0.006076813,0,
00:01.4,0.003782272,0.004119873,0.006088257,0,
00:01.4,0.003793716,0.004102707,0.006076813,0,
00:01.4,0.003782272,0.004079819,0.006076813,0,
00:01.4,0.003787994,0.004096985,0.006065369,0,
00:01.4,0.003770828,0.004125595,0.006053925,0,
00:01.5,0.003770828,0.004119873,0.006071091,0,
00:01.5,0.003799438,0.004114151,0.006093979,0,
00:01.5,0.003793716,0.004102707,0.006082535,0,
00:01.5,0.003782272,0.004114151,0.006071091,0,
00:01.5,0.003799438,0.004125595,0.006076813,0,
00:01.5,0.003787994,0.004119873,0.006071091,0,
00:01.5,0.003770828,0.004108429,0.006071091,0,
00:01.5,0.003782272,0.004114151,0.006076813,0,
00:01.5,0.003787994,0.004102707,0.006071091,0,
00:01.5,0.003782272,0.004091263,0.006065369,0,
00:01.5,0.003782272,0.004125595,0.006071091,0,
00:01.5,0.003782272,0.004131317,0.006071091,0,
00:01.5,0.003782272,0.004119873,0.006082535,0,
00:01.5,0.003770828,0.004114151,0.006076813,0,
00:01.5,0.003770828,0.004108429,0.006071091,0,
00:01.5,0.003782272,0.004108429,0.006071091,0,
00:01.5,0.00377655,0.004096985,0.006071091,0,
00:01.5,0.003782272,0.004102707,0.006071091,0,
00:01.5,0.00377655,0.004114151,0.006065369,0,
00:01.5,0.00377655,0.004114151,0.006065369,0,
00:01.5,0.00377655,0.004114151,0.006065369,0,
00:01.5,0.003759384,0.004096985,0.006059647,0,
00:01.5,0.003759384,0.004085541,0.006071091,0,
00:01.5,0.003787994,0.004091263,0.006076813,0,
00:01.5,0.003799438,0.004096985,0.006059647,0,
00:01.6,0.003782272,0.004102707,0.006071091,0,
00:01.6,0.003787994,0.004137039,0.006071091,0,
00:01.6,0.003782272,0.004125595,0.006053925,0,
00:01.6,0.003782272,0.004114151,0.006065369,0,
00:01.6,0.00377655,0.004114151,0.006059647,0,
00:01.6,0.003770828,0.004108429,0.006059647,0,
00:01.6,0.003765106,0.004085541,0.006065369,0,
00:01.6,0.003770828,0.004091263,0.006065369,0,
00:01.6,0.00377655,0.004119873,0.006071091,0,
00:01.6,0.003770828,0.004125595,0.006065369,0,
00:01.6,0.003770828,0.004114151,0.006059647,0,
00:01.6,0.003770828,0.004108429,0.006059647,0,
00:01.6,0.00377655,0.004108429,0.006059647,0,
00:01.6,0.003770828,0.004108429,0.006059647,0,
00:01.6,0.00374794,0.004102707,0.006053925,0,
00:01.6,0.003759384,0.004102707,0.006065369,0,
00:01.6,0.003770828,0.004108429,0.006053925,0,
00:01.6,0.003759384,0.004102707,0.006059647,0,
00:01.6,0.003770828,0.004102707,0.006059647,0,
00:01.6,0.003782272,0.004108429,0.006059647,0,
00:01.6,0.003787994,0.004114151,0.006059647,0,
00:01.6,0.003770828,0.004102707,0.006053925,0,
00:01.6,0.003770828,0.004096985,0.006053925,0,
00:01.6,0.003770828,0.004085541,0.006053925,0,
00:01.6,0.003770828,0.004074097,0.006059647,0,
00:01.7,0.003765106,0.004096985,0.006059647,0,
00:01.7,0.003765106,0.004119873,0.006053925,0,
00:01.7,0.003765106,0.004114151,0.006053925,0,
00:01.7,0.003770828,0.004108429,0.006048203,0,
00:01.7,0.003759384,0.004102707,0.006053925,0,
00:01.7,0.003753662,0.004091263,0.006048203,0,
00:01.7,0.003753662,0.004085541,0.00604248,0,
00:01.7,0.003765106,0.004108429,0.00604248,0,
00:01.7,0.003759384,0.004102707,0.006036758,0,
00:01.7,0.003753662,0.004119873,0.006065369,0,
00:01.7,0.003770828,0.004114151,0.006053925,0,
00:01.7,0.00377655,0.004102707,0.00604248,0,
00:01.7,0.003782272,0.004108429,0.006036758,0,
00:01.7,0.003770828,0.004114151,0.006048203,0,
00:01.7,0.003759384,0.004102707,0.006053925,0,
00:01.7,0.003759384,0.004079819,0.006053925,0,
00:01.7,0.003765106,0.004091263,0.00604248,0,
00:01.7,0.003759384,0.004114151,0.00604248,0,
00:01.7,0.003765106,0.004114151,0.00604248,0,
00:01.7,0.003759384,0.004108429,0.00604248,0,
00:01.7,0.003753662,0.004102707,0.006048203,0,
00:01.7,0.003753662,0.004102707,0.00604248,0,
00:01.7,0.003759384,0.004096985,0.006036758,0,
00:01.7,0.003765106,0.004096985,0.006036758,0,
00:01.7,0.003765106,0.004108429,0.00604248,0,
00:01.8,0.003736496,0.004108429,0.006048203,0,
00:01.8,0.003742218,0.004096985,0.00604248,0,
00:01.8,0.003770828,0.004102707,0.006031036,0,
00:01.8,0.003753662,0.004102707,0.006048203,0,
00:01.8,0.003770828,0.004108429,0.006048203,0,
00:01.8,0.003753662,0.004102707,0.00604248,0,
00:01.8,0.003742218,0.004091263,0.006036758,0,
00:01.8,0.003759384,0.004102707,0.006036758,0,
00:01.8,0.003765106,0.004114151,0.00604248,0,
00:01.8,0.003753662,0.004108429,0.006048203,0,
00:01.8,0.003736496,0.004091263,0.006036758,0,
00:01.8,0.00374794,0.004091263,0.006036758,0,
00:01.8,0.003753662,0.004108429,0.00604248,0,
00:01.8,0.003759384,0.004114151,0.006036758,0,
00:01.8,0.00374794,0.004096985,0.006036758,0,
00:01.8,0.003742218,0.004096985,0.00604248,0,
00:01.8,0.003759384,0.004096985,0.006025314,0,
00:01.8,0.003742218,0.004085541,0.006025314,0,
00:01.8,0.00371933,0.004108429,0.00604248,0,
00:01.8,0.003736496,0.004102707,0.00604248,0,
00:01.8,0.003753662,0.004102707,0.006036758,0,
00:01.8,0.003765106,0.004096985,0.00604248,0,
00:01.8,0.003765106,0.004091263,0.006059647,0,
00:01.8,0.00374794,0.004114151,0.006048203,0,
00:01.8,0.003753662,0.004119873,0.006048203,0,
00:01.9,0.003753662,0.004114151,0.006036758,0,
00:01.9,0.003736496,0.004096985,0.006036758,0,
00:01.9,0.003736496,0.004091263,0.006036758,0,
00:01.9,0.003742218,0.004102707,0.006025314,0,
00:01.9,0.003742218,0.004096985,0.00604248,0,
00:01.9,0.00374794,0.004102707,0.006048203,0,
00:01.9,0.003742218,0.004102707,0.006048203,0,
00:01.9,0.003725052,0.004096985,0.00604248,0,
00:01.9,0.003742218,0.004085541,0.006048203,0,
00:01.9,0.003753662,0.004068375,0.00604248,0,
00:01.9,0.003742218,0.004068375,0.006031036,0,
00:01.9,0.003736496,0.004096985,0.006025314,0,
00:01.9,0.00371933,0.004108429,0.006036758,0,
00:01.9,0.00371933,0.004079819,0.006048203,0,
00:01.9,0.003742218,0.004085541,0.00604248,0,
00:01.9,0.003759384,0.004119873,0.00604248,0,
00:01.9,0.003753662,0.004125595,0.00604248,0,
00:01.9,0.003742218,0.004108429,0.00604248,0,
00:01.9,0.003742218,0.004102707,0.006036758,0,
00:01.9,0.003736496,0.004096985,0.006031036,0,
00:01.9,0.003742218,0.004096985,0.006036758,0,
00:01.9,0.003736496,0.004108429,0.006036758,0,
00:01.9,0.003736496,0.004096985,0.006048203,0,
00:01.9,0.003742218,0.004091263,0.00604248,0,
00:01.9,0.003736496,0.004096985,0.00604248,0,
00:02.0,0.003730774,0.004108429,0.006048203,0,
00:02.0,0.003730774,0.004096985,0.00604248,0,
00:02.0,0.003730774,0.004091263,0.006031036,0,
00:02.0,0.003736496,0.004102707,0.006048203,0,
00:02.0,0.003736496,0.004102707,0.006059647,0,
00:02.0,0.003730774,0.004091263,0.006053925,0,
00:02.0,0.003725052,0.004085541,0.006048203,0,
00:02.0,0.003713608,0.004085541,0.006048203,0,
00:02.0,0.003725052,0.004074097,0.006048203,0,
00:02.0,0.003742218,0.004074097,0.006048203,0,
00:02.0,0.003742218,0.004074097,0.006053925,0,
00:02.0,0.003742218,0.004102707,0.006048203,0,
00:00:02,0.003736496,0.004108429,0.006059647,0,
00:02.0,0.003725052,0.004108429,0.006053925,0,
00:02.0,0.003725052,0.004102707,0.006059647,0,
00:02.0,0.003742218,0.004085541,0.006059647,0,
00:02.0,0.003742218,0.004102707,0.006065369,0,
00:02.0,0.003730774,0.004096985,0.006053925,0,
00:02.0,0.003725052,0.004091263,0.006053925,0,
00:02.0,0.003730774,0.004102707,0.006059647,0,
00:02.0,0.003725052,0.004102707,0.006071091,0,
00:02.0,0.003725052,0.004091263,0.006065369,0,
00:02.0,0.003736496,0.004079819,0.006059647,0,
00:02.0,0.003736496,0.004079819,0.006071091,0,
00:02.0,0.003730774,0.004096985,0.006071091,0,
00:02.1,0.003730774,0.004085541,0.006065369,0,
00:02.1,0.003742218,0.004091263,0.006065369,0,
00:02.1,0.003742218,0.004102707,0.00604248,0,
00:02.1,0.003730774,0.004096985,0.006059647,0,
00:02.1,0.003730774,0.004091263,0.006088257,0,
00:02.1,0.003730774,0.004085541,0.006071091,0,
00:02.1,0.003725052,0.004079819,0.006059647,0,
00:02.1,0.003725052,0.004074097,0.006059647,0,
00:02.1,0.003725052,0.004079819,0.006053925,0,
00:02.1,0.003736496,0.004102707,0.006076813,0,
00:02.1,0.003736496,0.004085541,0.006071091,0,
00:02.1,0.003713608,0.004085541,0.006076813,0,
00:02.1,0.003713608,0.004079819,0.006076813,0,
00:02.1,0.00371933,0.004096985,0.006093979,0,
00:02.1,0.00374794,0.004108429,0.006082535,0,
00:02.1,0.003725052,0.004085541,0.006071091,0,
00:02.1,0.003725052,0.004096985,0.006093979,0,
00:02.1,0.003753662,0.004091263,0.006088257,0,
00:02.1,0.003742218,0.004096985,0.006082535,0,
00:02.1,0.00371933,0.004102707,0.006093979,0,
00:02.1,0.003725052,0.004079819,0.006082535,0,
00:02.1,0.003742218,0.004074097,0.006088257,0,
00:02.1,0.003736496,0.004091263,0.006088257,0,
00:02.1,0.003736496,0.004102707,0.006105423,0,
00:02.1,0.003730774,0.004085541,0.006099701,0,
00:02.2,0.003730774,0.004074097,0.006099701,0,
00:02.2,0.003730774,0.004079819,0.006093979,0,
00:02.2,0.003736496,0.004091263,0.006093979,0,
00:02.2,0.003730774,0.004096985,0.006093979,0,
00:02.2,0.00371933,0.004091263,0.006099701,0,
00:02.2,0.00371933,0.004079819,0.006105423,0,
00:02.2,0.00371933,0.004068375,0.006111145,0,
00:02.2,0.003736496,0.004079819,0.006111145,0,
00:02.2,0.003742218,0.004096985,0.006099701,0,
00:02.2,0.003742218,0.004102707,0.006116867,0,
00:02.2,0.003725052,0.004062653,0.006122589,0,
00:02.2,0.00371933,0.004079819,0.006116867,0,
00:02.2,0.003730774,0.004102707,0.006111145,0,
00:02.2,0.003730774,0.004096985,0.006111145,0,
00:02.2,0.003725052,0.004091263,0.006116867,0,
00:02.2,0.003725052,0.004085541,0.006116867,0,
00:02.2,0.003707886,0.004096985,0.006122589,0,
00:02.2,0.003725052,0.004091263,0.006122589,0,
00:02.2,0.003730774,0.004091263,0.006128311,0,
00:02.2,0.003730774,0.004096985,0.006139755,0,
00:02.2,0.003730774,0.004102707,0.006128311,0,
00:02.2,0.003713608,0.004085541,0.006122589,0,
00:02.2,0.003725052,0.004079819,0.006116867,0,
00:02.2,0.003736496,0.004085541,0.006128311,0,
00:02.2,0.003736496,0.004102707,0.006139755,0,
00:02.3,0.003736496,0.004096985,0.006151199,0,
00:02.3,0.003730774,0.004085541,0.006151199,0,
00:02.3,0.003713608,0.004085541,0.006145477,0,
00:02.3,0.00371933,0.004091263,0.006139755,0,
00:02.3,0.003742218,0.004091263,0.006139755,0,
00:02.3,0.00371933,0.004074097,0.006151199,0,
00:02.3,0.003725052,0.004051208,0.006134033,0,
00:02.3,0.003730774,0.004068375,0.006145477,0,
00:02.3,0.003725052,0.004102707,0.006162643,0,
00:02.3,0.00371933,0.004108429,0.006162643,0,
00:02.3,0.003707886,0.004085541,0.006156921,0,
00:02.3,0.003702164,0.004062653,0.006151199,0,
00:02.3,0.003725052,0.004068375,0.006151199,0,
00:02.3,0.003736496,0.004119873,0.006156921,0,
00:02.3,0.003742218,0.004108429,0.006162643,0,
00:02.3,0.003730774,0.004091263,0.006168365,0,
00:02.3,0.003736496,0.004091263,0.006174088,0,
00:02.3,0.003736496,0.004085541,0.006162643,0,
00:02.3,0.003730774,0.004096985,0.006162643,0,
00:02.3,0.003725052,0.004079819,0.006162643,0,
00:02.3,0.003725052,0.004068375,0.006162643,0,
00:02.3,0.003730774,0.004096985,0.006185532,0,
00:02.3,0.003730774,0.004108429,0.00617981,0,
00:02.3,0.003713608,0.004102707,0.00617981,0,
00:02.3,0.003725052,0.004096985,0.00617981,0,
00:02.4,0.003730774,0.004085541,0.006185532,0,
00:02.4,0.003725052,0.004085541,0.00617981,0,
00:02.4,0.003725052,0.004091263,0.006185532,0,
00:02.4,0.00371933,0.004091263,0.006174088,0,
00:02.4,0.00371933,0.004085541,0.00617981,0,
00:02.4,0.003725052,0.004079819,0.006185532,0,
00:02.4,0.003736496,0.004079819,0.006185532,0,
00:02.4,0.003725052,0.004079819,0.006191254,0,
00:02.4,0.003730774,0.004091263,0.006196976,0,
00:02.4,0.003725052,0.004102707,0.006168365,0,
00:02.4,0.003730774,0.004085541,0.006191254,0,
00:02.4,0.003730774,0.004079819,0.00620842,0,
00:02.4,0.00371933,0.004091263,0.00620842,0,
00:02.4,0.003736496,0.004102707,0.00620842,0,
00:02.4,0.00374794,0.004096985,0.006202698,0,
00:02.4,0.003742218,0.004079819,0.006202698,0,
00:02.4,0.003730774,0.004091263,0.006214142,0,
00:02.4,0.003725052,0.004096985,0.006219864,0,
00:02.4,0.00371933,0.004074097,0.006219864,0,
00:02.4,0.003725052,0.004085541,0.006214142,0,
00:02.4,0.003730774,0.004079819,0.006214142,0,
00:02.4,0.003736496,0.004091263,0.006219864,0,
00:02.4,0.003730774,0.004096985,0.006219864,0,
00:02.4,0.003730774,0.004091263,0.006214142,0,
00:02.4,0.003725052,0.004091263,0.006225586,0,
00:02.5,0.003713608,0.004096985,0.006219864,0,
00:02.5,0.003730774,0.004096985,0.006225586,0,
00:02.5,0.00374794,0.004096985,0.006248474,0,
00:02.5,0.003730774,0.004091263,0.006242752,0,
00:02.5,0.00371933,0.004091263,0.00623703,0,
00:02.5,0.003702164,0.004091263,0.006242752,0,
00:02.5,0.003725052,0.004085541,0.006242752,0,
00:02.5,0.00374794,0.004085541,0.00623703,0,
00:02.5,0.00374794,0.004091263,0.006231308,0,
00:02.5,0.003736496,0.004085541,0.006248474,0,
00:02.5,0.003713608,0.004068375,0.006242752,0,
00:02.5,0.003725052,0.004056931,0.006248474,0,
00:02.5,0.003736496,0.004091263,0.006259918,0,
00:02.5,0.003730774,0.004068375,0.006259918,0,
00:02.5,0.003736496,0.004085541,0.006259918,0,
00:02.5,0.003742218,0.004102707,0.006248474,0,
00:02.5,0.003736496,0.004102707,0.006242752,0,
00:02.5,0.003730774,0.004085541,0.00626564,0,
00:02.5,0.003730774,0.004091263,0.006277084,0,
00:02.5,0.003725052,0.004102707,0.00626564,0,
00:02.5,0.00371933,0.004108429,0.006277084,0,
00:02.5,0.00371933,0.004096985,0.006277084,0,
00:02.5,0.003730774,0.004096985,0.006277084,0,
00:02.5,0.003742218,0.004102707,0.006277084,0,
00:02.5,0.003725052,0.004091263,0.006277084,0,
00:02.6,0.00371933,0.004085541,0.006271362,0,
00:02.6,0.003736496,0.004085541,0.006282806,0,
00:02.6,0.003742218,0.004091263,0.006282806,0,
00:02.6,0.003725052,0.004085541,0.00629425,0,
00:02.6,0.00371933,0.004085541,0.006288528,0,
00:02.6,0.003730774,0.004096985,0.006282806,0,
00:02.6,0.003730774,0.004085541,0.006288528,0,
00:02.6,0.003742218,0.004079819,0.006288528,0,
00:02.6,0.003725052,0.004079819,0.006271362,0,
00:02.6,0.003713608,0.004091263,0.006282806,0,
00:02.6,0.003725052,0.004079819,0.006299973,0,
00:02.6,0.003730774,0.004079819,0.006311417,0,
00:02.6,0.00371933,0.004096985,0.006322861,0,
00:02.6,0.003684998,0.004096985,0.006317139,0,
00:02.6,0.003730774,0.004096985,0.006305695,0,
00:02.6,0.003753662,0.004074097,0.006305695,0,
00:02.6,0.003736496,0.004079819,0.006305695,0,
00:02.6,0.003730774,0.004091263,0.006299973,0,
00:02.6,0.003725052,0.004102707,0.006322861,0,
00:02.6,0.003730774,0.004079819,0.006317139,0,
00:02.6,0.003725052,0.004056931,0.006311417,0,
00:02.6,0.00371933,0.004079819,0.006322861,0,
00:02.6,0.003730774,0.004125595,0.006311417,0,
00:02.6,0.003730774,0.004114151,0.006317139,0,
00:02.6,0.003730774,0.004102707,0.006322861,0,
00:02.7,0.003725052,0.004091263,0.006322861,0,
00:02.7,0.00371933,0.004085541,0.006322861,0,
00:02.7,0.003725052,0.004091263,0.006322861,0,
00:02.7,0.003725052,0.004091263,0.006322861,0,
00:02.7,0.003725052,0.004085541,0.006317139,0,
00:02.7,0.00371933,0.004091263,0.006322861,0,
00:02.7,0.00371933,0.004079819,0.006334305,0,
00:02.7,0.003730774,0.004091263,0.006340027,0,
00:02.7,0.003730774,0.004102707,0.006334305,0,
00:02.7,0.00371933,0.004091263,0.006334305,0,
00:02.7,0.003702164,0.004079819,0.006334305,0,
00:02.7,0.00371933,0.004074097,0.006334305,0,
00:02.7,0.003730774,0.004102707,0.006328583,0,
00:02.7,0.003730774,0.004102707,0.006340027,0,
00:02.7,0.003736496,0.004085541,0.006340027,0,
00:02.7,0.003725052,0.004068375,0.006340027,0,
00:02.7,0.003725052,0.004079819,0.006345749,0,
00:02.7,0.00371933,0.004085541,0.006345749,0,
00:02.7,0.00371933,0.004108429,0.006340027,0,
00:02.7,0.003730774,0.004108429,0.006345749,0,
00:02.7,0.003725052,0.004085541,0.006351471,0,
00:02.7,0.003736496,0.004085541,0.006340027,0,
00:02.7,0.003736496,0.004085541,0.006322861,0,
00:02.7,0.00371933,0.004085541,0.006345749,0,
00:02.7,0.003713608,0.004079819,0.006362915,0,
00:02.8,0.003707886,0.004068375,0.006362915,0,
00:02.8,0.00371933,0.004085541,0.006374359,0,
00:02.8,0.00371933,0.004102707,0.006362915,0,
00:02.8,0.003707886,0.004096985,0.006357193,0,
00:02.8,0.003730774,0.004096985,0.006368637,0,
00:02.8,0.003736496,0.004102707,0.006357193,0,
00:02.8,0.003730774,0.004091263,0.006351471,0,
00:02.8,0.003725052,0.004091263,0.006357193,0,
00:02.8,0.00371933,0.004091263,0.006362915,0,
00:02.8,0.003713608,0.004091263,0.006368637,0,
00:02.8,0.003707886,0.004085541,0.006362915,0,
00:02.8,0.003713608,0.004074097,0.006368637,0,
00:02.8,0.003713608,0.004091263,0.006362915,0,
00:02.8,0.003713608,0.004096985,0.006374359,0,
00:02.8,0.003725052,0.004096985,0.006380081,0,
00:02.8,0.003736496,0.004091263,0.006368637,0,
00:02.8,0.003725052,0.004085541,0.006362915,0,
00:02.8,0.003725052,0.004068375,0.006385803,0,
00:02.8,0.00371933,0.004068375,0.006385803,0,
00:02.8,0.003707886,0.004102707,0.006380081,0,
00:02.8,0.003707886,0.004096985,0.006380081,0,
00:02.8,0.003707886,0.004096985,0.006385803,0,
00:02.8,0.003713608,0.004096985,0.006380081,0,
00:02.8,0.003725052,0.004091263,0.006391525,0,
00:02.8,0.003725052,0.004074097,0.006397247,0,
00:02.9,0.003725052,0.004068375,0.006385803,0,
00:02.9,0.00371933,0.004079819,0.006374359,0,
00:02.9,0.00371933,0.004096985,0.006391525,0,
00:02.9,0.00371933,0.004091263,0.006397247,0,
00:02.9,0.003713608,0.004079819,0.006391525,0,
00:02.9,0.003713608,0.004085541,0.006380081,0,
00:02.9,0.003725052,0.004096985,0.006385803,0,
00:02.9,0.00371933,0.004085541,0.006391525,0,
00:02.9,0.003707886,0.004096985,0.006397247,0,
00:02.9,0.003707886,0.004102707,0.006397247,0,
00:02.9,0.003707886,0.004096985,0.006385803,0,
00:02.9,0.003707886,0.004091263,0.006391525,0,
00:02.9,0.003707886,0.004085541,0.006391525,0,
00:02.9,0.003725052,0.004091263,0.006397247,0,
00:02.9,0.003730774,0.004091263,0.006408691,0,
00:02.9,0.003713608,0.004085541,0.006408691,0,
00:02.9,0.003696442,0.004085541,0.006408691,0,
00:02.9,0.003730774,0.004079819,0.006408691,0,
00:02.9,0.003725052,0.004068375,0.006402969,0,
00:02.9,0.003713608,0.004085541,0.006397247,0,
00:02.9,0.003707886,0.004102707,0.006402969,0,
00:02.9,0.003713608,0.004091263,0.006397247,0,
00:02.9,0.003730774,0.004091263,0.006391525,0,
00:02.9,0.003713608,0.004091263,0.006402969,0,
00:02.9,0.003713608,0.004091263,0.006402969,0,
00:03.0,0.003713608,0.004091263,0.006425858,0,
00:03.0,0.003707886,0.004079819,0.006414413,0,
00:03.0,0.003707886,0.004085541,0.006420135,0,
00:03.0,0.003707886,0.004085541,0.006414413,0,
00:03.0,0.003707886,0.004074097,0.006414413,0,
00:03.0,0.003713608,0.004085541,0.006408691,0,
00:03.0,0.003707886,0.004085541,0.006408691,0,
00:03.0,0.003713608,0.004085541,0.006402969,0,
00:03.0,0.003684998,0.004091263,0.006402969,0,
00:03.0,0.003667831,0.004074097,0.006420135,0,
00:03.0,0.003730774,0.004074097,0.00643158,0,
00:03.0,0.003736496,0.004085541,0.006420135,0,
00:00:03,0.00371933,0.004091263,0.006414413,0,
00:03.0,0.003725052,0.004079819,0.006414413,0,
00:03.0,0.003713608,0.004062653,0.006408691,0,
00:03.0,0.003713608,0.004085541,0.006402969,0,
00:03.0,0.003702164,0.004091263,0.006425858,0,
00:03.0,0.003713608,0.004096985,0.00643158,0,
00:03.0,0.003713608,0.004068375,0.006414413,0,
00:03.0,0.003707886,0.004085541,0.006408691,0,
00:03.0,0.003702164,0.004108429,0.006408691,0,
00:03.0,0.003702164,0.004096985,0.00643158,0,
00:03.0,0.00371933,0.004096985,0.00643158,0,
00:03.0,0.003707886,0.004096985,0.006437302,0,
00:03.0,0.003696442,0.004079819,0.006437302,0,
00:03.1,0.00369072,0.004079819,0.00643158,0,
00:03.1,0.003696442,0.004079819,0.00643158,0,
00:03.1,0.003725052,0.004085541,0.00643158,0,
00:03.1,0.00371933,0.004096985,0.006425858,0,
00:03.1,0.003707886,0.004091263,0.006425858,0,
00:03.1,0.003707886,0.004079819,0.006425858,0,
00:03.1,0.003707886,0.004079819,0.006425858,0,
00:03.1,0.00369072,0.004079819,0.006425858,0,
00:03.1,0.00369072,0.004085541,0.006420135,0,
00:03.1,0.003702164,0.004068375,0.006425858,0,
00:03.1,0.003707886,0.004062653,0.006414413,0,
00:03.1,0.003702164,0.004091263,0.006420135,0,
00:03.1,0.00371933,0.004096985,0.006420135,0,
00:03.1,0.003707886,0.004096985,0.006425858,0,
00:03.1,0.003707886,0.004091263,0.00643158,0,
00:03.1,0.003684998,0.004085541,0.006414413,0,
00:03.1,0.003696442,0.004079819,0.006425858,0,
00:03.1,0.003713608,0.004068375,0.00643158,0,
00:03.1,0.003713608,0.004074097,0.00643158,0,
00:03.1,0.003707886,0.004074097,0.00643158,0,
00:03.1,0.003702164,0.004085541,0.006425858,0,
00:03.1,0.003696442,0.004085541,0.006425858,0,
00:03.1,0.00369072,0.004096985,0.006425858,0,
00:03.1,0.003707886,0.004102707,0.006425858,0,
00:03.1,0.00371933,0.004091263,0.00643158,0,
00:03.2,0.003707886,0.004074097,0.006425858,0,
00:03.2,0.003702164,0.004085541,0.006420135,0,
00:03.2,0.003702164,0.004085541,0.006420135,0,
00:03.2,0.003707886,0.004085541,0.006425858,0,
00:03.2,0.003702164,0.004085541,0.00643158,0,
00:03.2,0.003684998,0.004074097,0.006425858,0,
00:03.2,0.003684998,0.004062653,0.00643158,0,
00:03.2,0.003696442,0.004062653,0.006420135,0,
00:03.2,0.003696442,0.004074097,0.006420135,0,
00:03.2,0.003707886,0.004096985,0.006443024,0,
00:03.2,0.003702164,0.004091263,0.006437302,0,
00:03.2,0.003707886,0.004085541,0.00643158,0,
00:03.2,0.00369072,0.004091263,0.006425858,0,
00:03.2,0.003679276,0.004074097,0.006425858,0,
00:03.2,0.003702164,0.004068375,0.006425858,0,
00:03.2,0.003707886,0.004079819,0.006425858,0,
00:03.2,0.003702164,0.004091263,0.006437302,0,
00:03.2,0.003702164,0.004096985,0.006420135,0,
00:03.2,0.003684998,0.004079819,0.006425858,0,
00:03.2,0.003667831,0.004056931,0.00643158,0,
00:03.2,0.003696442,0.004079819,0.006420135,0,
00:03.2,0.003707886,0.004085541,0.006420135,0,
00:03.2,0.003702164,0.004091263,0.006425858,0,
00:03.2,0.003702164,0.004096985,0.006443024,0,
00:03.2,0.003696442,0.004085541,0.006443024,0,
00:03.3,0.00369072,0.004074097,0.00643158,0,
00:03.3,0.003684998,0.004079819,0.00643158,0,
00:03.3,0.003696442,0.004079819,0.006425858,0,
00:03.3,0.00369072,0.004079819,0.006420135,0,
00:03.3,0.003684998,0.004068375,0.00643158,0,
00:03.3,0.003684998,0.004062653,0.006414413,0,
00:03.3,0.003679276,0.004062653,0.006425858,0,
00:03.3,0.003696442,0.004085541,0.006425858,0,
00:03.3,0.00369072,0.004091263,0.006425858,0,
00:03.3,0.00369072,0.004085541,0.006420135,0,
00:03.3,0.003684998,0.004079819,0.006420135,0,
00:03.3,0.00369072,0.004074097,0.006414413,0,
00:03.3,0.003684998,0.004074097,0.006425858,0,
00:03.3,0.003679276,0.004068375,0.006425858,0,
00:03.3,0.00369072,0.004085541,0.006414413,0,
00:03.3,0.00369072,0.004091263,0.006414413,0,
00:03.3,0.003684998,0.004079819,0.006402969,0,
00:03.3,0.003684998,0.004068375,0.006425858,0,
00:03.3,0.00369072,0.004079819,0.006437302,0,
00:03.3,0.00369072,0.004068375,0.006425858,0,
00:03.3,0.003679276,0.004051208,0.006420135,0,
00:03.3,0.003679276,0.004068375,0.006420135,0,
00:03.3,0.00369072,0.004085541,0.006408691,0,
00:03.3,0.003684998,0.004074097,0.006408691,0,
00:03.3,0.003667831,0.004091263,0.006414413,0,
00:03.4,0.003673553,0.004074097,0.006420135,0,
00:03.4,0.00369072,0.004074097,0.006420135,0,
00:03.4,0.003684998,0.004062653,0.006420135,0,
00:03.4,0.003684998,0.004074097,0.006414413,0,
00:03.4,0.003684998,0.004074097,0.006414413,0,
00:03.4,0.003679276,0.004068375,0.006402969,0,
00:03.4,0.003679276,0.004085541,0.006414413,0,
00:03.4,0.003673553,0.004079819,0.006408691,0,
00:03.4,0.003679276,0.004085541,0.006408691,0,
00:03.4,0.003679276,0.004085541,0.006414413,0,
00:03.4,0.003667831,0.004079819,0.006420135,0,
00:03.4,0.003673553,0.004074097,0.006414413,0,
00:03.4,0.003684998,0.004062653,0.006414413,0,
00:03.4,0.003684998,0.004062653,0.006414413,0,
00:03.4,0.003679276,0.004068375,0.006408691,0,
00:03.4,0.003662109,0.004074097,0.006414413,0,
00:03.4,0.003667831,0.004074097,0.006402969,0,
00:03.4,0.00369072,0.004079819,0.006397247,0,
00:03.4,0.003702164,0.004074097,0.006414413,0,
00:03.4,0.003684998,0.004056931,0.006414413,0,
00:03.4,0.003679276,0.004051208,0.006408691,0,
00:03.4,0.003679276,0.004068375,0.006397247,0,
00:03.4,0.003679276,0.004074097,0.006402969,0,
00:03.4,0.003679276,0.004102707,0.006402969,0,
00:03.4,0.003673553,0.004074097,0.006397247,0,
00:03.5,0.003667831,0.004056931,0.006402969,0,
00:03.5,0.003667831,0.004079819,0.006402969,0,
00:03.5,0.003650665,0.004085541,0.006402969,0,
00:03.5,0.003644943,0.004079819,0.006397247,0,
00:03.5,0.003696442,0.004079819,0.006397247,0,
00:03.5,0.003696442,0.004068375,0.006402969,0,
00:03.5,0.003679276,0.004062653,0.006385803,0,
00:03.5,0.003679276,0.004079819,0.006380081,0,
00:03.5,0.003679276,0.004085541,0.006380081,0,
00:03.5,0.003667831,0.004068375,0.006391525,0,
00:03.5,0.003656387,0.004062653,0.006402969,0,
00:03.5,0.003684998,0.004085541,0.006380081,0,
00:03.5,0.003684998,0.004068375,0.006380081,0,
00:03.5,0.003673553,0.004079819,0.006402969,0,
00:03.5,0.003667831,0.004085541,0.006397247,0,
00:03.5,0.003662109,0.004068375,0.006385803,0,
00:03.5,0.003679276,0.004062653,0.006391525,0,
00:03.5,0.003684998,0.004079819,0.006385803,0,
00:03.5,0.003673553,0.004079819,0.006385803,0,
00:03.5,0.003667831,0.004068375,0.006385803,0,
00:03.5,0.003667831,0.004056931,0.006380081,0,
00:03.5,0.003667831,0.004056931,0.006391525,0,
00:03.5,0.003667831,0.004074097,0.006385803,0,
00:03.5,0.003667831,0.004079819,0.006385803,0,
00:03.5,0.003662109,0.004062653,0.006385803,0,
00:03.6,0.003644943,0.004079819,0.006385803,0,
00:03.6,0.003667831,0.004068375,0.006385803,0,
00:03.6,0.003679276,0.004074097,0.006397247,0,
00:03.6,0.003667831,0.004074097,0.006391525,0,
00:03.6,0.003662109,0.004068375,0.006397247,0,
00:03.6,0.003679276,0.004074097,0.006385803,0,
00:03.6,0.003673553,0.004068375,0.006380081,0,
00:03.6,0.003667831,0.004062653,0.006374359,0,
00:03.6,0.003662109,0.004079819,0.006380081,0,
00:03.6,0.003662109,0.004074097,0.006374359,0,
00:03.6,0.003662109,0.004062653,0.006380081,0,
00:03.6,0.003662109,0.004068375,0.006380081,0,
00:03.6,0.003667831,0.004079819,0.006374359,0,
00:03.6,0.003662109,0.004079819,0.006368637,0,
00:03.6,0.003656387,0.004068375,0.006357193,0,
00:03.6,0.003639221,0.004062653,0.006380081,0,
00:03.6,0.003656387,0.004056931,0.006374359,0,
00:03.6,0.003684998,0.004056931,0.006362915,0,
00:03.6,0.003662109,0.004062653,0.006368637,0,
00:03.6,0.003662109,0.004056931,0.006357193,0,
00:03.6,0.003662109,0.004062653,0.006362915,0,
00:03.6,0.003656387,0.004074097,0.006374359,0,
00:03.6,0.003650665,0.004062653,0.006380081,0,
00:03.6,0.003656387,0.004079819,0.006380081,0,
00:03.6,0.003656387,0.004079819,0.006368637,0,
00:03.7,0.003650665,0.004062653,0.006368637,0,
00:03.7,0.003662109,0.004056931,0.006380081,0,
00:03.7,0.003656387,0.004056931,0.006368637,0,
00:03.7,0.003650665,0.004068375,0.006374359,0,
00:03.7,0.003662109,0.004079819,0.006368637,0,
00:03.7,0.003656387,0.004068375,0.006357193,0,
00:03.7,0.003656387,0.004074097,0.006345749,0,
00:03.7,0.003650665,0.004068375,0.006351471,0,
00:03.7,0.003633499,0.004056931,0.006374359,0,
00:03.7,0.003616333,0.004068375,0.006380081,0,
00:03.7,0.003644943,0.004068375,0.006362915,0,
00:03.7,0.003679276,0.004068375,0.006368637,0,
00:03.7,0.003662109,0.004068375,0.006374359,0,
00:03.7,0.003650665,0.004068375,0.006362915,0,
00:03.7,0.003650665,0.004062653,0.006368637,0,
00:03.7,0.003650665,0.004062653,0.006362915,0,
00:03.7,0.003644943,0.004045486,0.006357193,0,
00:03.7,0.003650665,0.004056931,0.006357193,0,
00:03.7,0.003662109,0.004068375,0.006362915,0,
00:03.7,0.003650665,0.004062653,0.006351471,0,
00:03.7,0.003656387,0.004079819,0.006351471,0,
00:03.7,0.003656387,0.004074097,0.006362915,0,
00:03.7,0.003650665,0.004056931,0.006345749,0,
00:03.7,0.003650665,0.004068375,0.006345749,0,
00:03.7,0.003650665,0.004074097,0.006351471,0,
00:03.8,0.003644943,0.004051208,0.006340027,0,
00:03.8,0.003650665,0.004051208,0.006340027,0,
00:03.8,0.003650665,0.004062653,0.006368637,0,
00:03.8,0.003650665,0.004074097,0.006362915,0,
00:03.8,0.003639221,0.004074097,0.006351471,0,
00:03.8,0.003639221,0.004056931,0.006345749,0,
00:03.8,0.003633499,0.004068375,0.006345749,0,
00:03.8,0.003639221,0.004079819,0.006345749,0,
00:03.8,0.003650665,0.004068375,0.006345749,0,
00:03.8,0.003633499,0.004056931,0.006334305,0,
00:03.8,0.003656387,0.004056931,0.006334305,0,
00:03.8,0.003662109,0.004074097,0.006345749,0,
00:03.8,0.003650665,0.004079819,0.006345749,0,
00:03.8,0.003633499,0.004068375,0.006340027,0,
00:03.8,0.003650665,0.004062653,0.006328583,0,
00:03.8,0.003650665,0.004062653,0.006334305,0,
00:03.8,0.003656387,0.004074097,0.006328583,0,
00:03.8,0.003650665,0.004068375,0.006328583,0,
00:03.8,0.003644943,0.004068375,0.006351471,0,
00:03.8,0.003650665,0.004056931,0.006328583,0,
00:03.8,0.003650665,0.004051208,0.006322861,0,
00:03.8,0.003650665,0.004045486,0.006334305,0,
00:03.8,0.003639221,0.004062653,0.006345749,0,
00:03.8,0.003644943,0.004074097,0.006334305,0,
00:03.8,0.003650665,0.004068375,0.006334305,0,
00:03.9,0.003644943,0.004062653,0.006328583,0,
00:03.9,0.003627777,0.004056931,0.006328583,0,
00:03.9,0.003627777,0.004074097,0.006328583,0,
00:03.9,0.003633499,0.004074097,0.006328583,0,
00:03.9,0.003639221,0.004068375,0.006328583,0,
00:03.9,0.003639221,0.004051208,0.006322861,0,
00:03.9,0.003656387,0.004056931,0.006322861,0,
00:03.9,0.003650665,0.004068375,0.006305695,0,
00:03.9,0.003656387,0.004085541,0.006322861,0,
00:03.9,0.003656387,0.004074097,0.006317139,0,
00:03.9,0.003644943,0.004062653,0.006299973,0,
00:03.9,0.003650665,0.004068375,0.006311417,0,
00:03.9,0.003644943,0.004062653,0.006322861,0,
00:03.9,0.003627777,0.004062653,0.006340027,0,
00:03.9,0.003644943,0.004062653,0.006322861,0,
00:03.9,0.003650665,0.004062653,0.006328583,0,
00:03.9,0.003650665,0.004056931,0.006322861,0,
00:03.9,0.003633499,0.004068375,0.006328583,0,
00:03.9,0.003639221,0.004079819,0.006317139,0,
00:03.9,0.003650665,0.004068375,0.006317139,0,
00:03.9,0.003644943,0.004068375,0.006311417,0,
00:03.9,0.003639221,0.004056931,0.006305695,0,
00:03.9,0.003627777,0.004056931,0.006311417,0,
00:03.9,0.003633499,0.004068375,0.006322861,0,
00:03.9,0.003650665,0.004068375,0.006317139,0,
00:04.0,0.003644943,0.004062653,0.006311417,0,
00:04.0,0.003639221,0.004068375,0.006305695,0,
00:04.0,0.003650665,0.004056931,0.006299973,0,
00:04.0,0.003644943,0.004051208,0.006305695,0,
00:04.0,0.003644943,0.004062653,0.006317139,0,
00:04.0,0.003644943,0.004074097,0.00629425,0,
00:04.0,0.003633499,0.004074097,0.006305695,0,
00:04.0,0.003644943,0.004074097,0.00629425,0,
00:04.0,0.003650665,0.004062653,0.006311417,0,
00:04.0,0.003644943,0.004051208,0.006317139,0,
00:04.0,0.003633499,0.004039764,0.006317139,0,
00:04.0,0.003650665,0.004068375,0.006317139,0,
00:00:04,0.003650665,0.004079819,0.006311417,0,
00:04.0,0.003644943,0.004085541,0.006311417,0,
00:04.0,0.003633499,0.004079819,0.006299973,0,
00:04.0,0.003622055,0.004068375,0.00629425,0,
00:04.0,0.003639221,0.004068375,0.006305695,0,
00:04.0,0.003662109,0.004074097,0.006317139,0,
00:04.0,0.003656387,0.004068375,0.006305695,0,
00:04.0,0.003650665,0.004062653,0.006305695,0,
00:04.0,0.003644943,0.004056931,0.006299973,0,
00:04.0,0.003627777,0.004062653,0.006299973,0,
00:04.0,0.003627777,0.004068375,0.00629425,0,
00:04.0,0.003644943,0.004062653,0.006288528,0,
00:04.0,0.003650665,0.004074097,0.006299973,0,
00:04.1,0.003650665,0.004074097,0.006299973,0,
00:04.1,0.003662109,0.004074097,0.006299973,0,
00:04.1,0.003650665,0.004068375,0.006305695,0,
00:04.1,0.003644943,0.004051208,0.006311417,0,
00:04.1,0.003633499,0.004039764,0.006305695,0,
00:04.1,0.003639221,0.004074097,0.006305695,0,
00:04.1,0.003656387,0.004085541,0.006299973,0,
00:04.1,0.003644943,0.004074097,0.00629425,0,
00:04.1,0.003644943,0.004068375,0.006305695,0,
00:04.1,0.003639221,0.004051208,0.006305695,0,
00:04.1,0.003650665,0.004045486,0.006299973,0,
00:04.1,0.003656387,0.004068375,0.006299973,0,
00:04.1,0.003656387,0.004091263,0.006305695,0,
00:04.1,0.003644943,0.004085541,0.006299973,0,
00:04.1,0.003633499,0.004079819,0.006299973,0,
00:04.1,0.003644943,0.004074097,0.006288528,0,
00:04.1,0.003673553,0.004074097,0.00629425,0,
00:04.1,0.003662109,0.004074097,0.006305695,0,
00:04.1,0.003656387,0.004079819,0.006305695,0,
00:04.1,0.003650665,0.004079819,0.006299973,0,
00:04.1,0.003656387,0.004074097,0.00629425,0,
00:04.1,0.003650665,0.004062653,0.006288528,0,
00:04.1,0.003644943,0.004045486,0.006277084,0,
00:04.1,0.003656387,0.004079819,0.006299973,0,
00:04.1,0.003656387,0.004079819,0.006311417,0,
00:04.2,0.003656387,0.004085541,0.006311417,0,
00:04.2,0.003662109,0.004091263,0.006299973,0,
00:04.2,0.003650665,0.004085541,0.006305695,0,
00:04.2,0.003639221,0.004079819,0.006299973,0,
00:04.2,0.003644943,0.004051208,0.00629425,0,
00:04.2,0.003656387,0.004068375,0.00629425,0,
00:04.2,0.003662109,0.004085541,0.006299973,0,
00:04.2,0.003667831,0.004079819,0.00629425,0,
00:04.2,0.003662109,0.004074097,0.006299973,0,
00:04.2,0.003656387,0.004068375,0.006299973,0,
00:04.2,0.003644943,0.004074097,0.006288528,0,
00:04.2,0.003650665,0.004091263,0.006282806,0,
00:04.2,0.003656387,0.004085541,0.006299973,0,
00:04.2,0.003667831,0.004091263,0.006305695,0,
00:04.2,0.003673553,0.004085541,0.006305695,0,
00:04.2,0.003667831,0.004079819,0.006305695,0,
00:04.2,0.003656387,0.004079819,0.006305695,0,
00:04.2,0.003650665,0.004079819,0.00629425,0,
00:04.2,0.003673553,0.004079819,0.006299973,0,
00:04.2,0.003673553,0.004085541,0.006305695,0,
00:04.2,0.003667831,0.004091263,0.006305695,0,
00:04.2,0.003650665,0.004085541,0.006299973,0,
00:04.2,0.003644943,0.004079819,0.006299973,0,
00:04.2,0.003650665,0.004079819,0.00629425,0,
00:04.2,0.003656387,0.004074097,0.00629425,0,
00:04.3,0.003679276,0.004062653,0.006299973,0,
00:04.3,0.003684998,0.004085541,0.00629425,0,
00:04.3,0.003679276,0.004079819,0.006288528,0,
00:04.3,0.003673553,0.004074097,0.006288528,0,
00:04.3,0.003667831,0.004085541,0.006299973,0,
00:04.3,0.003667831,0.004102707,0.00629425,0,
00:04.3,0.003667831,0.004102707,0.006282806,0,
00:04.3,0.003667831,0.004085541,0.006305695,0,
00:04.3,0.003679276,0.004085541,0.006305695,0,
00:04.3,0.003684998,0.004091263,0.006299973,0,
00:04.3,0.003679276,0.004091263,0.006299973,0,
00:04.3,0.003679276,0.004091263,0.006299973,0,
00:04.3,0.003679276,0.004091263,0.006299973,0,
00:04.3,0.003679276,0.004091263,0.006305695,0,
00:04.3,0.003679276,0.004091263,0.006317139,0,
00:04.3,0.003679276,0.004096985,0.006311417,0,
00:04.3,0.003673553,0.004091263,0.006305695,0,
00:04.3,0.003656387,0.004079819,0.006317139,0,
00:04.3,0.003673553,0.004091263,0.006317139,0,
00:04.3,0.003696442,0.004096985,0.006305695,0,
00:04.3,0.003684998,0.004079819,0.006305695,0,
00:04.3,0.003673553,0.004085541,0.006299973,0,
00:04.3,0.003679276,0.004085541,0.006305695,0,
00:04.3,0.003679276,0.004085541,0.006328583,0,
00:04.3,0.00369072,0.004091263,0.006328583,0,
00:04.4,0.003702164,0.004096985,0.006311417,0,
00:04.4,0.00369072,0.004119873,0.006317139,0,
00:04.4,0.00369072,0.004102707,0.006328583,0,
00:04.4,0.003684998,0.004085541,0.006328583,0,
00:04.4,0.003696442,0.004085541,0.006322861,0,
00:04.4,0.003679276,0.004091263,0.006322861,0,
00:04.4,0.003679276,0.004108429,0.006322861,0,
00:04.4,0.00369072,0.004102707,0.006317139,0,
00:04.4,0.003673553,0.004091263,0.006311417,0,
00:04.4,0.003696442,0.004096985,0.006311417,0,
00:04.4,0.003707886,0.004096985,0.006311417,0,
00:04.4,0.003702164,0.004096985,0.006328583,0,
00:04.4,0.003696442,0.004114151,0.006328583,0,
00:04.4,0.003684998,0.004108429,0.006328583,0,
00:04.4,0.003679276,0.004102707,0.006311417,0,
00:04.4,0.00369072,0.004096985,0.006317139,0,
00:04.4,0.003696442,0.004096985,0.006322861,0,
00:04.4,0.003707886,0.004108429,0.006334305,0,
00:04.4,0.003707886,0.004096985,0.006328583,0,
00:04.4,0.003707886,0.004091263,0.006322861,0,
00:04.4,0.003707886,0.004108429,0.006322861,0,
00:04.4,0.003707886,0.004108429,0.006334305,0,
00:04.4,0.003696442,0.004108429,0.006328583,0,
00:04.4,0.00369072,0.004114151,0.006317139,0,
00:04.4,0.003702164,0.004091263,0.006334305,0,
00:04.5,0.003707886,0.004091263,0.006322861,0,
00:04.5,0.003679276,0.004108429,0.006334305,0,
00:04.5,0.003684998,0.004114151,0.006340027,0,
00:04.5,0.003713608,0.004114151,0.006340027,0,
00:04.5,0.003725052,0.004102707,0.006340027,0,
00:04.5,0.003707886,0.004119873,0.006334305,0,
00:04.5,0.003713608,0.004114151,0.006317139,0,
00:04.5,0.003713608,0.004102707,0.006328583,0,
00:04.5,0.003713608,0.004102707,0.006340027,0,
00:04.5,0.003713608,0.004096985,0.006351471,0,
00:04.5,0.003707886,0.004102707,0.006351471,0,
00:04.5,0.003702164,0.004114151,0.006340027,0,
00:04.5,0.00371933,0.004114151,0.006334305,0,
00:04.5,0.003707886,0.004114151,0.006340027,0,
00:04.5,0.003707886,0.004096985,0.006340027,0,
00:04.5,0.003725052,0.004114151,0.006345749,0,
00:04.5,0.003725052,0.004114151,0.006340027,0,
00:04.5,0.00371933,0.004114151,0.006351471,0,
00:04.5,0.00371933,0.004119873,0.006357193,0,
00:04.5,0.003713608,0.004119873,0.006351471,0,
00:04.5,0.003696442,0.004102707,0.006351471,0,
00:04.5,0.003713608,0.004108429,0.006340027,0,
00:04.5,0.00371933,0.004108429,0.006328583,0,
00:04.5,0.003702164,0.004108429,0.006334305,0,
00:04.5,0.003725052,0.004114151,0.006340027,0,
00:04.6,0.003730774,0.004108429,0.006351471,0,
00:04.6,0.00371933,0.004125595,0.006357193,0,
00:04.6,0.00371933,0.004131317,0.006345749,0,
00:04.6,0.00371933,0.004119873,0.006340027,0,
00:04.6,0.003707886,0.004102707,0.006351471,0,
00:04.6,0.003713608,0.004114151,0.006357193,0,
00:04.6,0.00371933,0.004119873,0.006345749,0,
00:04.6,0.003730774,0.004119873,0.006351471,0,
00:04.6,0.003725052,0.004119873,0.006351471,0,
00:04.6,0.003730774,0.004119873,0.006340027,0,
00:04.6,0.00371933,0.004114151,0.006351471,0,
00:04.6,0.003713608,0.004119873,0.006357193,0,
00:04.6,0.00371933,0.004114151,0.006351471,0,
00:04.6,0.003730774,0.004119873,0.006340027,0,
00:04.6,0.003725052,0.004119873,0.006340027,0,
00:04.6,0.00371933,0.004102707,0.006345749,0,
00:04.6,0.003707886,0.004108429,0.006351471,0,
00:04.6,0.003730774,0.004114151,0.006351471,0,
00:04.6,0.003742218,0.004114151,0.006351471,0,
00:04.6,0.003730774,0.004114151,0.006357193,0,
00:04.6,0.003736496,0.004131317,0.006357193,0,
00:04.6,0.003736496,0.004125595,0.006351471,0,
00:04.6,0.003725052,0.004114151,0.006345749,0,
00:04.6,0.003725052,0.004125595,0.006345749,0,
00:04.6,0.003736496,0.004119873,0.006345749,0,
00:04.7,0.003730774,0.004131317,0.006351471,0,
00:04.7,0.003742218,0.004131317,0.006351471,0,
00:04.7,0.003742218,0.004137039,0.006357193,0,
00:04.7,0.003736496,0.004131317,0.006351471,0,
00:04.7,0.003730774,0.004119873,0.006351471,0,
00:04.7,0.003736496,0.004114151,0.006340027,0,
00:04.7,0.003725052,0.004125595,0.006317139,0,
00:04.7,0.003696442,0.004125595,0.006345749,0,
00:04.7,0.003725052,0.004125595,0.006362915,0,
00:04.7,0.00374794,0.004119873,0.006351471,0,
00:04.7,0.003753662,0.004125595,0.006351471,0,
00:04.7,0.003759384,0.004131317,0.006362915,0,
00:04.7,0.003753662,0.004125595,0.006351471,0,
00:04.7,0.00374794,0.004119873,0.006340027,0,
00:04.7,0.003742218,0.004119873,0.006345749,0,
00:04.7,0.003736496,0.004119873,0.006340027,0,
00:04.7,0.00374794,0.004125595,0.006345749,0,
00:04.7,0.00374794,0.004119873,0.006334305,0,
00:04.7,0.003753662,0.004108429,0.006334305,0,
00:04.7,0.003759384,0.004114151,0.006334305,0,
00:04.7,0.003753662,0.004091263,0.006328583,0,
00:04.7,0.003753662,0.004096985,0.006334305,0,
00:04.7,0.003753662,0.004148483,0.006345749,0,
00:04.7,0.00374794,0.004148483,0.006340027,0,
00:04.7,0.003736496,0.004137039,0.006340027,0,
00:04.8,0.003742218,0.004125595,0.006334305,0,
00:04.8,0.003765106,0.004125595,0.006322861,0,
00:04.8,0.003753662,0.004142761,0.006322861,0,
00:04.8,0.003759384,0.004125595,0.006334305,0,
00:04.8,0.003753662,0.004125595,0.006340027,0,
00:04.8,0.003759384,0.004131317,0.006345749,0,
00:04.8,0.003759384,0.004131317,0.006334305,0,
00:04.8,0.003753662,0.004142761,0.006340027,0,
00:04.8,0.003759384,0.004125595,0.006328583,0,
00:04.8,0.003742218,0.004114151,0.006328583,0,
00:04.8,0.003759384,0.004119873,0.006334305,0,
00:04.8,0.003765106,0.004125595,0.006334305,0,
00:04.8,0.003753662,0.004131317,0.006334305,0,
00:04.8,0.003759384,0.004125595,0.006328583,0,
00:04.8,0.00374794,0.004131317,0.006334305,0,
00:04.8,0.003742218,0.004125595,0.006340027,0,
00:04.8,0.003759384,0.004119873,0.006351471,0,
00:04.8,0.00377655,0.004108429,0.006340027,0,
00:04.8,0.003759384,0.004108429,0.006334305,0,
00:04.8,0.003753662,0.004114151,0.006328583,0,
00:04.8,0.003759384,0.004125595,0.006322861,0,
00:04.8,0.003765106,0.004142761,0.006322861,0,
00:04.8,0.003753662,0.004142761,0.006340027,0,
00:04.8,0.003753662,0.004114151,0.006340027,0,
00:04.8,0.003765106,0.004131317,0.006345749,0,
00:04.9,0.003770828,0.004125595,0.006340027,0,
00:04.9,0.00377655,0.004148483,0.006334305,0,
00:04.9,0.003770828,0.004148483,0.006328583,0,
00:04.9,0.003765106,0.004119873,0.006334305,0,
00:04.9,0.003770828,0.004125595,0.006340027,0,
00:04.9,0.003770828,0.004131317,0.006328583,0,
00:04.9,0.003759384,0.004137039,0.006334305,0,
00:04.9,0.00374794,0.004137039,0.006340027,0,
00:04.9,0.00374794,0.004125595,0.006328583,0,
00:04.9,0.00377655,0.004125595,0.006328583,0,
00:04.9,0.003782272,0.004131317,0.006334305,0,
00:04.9,0.003770828,0.004131317,0.006322861,0,
00:04.9,0.003782272,0.004125595,0.006322861,0,
00:04.9,0.00377655,0.004114151,0.006328583,0,
00:04.9,0.003765106,0.004114151,0.006317139,0,
00:04.9,0.003759384,0.004125595,0.006340027,0,
00:04.9,0.00377655,0.004137039,0.006340027,0,
00:04.9,0.003759384,0.004131317,0.006334305,0,
00:04.9,0.003742218,0.004125595,0.006328583,0,
00:04.9,0.003770828,0.004119873,0.006322861,0,
00:04.9,0.003787994,0.004108429,0.006311417,0,
00:04.9,0.00377655,0.004119873,0.006311417,0,
00:04.9,0.003770828,0.004125595,0.006345749,0,
00:04.9,0.003770828,0.004108429,0.006345749,0,
00:04.9,0.003765106,0.004108429,0.006345749,0,
00:05.0,0.003753662,0.004125595,0.006340027,0,
00:05.0,0.00374794,0.004114151,0.006334305,0,
00:05.0,0.003770828,0.004148483,0.006328583,0,
00:05.0,0.003787994,0.004154205,0.006328583,0,
00:05.0,0.003782272,0.004131317,0.006317139,0,
00:05.0,0.003770828,0.004125595,0.006317139,0,
00:05.0,0.00377655,0.004131317,0.006322861,0,
00:05.0,0.003770828,0.004119873,0.006340027,0,
00:05.0,0.003759384,0.004119873,0.006334305,0,
00:05.0,0.003765106,0.004137039,0.006322861,0,
00:05.0,0.003787994,0.004137039,0.006317139,0,
00:05.0,0.003793716,0.004131317,0.006322861,0,
00:00:05,0.00377655,0.004119873,0.006317139,0,
00:05.0,0.00377655,0.004119873,0.006322861,0,
00:05.0,0.003782272,0.004125595,0.006322861,0,
00:05.0,0.00377655,0.004119873,0.006311417,0,
00:05.0,0.00377655,0.004125595,0.006322861,0,
00:05.0,0.00377655,0.004131317,0.006340027,0,
00:05.0,0.00377655,0.004131317,0.006340027,0,
00:05.0,0.003765106,0.004108429,0.006328583,0,
00:05.0,0.00377655,0.004096985,0.006328583,0,
00:05.0,0.003787994,0.004114151,0.006328583,0,
00:05.0,0.003770828,0.004114151,0.006328583,0,
00:05.0,0.003765106,0.004148483,0.006322861,0,
00:05.0,0.003787994,0.004137039,0.006317139,0,
00:05.1,0.003787994,0.004131317,0.006328583,0,
00:05.1,0.003793716,0.004119873,0.006334305,0,
00:05.1,0.003782272,0.004114151,0.006340027,0,
00:05.1,0.003770828,0.004102707,0.006328583,0,
00:05.1,0.003765106,0.004108429,0.006328583,0,
00:05.1,0.003787994,0.004142761,0.006328583,0,
00:05.1,0.003793716,0.004131317,0.006317139,0,
00:05.1,0.003782272,0.004125595,0.006328583,0,
00:05.1,0.003782272,0.004125595,0.006328583,0,
00:05.1,0.00377655,0.004125595,0.006328583,0,
00:05.1,0.003770828,0.004125595,0.006328583,0,
00:05.1,0.00377655,0.004125595,0.006328583,0,
00:05.1,0.003770828,0.004114151,0.006317139,0,
00:05.1,0.003759384,0.004102707,0.006322861,0,
00:05.1,0.003799438,0.004096985,0.006322861,0,
00:05.1,0.003810883,0.004125595,0.006311417,0,
00:05.1,0.003799438,0.004137039,0.006311417,0,
00:05.1,0.003787994,0.004125595,0.006299973,0,
00:05.1,0.003787994,0.004125595,0.006299973,0,
00:05.1,0.003793716,0.004131317,0.006311417,0,
00:05.1,0.003787994,0.004119873,0.006311417,0,
00:05.1,0.003787994,0.004125595,0.006317139,0,
00:05.1,0.003782272,0.004125595,0.006322861,0,
00:05.1,0.003765106,0.004108429,0.006317139,0,
00:05.1,0.003765106,0.004102707,0.006317139,0,
00:05.2,0.003810883,0.004125595,0.006305695,0,
00:05.2,0.003805161,0.004131317,0.006305695,0,
00:05.2,0.003793716,0.004119873,0.006317139,0,
00:05.2,0.00377655,0.004114151,0.006311417,0,
00:05.2,0.003753662,0.004108429,0.006305695,0,
00:05.2,0.00377655,0.004102707,0.006305695,0,
00:05.2,0.003799438,0.004119873,0.006305695,0,
00:05.2,0.003793716,0.004119873,0.006299973,0,
00:05.2,0.003799438,0.004119873,0.00629425,0,
00:05.2,0.003793716,0.004108429,0.006299973,0,
00:05.2,0.003787994,0.004108429,0.006299973,0,
00:05.2,0.003787994,0.004119873,0.006305695,0,
00:05.2,0.003793716,0.004114151,0.006305695,0,
00:05.2,0.003787994,0.004096985,0.006311417,0,
00:05.2,0.003793716,0.004108429,0.006299973,0,
00:05.2,0.003787994,0.004137039,0.006299973,0,
00:05.2,0.003782272,0.004131317,0.006305695,0,
00:05.2,0.003799438,0.004131317,0.006299973,0,
00:05.2,0.003793716,0.004119873,0.006288528,0,
00:05.2,0.003782272,0.004108429,0.006288528,0,
00:05.2,0.003793716,0.004108429,0.006305695,0,
00:05.2,0.003799438,0.004114151,0.006299973,0,
00:05.2,0.003793716,0.004125595,0.006305695,0,
00:05.2,0.00377655,0.004114151,0.00629425,0,
00:05.2,0.003765106,0.004102707,0.006288528,0,
00:05.3,0.00377655,0.004114151,0.006299973,0,
00:05.3,0.003805161,0.004119873,0.006299973,0,
00:05.3,0.003805161,0.004119873,0.00629425,0,
00:05.3,0.003793716,0.004119873,0.00629425,0,
00:05.3,0.003799438,0.004119873,0.006271362,0,
00:05.3,0.003793716,0.004119873,0.006282806,0,
00:05.3,0.003793716,0.004114151,0.00629425,0,
00:05.3,0.003805161,0.004114151,0.006299973,0,
00:05.3,0.003805161,0.004114151,0.006299973,0,
00:05.3,0.003799438,0.004125595,0.006299973,0,
00:05.3,0.003787994,0.004125595,0.00629425,0,
00:05.3,0.003787994,0.004114151,0.00629425,0,
00:05.3,0.003799438,0.004108429,0.00629425,0,
00:05.3,0.003799438,0.004108429,0.006288528,0,
00:05.3,0.003793716,0.004114151,0.006277084,0,
00:05.3,0.003770828,0.004125595,0.006282806,0,
00:05.3,0.00377655,0.004114151,0.00629425,0,
00:05.3,0.003799438,0.004102707,0.006288528,0,
00:05.3,0.003810883,0.004108429,0.006282806,0,
00:05.3,0.003793716,0.004119873,0.006288528,0,
00:05.3,0.003799438,0.004119873,0.006288528,0,
00:05.3,0.003805161,0.004102707,0.006282806,0,
00:05.3,0.003799438,0.004125595,0.006288528,0,
00:05.3,0.003793716,0.004125595,0.006282806,0,
00:05.3,0.003787994,0.004114151,0.006259918,0,
00:05.4,0.003810883,0.004119873,0.00626564,0,
00:05.4,0.003810883,0.004119873,0.006305695,0,
00:05.4,0.003799438,0.004108429,0.00629425,0,
00:05.4,0.003793716,0.004102707,0.006282806,0,
00:05.4,0.003799438,0.004108429,0.006288528,0,
00:05.4,0.003810883,0.004096985,0.006299973,0,
00:05.4,0.003805161,0.004102707,0.00629425,0,
00:05.4,0.003799438,0.004125595,0.006288528,0,
00:05.4,0.003799438,0.004114151,0.006282806,0,
00:05.4,0.003805161,0.004091263,0.006282806,0,
00:05.4,0.003805161,0.004102707,0.006282806,0,
00:05.4,0.003793716,0.004142761,0.006282806,0,
00:05.4,0.003793716,0.004119873,0.006277084,0,
00:05.4,0.003828049,0.004102707,0.006271362,0,
00:05.4,0.003822327,0.004108429,0.00626564,0,
00:05.4,0.003816605,0.004125595,0.00626564,0,
00:05.4,0.003810883,0.004119873,0.006259918,0,
00:05.4,0.003805161,0.004114151,0.006288528,0,
00:05.4,0.003787994,0.004096985,0.00629425,0,
00:05.4,0.003799438,0.004102707,0.006288528,0,
00:05.4,0.003822327,0.004119873,0.006277084,0,
00:05.4,0.003799438,0.004114151,0.006288528,0,
00:05.4,0.003805161,0.004119873,0.006282806,0,
00:05.4,0.003816605,0.004102707,0.006277084,0,
00:05.4,0.003822327,0.004085541,0.006271362,0,
00:05.5,0.003816605,0.004108429,0.006271362,0,
00:05.5,0.003805161,0.004119873,0.006277084,0,
00:05.5,0.003805161,0.004119873,0.006271362,0,
00:05.5,0.003805161,0.004102707,0.00626564,0,
00:05.5,0.003805161,0.004085541,0.006248474,0,
00:05.5,0.003805161,0.004085541,0.00626564,0,
00:05.5,0.003793716,0.004131317,0.006277084,0,
00:05.5,0.003805161,0.004125595,0.006271362,0,
00:05.5,0.003822327,0.004114151,0.006248474,0,
00:05.5,0.003810883,0.004114151,0.00626564,0,
00:05.5,0.003816605,0.004114151,0.006271362,0,
00:05.5,0.003822327,0.004114151,0.006271362,0,
00:05.5,0.003805161,0.004114151,0.006271362,0,
00:05.5,0.003810883,0.004102707,0.006277084,0,
00:05.5,0.003816605,0.004085541,0.006271362,0,
00:05.5,0.003816605,0.004102707,0.006271362,0,
00:05.5,0.003805161,0.004119873,0.00626564,0,
00:05.5,0.003805161,0.004125595,0.006259918,0,
00:05.5,0.003810883,0.004114151,0.006259918,0,
00:05.5,0.003822327,0.004102707,0.00626564,0,
00:05.5,0.003810883,0.004102707,0.006259918,0,
00:05.5,0.003805161,0.004102707,0.006254196,0,
00:05.5,0.003816605,0.004114151,0.006254196,0,
00:05.5,0.003810883,0.004119873,0.006259918,0,
00:05.5,0.003816605,0.004108429,0.006254196,0,
00:05.6,0.003816605,0.004108429,0.006254196,0,
00:05.6,0.003810883,0.004108429,0.006259918,0,
00:05.6,0.003816605,0.004091263,0.006259918,0,
00:05.6,0.003810883,0.004096985,0.00626564,0,
00:05.6,0.003816605,0.004119873,0.006248474,0,
00:05.6,0.003810883,0.004108429,0.00623703,0,
00:05.6,0.003805161,0.004114151,0.00626564,0,
00:05.6,0.003816605,0.004114151,0.006271362,0,
00:05.6,0.003810883,0.004108429,0.006259918,0,
00:05.6,0.003810883,0.004102707,0.006259918,0,
00:05.6,0.003822327,0.004114151,0.006259918,0,
00:05.6,0.003805161,0.004096985,0.006248474,0,
00:05.6,0.003799438,0.004085541,0.006248474,0,
00:05.6,0.003816605,0.004119873,0.006248474,0,
00:05.6,0.003822327,0.004108429,0.006254196,0,
00:05.6,0.003822327,0.004114151,0.006254196,0,
00:05.6,0.003822327,0.004114151,0.006259918,0,
00:05.6,0.003822327,0.004114151,0.006254196,0,
00:05.6,0.003816605,0.004096985,0.006242752,0,
00:05.6,0.003793716,0.004091263,0.00623703,0,
00:05.6,0.00377655,0.004096985,0.00623703,0,
00:05.6,0.003828049,0.004114151,0.006259918,0,
00:05.6,0.003839493,0.004096985,0.006259918,0,
00:05.6,0.003816605,0.004091263,0.006248474,0,
00:05.6,0.003822327,0.004108429,0.006248474,0,
00:05.7,0.003828049,0.004096985,0.006248474,0,
00:05.7,0.003822327,0.004102707,0.006248474,0,
00:05.7,0.003822327,0.004114151,0.00623703,0,
00:05.7,0.003822327,0.004114151,0.006231308,0,
00:05.7,0.003822327,0.004085541,0.006242752,0,
00:05.7,0.003822327,0.004114151,0.006248474,0,
00:05.7,0.003828049,0.004125595,0.006242752,0,
00:05.7,0.003816605,0.004114151,0.006225586,0,
00:05.7,0.003805161,0.004102707,0.00623703,0,
00:05.7,0.003822327,0.004102707,0.006242752,0,
00:05.7,0.003828049,0.004102707,0.006242752,0,
00:05.7,0.003833771,0.004096985,0.006242752,0,
00:05.7,0.003816605,0.004074097,0.00623703,0,
00:05.7,0.003816605,0.004091263,0.006219864,0,
00:05.7,0.003828049,0.004119873,0.006231308,0,
00:05.7,0.003828049,0.004114151,0.006248474,0,
00:05.7,0.003828049,0.004114151,0.006242752,0,
00:05.7,0.003822327,0.004108429,0.006242752,0,
00:05.7,0.003828049,0.004102707,0.006231308,0,
00:05.7,0.003839493,0.004102707,0.006231308,0,
00:05.7,0.003833771,0.004102707,0.006225586,0,
00:05.7,0.003828049,0.004108429,0.006225586,0,
00:05.7,0.003822327,0.004108429,0.006225586,0,
00:05.7,0.003828049,0.004108429,0.006231308,0,
00:05.7,0.003822327,0.004096985,0.00623703,0,
00:05.8,0.003810883,0.004091263,0.00623703,0,
00:05.8,0.003828049,0.004096985,0.006231308,0,
00:05.8,0.003828049,0.004114151,0.006225586,0,
00:05.8,0.003822327,0.004085541,0.006225586,0,
00:05.8,0.003810883,0.004079819,0.006219864,0,
00:05.8,0.003822327,0.004125595,0.006219864,0,
00:05.8,0.003816605,0.004125595,0.006231308,0,
00:05.8,0.003822327,0.004108429,0.006231308,0,
00:05.8,0.003845215,0.004096985,0.006214142,0,
00:05.8,0.003839493,0.004091263,0.006219864,0,
00:05.8,0.003833771,0.004108429,0.00623703,0,
00:05.8,0.003833771,0.004108429,0.00623703,0,
00:05.8,0.003822327,0.004108429,0.006225586,0,
00:05.8,0.003822327,0.004108429,0.006214142,0,
00:05.8,0.003828049,0.004108429,0.006225586,0,
00:05.8,0.003833771,0.004102707,0.006214142,0,
00:05.8,0.003822327,0.004091263,0.006214142,0,
00:05.8,0.003816605,0.004085541,0.006225586,0,
00:05.8,0.003822327,0.004091263,0.006225586,0,
00:05.8,0.003822327,0.004102707,0.006225586,0,
00:05.8,0.003828049,0.004114151,0.006219864,0,
00:05.8,0.003839493,0.004108429,0.006219864,0,
00:05.8,0.003833771,0.004102707,0.006214142,0,
00:05.8,0.003833771,0.004102707,0.006214142,0,
00:05.8,0.003833771,0.004096985,0.00620842,0,
00:05.9,0.003833771,0.004096985,0.00620842,0,
00:05.9,0.003828049,0.004108429,0.00620842,0,
00:05.9,0.003805161,0.004085541,0.006196976,0,
00:05.9,0.003822327,0.004108429,0.006202698,0,
00:05.9,0.003850937,0.004108429,0.006202698,0,
00:05.9,0.003833771,0.004108429,0.006214142,0,
00:05.9,0.003816605,0.004102707,0.006214142,0,
00:05.9,0.003833771,0.004091263,0.006214142,0,
00:05.9,0.003839493,0.004096985,0.006214142,0,
00:05.9,0.003833771,0.004096985,0.006202698,0,
00:05.9,0.003828049,0.004102707,0.00620842,0,
00:05.9,0.003833771,0.004102707,0.00620842,0,
00:05.9,0.003828049,0.004102707,0.00620842,0,
00:05.9,0.003828049,0.004091263,0.006219864,0,
00:05.9,0.003816605,0.004079819,0.00620842,0,
00:05.9,0.003828049,0.004102707,0.00620842,0,
00:05.9,0.003839493,0.004108429,0.006202698,0,
00:05.9,0.003833771,0.004079819,0.006202698,0,
00:05.9,0.003822327,0.004079819,0.006196976,0,
00:05.9,0.003828049,0.004114151,0.00620842,0,
00:05.9,0.003845215,0.004108429,0.00620842,0,
00:05.9,0.003828049,0.004114151,0.00620842,0,
00:05.9,0.003805161,0.004108429,0.006196976,0,
00:05.9,0.003816605,0.004085541,0.006196976,0,
00:05.9,0.003850937,0.004091263,0.006191254,0,
00:06.0,0.003839493,0.004096985,0.006196976,0,
00:06.0,0.003833771,0.004091263,0.006191254,0,
00:06.0,0.003839493,0.004085541,0.00617981,0,
00:06.0,0.003845215,0.004096985,0.006191254,0,
00:06.0,0.003828049,0.004096985,0.00620842,0,
00:06.0,0.003828049,0.004096985,0.006202698,0,
00:06.0,0.003822327,0.004085541,0.006196976,0,
00:06.0,0.003828049,0.004091263,0.006185532,0,
00:06.0,0.003833771,0.004102707,0.006185532,0,
00:06.0,0.003833771,0.004091263,0.006185532,0,
00:06.0,0.003833771,0.004096985,0.006185532,0,
00:06.0,0.003828049,0.004085541,0.006202698,0,
00:00:06,0.003810883,0.004074097,0.006196976,0,
00:06.0,0.003799438,0.004091263,0.006196976,0,
00:06.0,0.003816605,0.004102707,0.006196976,0,
00:06.0,0.003845215,0.004102707,0.006191254,0,
00:06.0,0.003845215,0.004079819,0.006185532,0,
00:06.0,0.003833771,0.004091263,0.006174088,0,
00:06.0,0.003828049,0.004108429,0.00617981,0,
00:06.0,0.003845215,0.004096985,0.006191254,0,
00:06.0,0.003850937,0.004091263,0.006185532,0,
00:06.0,0.003833771,0.004096985,0.006185532,0,
00:06.0,0.003833771,0.004102707,0.006174088,0,
00:06.0,0.003828049,0.004102707,0.006174088,0,
00:06.0,0.003822327,0.004096985,0.00617981,0,
00:06.1,0.003822327,0.004091263,0.006168365,0,
00:06.1,0.003833771,0.004091263,0.006168365,0,
00:06.1,0.003839493,0.004085541,0.00617981,0,
00:06.1,0.003833771,0.004068375,0.006185532,0,
00:06.1,0.003828049,0.004091263,0.006174088,0,
00:06.1,0.003822327,0.004085541,0.006174088,0,
00:06.1,0.003828049,0.004091263,0.006191254,0,
00:06.1,0.003822327,0.004091263,0.006191254,0,
00:06.1,0.003828049,0.004085541,0.00617981,0,
00:06.1,0.003845215,0.004085541,0.006174088,0,
00:06.1,0.003839493,0.004085541,0.00617981,0,
00:06.1,0.003839493,0.004102707,0.006174088,0,
00:06.1,0.003833771,0.004102707,0.006174088,0,
00:06.1,0.003828049,0.004074097,0.006168365,0,
00:06.1,0.003833771,0.004074097,0.006174088,0,
00:06.1,0.003822327,0.004085541,0.006174088,0,
00:06.1,0.003822327,0.004079819,0.006174088,0,
00:06.1,0.003833771,0.004079819,0.006162643,0,
00:06.1,0.003845215,0.004091263,0.006145477,0,
00:06.1,0.003828049,0.004091263,0.006162643,0,
00:06.1,0.003822327,0.004102707,0.006174088,0,
00:06.1,0.003850937,0.004102707,0.00617981,0,
00:06.1,0.003839493,0.004085541,0.006162643,0,
00:06.1,0.003833771,0.004085541,0.006151199,0,
00:06.1,0.003828049,0.004096985,0.006162643,0,
00:06.2,0.003810883,0.004091263,0.006174088,0,
00:06.2,0.003816605,0.004085541,0.006162643,0,
00:06.2,0.003839493,0.004085541,0.006151199,0,
00:06.2,0.003845215,0.004085541,0.006168365,0,
00:06.2,0.003839493,0.004085541,0.006162643,0,
00:06.2,0.003839493,0.004079819,0.006151199,0,
00:06.2,0.003833771,0.004074097,0.006162643,0,
00:06.2,0.003833771,0.004091263,0.006162643,0,
00:06.2,0.003833771,0.004091263,0.006151199,0,
00:06.2,0.003833771,0.004085541,0.006151199,0,
00:06.2,0.003833771,0.004091263,0.006156921,0,
00:06.2,0.003816605,0.004085541,0.006151199,0,
00:06.2,0.003816605,0.004074097,0.006151199,0,
00:06.2,0.003839493,0.004079819,0.006151199,0,
00:06.2,0.003839493,0.004091263,0.006139755,0,
00:06.2,0.003833771,0.004091263,0.006145477,0,
00:06.2,0.003816605,0.004074097,0.006151199,0,
00:06.2,0.003822327,0.004079819,0.006145477,0,
00:06.2,0.003799438,0.004079819,0.006151199,0,
00:06.2,0.003839493,0.004079819,0.006145477,0,
00:06.2,0.003850937,0.004096985,0.006145477,0,
00:06.2,0.003833771,0.004108429,0.006145477,0,
00:06.2,0.003839493,0.004091263,0.006139755,0,
00:06.2,0.003839493,0.004085541,0.006145477,0,
00:06.2,0.003833771,0.004079819,0.006139755,0,
00:06.3,0.003833771,0.004068375,0.006139755,0,
00:06.3,0.003833771,0.004056931,0.006139755,0,
00:06.3,0.003833771,0.004091263,0.006139755,0,
00:06.3,0.003833771,0.004096985,0.006134033,0,
00:06.3,0.003839493,0.004079819,0.006134033,0,
00:06.3,0.003839493,0.004096985,0.006134033,0,
00:06.3,0.003833771,0.004079819,0.006134033,0,
00:06.3,0.003833771,0.004079819,0.006122589,0,
00:06.3,0.003828049,0.004096985,0.006134033,0,
00:06.3,0.003833771,0.004091263,0.006139755,0,
00:06.3,0.003822327,0.004085541,0.006134033,0,
00:06.3,0.003816605,0.004074097,0.006134033,0,
00:06.3,0.003822327,0.004091263,0.006128311,0,
00:06.3,0.003850937,0.004091263,0.006134033,0,
00:06.3,0.003845215,0.004079819,0.006134033,0,
00:06.3,0.003833771,0.004085541,0.006116867,0,
00:06.3,0.003816605,0.004085541,0.006128311,0,
00:06.3,0.003839493,0.004079819,0.006134033,0,
00:06.3,0.003856659,0.004074097,0.006134033,0,
00:06.3,0.003839493,0.004079819,0.006128311,0,
00:06.3,0.003828049,0.004085541,0.006122589,0,
00:06.3,0.003828049,0.004085541,0.006128311,0,
00:06.3,0.003833771,0.004079819,0.006122589,0,
00:06.3,0.003839493,0.004062653,0.006116867,0,
00:06.3,0.003833771,0.004056931,0.006116867,0,
00:06.4,0.003839493,0.004079819,0.006122589,0,
00:06.4,0.003839493,0.004091263,0.006116867,0,
00:06.4,0.003833771,0.004079819,0.006111145,0,
00:06.4,0.003833771,0.004091263,0.006111145,0,
00:06.4,0.003833771,0.004091263,0.006116867,0,
00:06.4,0.003833771,0.004085541,0.006128311,0,
00:06.4,0.003816605,0.004079819,0.006139755,0,
00:06.4,0.003833771,0.004074097,0.006128311,0,
00:06.4,0.003850937,0.004079819,0.006111145,0,
00:06.4,0.003839493,0.004079819,0.006105423,0,
00:06.4,0.003845215,0.004085541,0.006122589,0,
00:06.4,0.003839493,0.004074097,0.006128311,0,
00:06.4,0.003822327,0.004074097,0.006128311,0,
00:06.4,0.003816605,0.004074097,0.006116867,0,
00:06.4,0.003850937,0.004074097,0.006105423,0,
00:06.4,0.003816605,0.004074097,0.006122589,0,
00:06.4,0.003822327,0.004079819,0.006122589,0,
00:06.4,0.003868103,0.004074097,0.006116867,0,
00:06.4,0.003845215,0.004068375,0.006105423,0,
00:06.4,0.003845215,0.004074097,0.006105423,0,
00:06.4,0.003845215,0.004085541,0.006116867,0,
00:06.4,0.003845215,0.004079819,0.006116867,0,
00:06.4,0.003845215,0.004074097,0.006105423,0,
00:06.4,0.003839493,0.004051208,0.006111145,0,
00:06.4,0.003839493,0.004056931,0.006111145,0,
00:06.5,0.003845215,0.004091263,0.006111145,0,
00:06.5,0.003845215,0.004102707,0.006105423,0,
00:06.5,0.003839493,0.004096985,0.006111145,0,
00:06.5,0.003822327,0.004074097,0.006111145,0,
00:06.5,0.003833771,0.004062653,0.006116867,0,
00:06.5,0.003850937,0.004074097,0.006122589,0,
00:06.5,0.003845215,0.004102707,0.006111145,0,
00:06.5,0.003839493,0.004079819,0.006111145,0,
00:06.5,0.003833771,0.004062653,0.006099701,0,
00:06.5,0.003816605,0.004068375,0.006111145,0,
00:06.5,0.003799438,0.004068375,0.006111145,0,
00:06.5,0.003856659,0.004068375,0.006105423,0,
00:06.5,0.003873825,0.004085541,0.006099701,0,
00:06.5,0.003850937,0.004085541,0.006093979,0,
00:06.5,0.003845215,0.004079819,0.006093979,0,
00:06.5,0.003839493,0.004085541,0.006111145,0,
00:06.5,0.003833771,0.004085541,0.006099701,0,
00:06.5,0.003845215,0.004079819,0.006088257,0,
00:06.5,0.003850937,0.004079819,0.006105423,0,
00:06.5,0.003845215,0.004079819,0.006111145,0,
00:06.5,0.003845215,0.004074097,0.006111145,0,
00:06.5,0.003839493,0.004062653,0.006116867,0,
00:06.5,0.003839493,0.004068375,0.006099701,0,
00:06.5,0.003822327,0.004068375,0.006088257,0,
00:06.5,0.003822327,0.004056931,0.006116867,0,
00:06.6,0.003822327,0.004056931,0.006128311,0,
00:06.6,0.003822327,0.004062653,0.006116867,0,
00:06.6,0.003856659,0.004062653,0.006105423,0,
00:06.6,0.003862381,0.004045486,0.006099701,0,
00:06.6,0.003850937,0.004096985,0.006093979,0,
00:06.6,0.003850937,0.004096985,0.006093979,0,
00:06.6,0.003839493,0.004091263,0.006099701,0,
00:06.6,0.003845215,0.004091263,0.006111145,0,
00:06.6,0.003839493,0.004079819,0.006111145,0,
00:06.6,0.003833771,0.004079819,0.006105423,0,
00:06.6,0.003839493,0.004085541,0.006105423,0,
00:06.6,0.003850937,0.004079819,0.006093979,0,
00:06.6,0.003845215,0.004074097,0.006099701,0,
00:06.6,0.003833771,0.004062653,0.006105423,0,
00:06.6,0.003828049,0.004056931,0.006111145,0,
00:06.6,0.003839493,0.004079819,0.006105423,0,
00:06.6,0.003828049,0.004079819,0.006099701,0,
00:06.6,0.003816605,0.004079819,0.006099701,0,
00:06.6,0.003856659,0.004074097,0.006099701,0,
00:06.6,0.003856659,0.004079819,0.006099701,0,
00:06.6,0.003850937,0.004074097,0.006099701,0,
00:06.6,0.003839493,0.004068375,0.006105423,0,
00:06.6,0.003833771,0.004062653,0.006099701,0,
00:06.6,0.003850937,0.004056931,0.006093979,0,
00:06.6,0.003850937,0.004062653,0.006088257,0,
00:06.7,0.003850937,0.004074097,0.006099701,0,
00:06.7,0.003845215,0.004085541,0.006093979,0,
00:06.7,0.003839493,0.004062653,0.006099701,0,
00:06.7,0.003845215,0.004051208,0.006105423,0,
00:06.7,0.003850937,0.004085541,0.006093979,0,
00:06.7,0.003839493,0.004096985,0.006093979,0,
00:06.7,0.003822327,0.004074097,0.006122589,0,
00:06.7,0.003828049,0.004045486,0.006111145,0,
00:06.7,0.003862381,0.004074097,0.006099701,0,
00:06.7,0.003862381,0.004096985,0.006111145,0,
00:06.7,0.003850937,0.004079819,0.006111145,0,
00:06.7,0.003828049,0.004074097,0.006099701,0,
00:06.7,0.003810883,0.004074097,0.006093979,0,
00:06.7,0.003845215,0.004074097,0.006105423,0,
00:06.7,0.003850937,0.004074097,0.006111145,0,
00:06.7,0.003856659,0.004074097,0.006099701,0,
00:06.7,0.003862381,0.004074097,0.006099701,0,
00:06.7,0.003850937,0.004079819,0.006105423,0,
00:06.7,0.003862381,0.004074097,0.006093979,0,
00:06.7,0.003856659,0.004068375,0.006088257,0,
00:06.7,0.003850937,0.004074097,0.006099701,0,
00:06.7,0.003850937,0.004074097,0.006111145,0,
00:06.7,0.003845215,0.004085541,0.006111145,0,
00:06.7,0.003839493,0.004079819,0.006111145,0,
00:06.7,0.003828049,0.004062653,0.006093979,0,
00:06.8,0.003845215,0.004056931,0.006099701,0,
00:06.8,0.003850937,0.004062653,0.006105423,0,
00:06.8,0.003862381,0.004039764,0.006116867,0,
00:06.8,0.003856659,0.004016876,0.006111145,0,
00:06.8,0.003845215,0.004108429,0.006099701,0,
00:06.8,0.003850937,0.004114151,0.006105423,0,
00:06.8,0.003856659,0.004074097,0.006111145,0,
00:06.8,0.003850937,0.004079819,0.006116867,0,
00:06.8,0.003850937,0.004079819,0.006111145,0,
00:06.8,0.003856659,0.004079819,0.006111145,0,
00:06.8,0.003868103,0.004074097,0.006099701,0,
00:06.8,0.003862381,0.004085541,0.006105423,0,
00:06.8,0.003850937,0.004085541,0.006111145,0,
00:06.8,0.003850937,0.004079819,0.006099701,0,
00:06.8,0.003850937,0.004079819,0.006093979,0,
00:06.8,0.003856659,0.004091263,0.006111145,0,
00:06.8,0.003868103,0.004085541,0.006111145,0,
00:06.8,0.003850937,0.004062653,0.006105423,0,
00:06.8,0.003845215,0.004051208,0.006093979,0,
00:06.8,0.003856659,0.004074097,0.006082535,0,
00:06.8,0.003856659,0.004079819,0.006116867,0,
00:06.8,0.003856659,0.004074097,0.006111145,0,
00:06.8,0.003868103,0.004079819,0.006099701,0,
00:06.8,0.003862381,0.004068375,0.006093979,0,
00:06.8,0.003862381,0.004051208,0.006093979,0,
00:06.9,0.003845215,0.004091263,0.006099701,0,
00:06.9,0.003828049,0.004102707,0.006105423,0,
00:06.9,0.003868103,0.004079819,0.006105423,0,
00:06.9,0.003868103,0.004074097,0.006099701,0,
00:06.9,0.003862381,0.004074097,0.006105423,0,
00:06.9,0.003862381,0.004085541,0.006099701,0,
00:06.9,0.003845215,0.004085541,0.006093979,0,
00:06.9,0.003833771,0.004074097,0.006116867,0,
00:06.9,0.003862381,0.004068375,0.006111145,0,
00:06.9,0.003879547,0.004079819,0.006093979,0,
00:06.9,0.003868103,0.004079819,0.006099701,0,
00:06.9,0.003862381,0.004074097,0.006099701,0,
00:06.9,0.003856659,0.004074097,0.006093979,0,
00:06.9,0.003845215,0.004068375,0.006093979,0,
00:06.9,0.003862381,0.004085541,0.006099701,0,
00:06.9,0.003879547,0.004085541,0.006099701,0,
00:06.9,0.003868103,0.004085541,0.006105423,0,
00:06.9,0.003862381,0.004074097,0.006105423,0,
00:06.9,0.003850937,0.004074097,0.006099701,0,
00:06.9,0.003856659,0.004074097,0.006093979,0,
00:06.9,0.003868103,0.004085541,0.006093979,0,
00:06.9,0.003862381,0.004074097,0.006105423,0,
00:06.9,0.003862381,0.004068375,0.006099701,0,
00:06.9,0.003850937,0.004068375,0.006111145,0,
00:06.9,0.003850937,0.004085541,0.006105423,0,
00:07.0,0.003868103,0.004074097,0.006099701,0,
00:07.0,0.003873825,0.004091263,0.006111145,0,
00:07.0,0.003873825,0.004085541,0.006105423,0,
00:07.0,0.003868103,0.004074097,0.006099701,0,
00:07.0,0.003862381,0.004074097,0.006105423,0,
00:07.0,0.003850937,0.004091263,0.006105423,0,
00:07.0,0.003850937,0.004091263,0.006099701,0,
00:07.0,0.003845215,0.004079819,0.006093979,0,
00:07.0,0.003873825,0.004074097,0.006099701,0,
00:07.0,0.003885269,0.004085541,0.006116867,0,
00:07.0,0.003879547,0.004096985,0.006111145,0,
00:07.0,0.003868103,0.004085541,0.006111145,0,
00:00:07,0.003856659,0.004079819,0.006111145,0,
00:07.0,0.003856659,0.004074097,0.006105423,0,
00:07.0,0.003868103,0.004074097,0.006099701,0,
00:07.0,0.003885269,0.004085541,0.006105423,0,
00:07.0,0.003873825,0.004091263,0.006105423,0,
00:07.0,0.003862381,0.004091263,0.006093979,0,
00:07.0,0.003868103,0.004079819,0.006093979,0,
00:07.0,0.003868103,0.004074097,0.006111145,0,
00:07.0,0.003862381,0.004079819,0.006111145,0,
00:07.0,0.003862381,0.004074097,0.006111145,0,
00:07.0,0.003856659,0.004056931,0.006111145,0,
00:07.0,0.003839493,0.004068375,0.006105423,0,
00:07.0,0.003885269,0.004091263,0.006105423,0,
00:07.1,0.003890991,0.004102707,0.006116867,0,
00:07.1,0.003868103,0.004091263,0.006116867,0,
00:07.1,0.003868103,0.004085541,0.006105423,0,
00:07.1,0.003879547,0.004085541,0.006105423,0,
00:07.1,0.003879547,0.004091263,0.006105423,0,
00:07.1,0.003879547,0.004091263,0.006093979,0,
00:07.1,0.003873825,0.004085541,0.006099701,0,
00:07.1,0.003879547,0.004074097,0.006105423,0,
00:07.1,0.003873825,0.004085541,0.006105423,0,
00:07.1,0.003873825,0.004091263,0.006093979,0,
00:07.1,0.003862381,0.004096985,0.006099701,0,
00:07.1,0.003873825,0.004079819,0.006099701,0,
00:07.1,0.003873825,0.004068375,0.006105423,0,
00:07.1,0.003868103,0.004074097,0.006099701,0,
00:07.1,0.003856659,0.004085541,0.006093979,0,
00:07.1,0.003850937,0.004102707,0.006093979,0,
00:07.1,0.003845215,0.004085541,0.006105423,0,
00:07.1,0.003868103,0.004079819,0.006116867,0,
00:07.1,0.003902435,0.004074097,0.006111145,0,
00:07.1,0.003885269,0.004051208,0.006099701,0,
00:07.1,0.003879547,0.004085541,0.006111145,0,
00:07.1,0.003879547,0.004102707,0.006105423,0,
00:07.1,0.003873825,0.004102707,0.006105423,0,
00:07.1,0.003873825,0.004085541,0.006105423,0,
00:07.1,0.003868103,0.004091263,0.006099701,0,
00:07.2,0.003879547,0.004085541,0.006099701,0,
00:07.2,0.003873825,0.004074097,0.006099701,0,
00:07.2,0.003868103,0.004091263,0.006111145,0,
00:07.2,0.003868103,0.004091263,0.006093979,0,
00:07.2,0.003879547,0.004091263,0.006116867,0,
00:07.2,0.003873825,0.004091263,0.006122589,0,
00:07.2,0.003873825,0.004091263,0.006111145,0,
00:07.2,0.003873825,0.004085541,0.006111145,0,
00:07.2,0.003868103,0.004085541,0.006105423,0,
00:07.2,0.003873825,0.004091263,0.006105423,0,
00:07.2,0.003868103,0.004091263,0.006111145,0,
00:07.2,0.003868103,0.004085541,0.006093979,0,
00:07.2,0.003873825,0.004079819,0.006111145,0,
00:07.2,0.003862381,0.004062653,0.006116867,0,
00:07.2,0.003862381,0.004068375,0.006111145,0,
00:07.2,0.003879547,0.004091263,0.006105423,0,
00:07.2,0.003879547,0.004091263,0.006099701,0,
00:07.2,0.003873825,0.004096985,0.006093979,0,
00:07.2,0.003868103,0.004085541,0.006105423,0,
00:07.2,0.003868103,0.004068375,0.006111145,0,
00:07.2,0.003885269,0.004102707,0.006099701,0,
00:07.2,0.003879547,0.004102707,0.006105423,0,
00:07.2,0.003868103,0.004091263,0.006105423,0,
00:07.2,0.003885269,0.004096985,0.006111145,0,
00:07.2,0.003873825,0.004096985,0.006111145,0,
00:07.3,0.003868103,0.004096985,0.006111145,0,
00:07.3,0.003868103,0.004096985,0.006105423,0,
00:07.3,0.003873825,0.004091263,0.006099701,0,
00:07.3,0.003879547,0.004096985,0.006099701,0,
00:07.3,0.003868103,0.004096985,0.006099701,0,
00:07.3,0.003850937,0.004091263,0.006105423,0,
00:07.3,0.003850937,0.004091263,0.006099701,0,
00:07.3,0.003868103,0.004074097,0.006082535,0,
00:07.3,0.003896713,0.004085541,0.006099701,0,
00:07.3,0.003890991,0.004096985,0.006099701,0,
00:07.3,0.003873825,0.004085541,0.006082535,0,
00:07.3,0.003868103,0.004091263,0.006116867,0,
00:07.3,0.003879547,0.004096985,0.006105423,0,
00:07.3,0.003879547,0.004096985,0.006093979,0,
00:07.3,0.003868103,0.004096985,0.006111145,0,
00:07.3,0.003879547,0.004091263,0.006122589,0,
00:07.3,0.003879547,0.004074097,0.006111145,0,
00:07.3,0.003873825,0.004079819,0.006105423,0,
00:07.3,0.003879547,0.004096985,0.006105423,0,
00:07.3,0.003868103,0.004085541,0.006105423,0,
00:07.3,0.003868103,0.004091263,0.006105423,0,
00:07.3,0.003873825,0.004108429,0.006105423,0,
00:07.3,0.003885269,0.004102707,0.006099701,0,
00:07.3,0.003868103,0.004079819,0.006105423,0,
00:07.3,0.003845215,0.004091263,0.006105423,0,
00:07.4,0.003868103,0.004114151,0.006111145,0,
00:07.4,0.003902435,0.004102707,0.006116867,0,
00:07.4,0.003896713,0.004085541,0.006099701,0,
00:07.4,0.003879547,0.004074097,0.006099701,0,
00:07.4,0.003868103,0.004091263,0.006105423,0,
00:07.4,0.003862381,0.004108429,0.006116867,0,
00:07.4,0.003885269,0.004091263,0.006111145,0,
00:07.4,0.003890991,0.004068375,0.006093979,0,
00:07.4,0.003885269,0.004102707,0.006099701,0,
00:07.4,0.003879547,0.004108429,0.006099701,0,
00:07.4,0.003879547,0.004102707,0.006111145,0,
00:07.4,0.003879547,0.004091263,0.006116867,0,
00:07.4,0.003879547,0.004091263,0.006111145,0,
00:07.4,0.003879547,0.004091263,0.006111145,0,
00:07.4,0.003879547,0.004096985,0.006111145,0,
00:07.4,0.003879547,0.004091263,0.006105423,0,
00:07.4,0.003879547,0.004079819,0.006105423,0,
00:07.4,0.003879547,0.004108429,0.006105423,0,
00:07.4,0.003879547,0.004091263,0.006093979,0,
00:07.4,0.003868103,0.004091263,0.006099701,0,
00:07.4,0.003856659,0.004119873,0.006093979,0,
00:07.4,0.003873825,0.004108429,0.006093979,0,
00:07.4,0.003890991,0.004091263,0.006099701,0,
00:07.4,0.003890991,0.004085541,0.006111145,0,
00:07.4,0.003890991,0.004091263,0.006093979,0,
00:07.5,0.003890991,0.004108429,0.006093979,0,
00:07.5,0.003885269,0.004096985,0.006111145,0,
00:07.5,0.003862381,0.004102707,0.006099701,0,
00:07.5,0.003856659,0.004108429,0.006099701,0,
00:07.5,0.003885269,0.004096985,0.006105423,0,
00:07.5,0.003890991,0.004074097,0.006105423,0,
00:07.5,0.003879547,0.004091263,0.006105423,0,
00:07.5,0.003885269,0.004114151,0.006088257,0,
00:07.5,0.003890991,0.004108429,0.006093979,0,
00:07.5,0.003890991,0.004102707,0.006105423,0,
00:07.5,0.003879547,0.004085541,0.006099701,0,
00:07.5,0.003879547,0.004085541,0.006093979,0,
00:07.5,0.003885269,0.004102707,0.006088257,0,
00:07.5,0.003885269,0.004096985,0.006088257,0,
00:07.5,0.003879547,0.004091263,0.006105423,0,
00:07.5,0.003856659,0.004079819,0.006093979,0,
00:07.5,0.003879547,0.004079819,0.006093979,0,
00:07.5,0.003890991,0.004102707,0.006093979,0,
00:07.5,0.003885269,0.004108429,0.006093979,0,
00:07.5,0.003890991,0.004102707,0.006088257,0,
00:07.5,0.003879547,0.004096985,0.006105423,0,
00:07.5,0.003885269,0.004096985,0.006105423,0,
00:07.5,0.003890991,0.004108429,0.006088257,0,
00:07.5,0.003873825,0.004102707,0.006093979,0,
00:07.5,0.003856659,0.004096985,0.006088257,0,
00:07.6,0.003850937,0.004091263,0.006082535,0,
00:07.6,0.003896713,0.004102707,0.006088257,0,
00:07.6,0.003908157,0.004091263,0.006093979,0,
00:07.6,0.003890991,0.004091263,0.006093979,0,
00:07.6,0.003885269,0.004102707,0.006088257,0,
00:07.6,0.003885269,0.004102707,0.006082535,0,
00:07.6,0.003879547,0.004096985,0.006088257,0,
00:07.6,0.003879547,0.004085541,0.006076813,0,
00:07.6,0.003890991,0.004085541,0.006088257,0,
00:07.6,0.003890991,0.004108429,0.006099701,0,
00:07.6,0.003885269,0.004108429,0.006088257,0,
00:07.6,0.003862381,0.004102707,0.006088257,0,
00:07.6,0.003885269,0.004091263,0.006088257,0,
00:07.6,0.003908157,0.004096985,0.006093979,0,
00:07.6,0.003896713,0.004102707,0.006093979,0,
00:07.6,0.003879547,0.004068375,0.006082535,0,
00:07.6,0.003890991,0.004068375,0.006076813,0,
00:07.6,0.003890991,0.004125595,0.006082535,0,
00:07.6,0.003885269,0.004125595,0.006088257,0,
00:07.6,0.003890991,0.004114151,0.006088257,0,
00:07.6,0.003885269,0.004102707,0.006088257,0,
00:07.6,0.003885269,0.004091263,0.006082535,0,
00:07.6,0.003890991,0.004091263,0.006076813,0,
00:07.6,0.003879547,0.004085541,0.006076813,0,
00:07.6,0.003879547,0.004102707,0.006088257,0,
00:07.7,0.003896713,0.004114151,0.006082535,0,
00:07.7,0.003890991,0.004102707,0.006088257,0,
00:07.7,0.003890991,0.004096985,0.006088257,0,
00:07.7,0.003885269,0.004096985,0.006082535,0,
00:07.7,0.003879547,0.004096985,0.006076813,0,
00:07.7,0.003873825,0.004091263,0.006082535,0,
00:07.7,0.003885269,0.004091263,0.006082535,0,
00:07.7,0.003896713,0.004079819,0.006088257,0,
00:07.7,0.003896713,0.004085541,0.006088257,0,
00:07.7,0.003896713,0.004108429,0.006071091,0,
00:07.7,0.003885269,0.004102707,0.006065369,0,
00:07.7,0.003885269,0.004091263,0.006076813,0,
00:07.7,0.003885269,0.004102707,0.006088257,0,
00:07.7,0.003885269,0.004096985,0.006076813,0,
00:07.7,0.003890991,0.004096985,0.006071091,0,
00:07.7,0.003896713,0.004108429,0.006071091,0,
00:07.7,0.003890991,0.004102707,0.006071091,0,
00:07.7,0.003890991,0.004102707,0.006082535,0,
00:07.7,0.003890991,0.004079819,0.006076813,0,
00:07.7,0.003879547,0.004096985,0.006071091,0,
00:07.7,0.003879547,0.004125595,0.006082535,0,
00:07.7,0.003868103,0.004079819,0.006076813,0,
00:07.7,0.003862381,0.004062653,0.006076813,0,
00:07.7,0.003908157,0.004131317,0.006076813,0,
00:07.7,0.003902435,0.004125595,0.006076813,0,
00:07.8,0.003890991,0.004108429,0.006076813,0,
00:07.8,0.003885269,0.004108429,0.006071091,0,
00:07.8,0.003890991,0.004102707,0.006071091,0,
00:07.8,0.003885269,0.004096985,0.006071091,0,
00:07.8,0.003879547,0.004108429,0.006071091,0,
00:07.8,0.003890991,0.004114151,0.006059647,0,
00:07.8,0.003885269,0.004096985,0.006059647,0,
00:07.8,0.003885269,0.004091263,0.006076813,0,
00:07.8,0.003885269,0.004091263,0.006071091,0,
00:07.8,0.003879547,0.004108429,0.006076813,0,
00:07.8,0.003890991,0.004096985,0.006076813,0,
00:07.8,0.003885269,0.004091263,0.006048203,0,
00:07.8,0.003873825,0.004096985,0.006048203,0,
00:07.8,0.003885269,0.004091263,0.006076813,0,
00:07.8,0.003885269,0.004114151,0.006076813,0,
00:07.8,0.003885269,0.004119873,0.006076813,0,
00:07.8,0.003873825,0.004096985,0.006071091,0,
00:07.8,0.003885269,0.004085541,0.006071091,0,
00:07.8,0.003902435,0.004096985,0.006065369,0,
00:07.8,0.003885269,0.004108429,0.006065369,0,
00:07.8,0.003879547,0.004114151,0.006071091,0,
00:07.8,0.003890991,0.004108429,0.006071091,0,
00:07.8,0.003890991,0.004079819,0.006065369,0,
00:07.8,0.003885269,0.004096985,0.006065369,0,
00:07.8,0.003890991,0.004125595,0.006059647,0,
00:07.9,0.003896713,0.004114151,0.006059647,0,
00:07.9,0.003890991,0.004096985,0.006082535,0,
00:07.9,0.003885269,0.004108429,0.006076813,0,
00:07.9,0.003885269,0.004119873,0.006071091,0,
00:07.9,0.003873825,0.004108429,0.006071091,0,
00:07.9,0.003868103,0.004102707,0.006059647,0,
00:07.9,0.003879547,0.004085541,0.006065369,0,
00:07.9,0.003890991,0.004062653,0.006065369,0,
00:07.9,0.003890991,0.004091263,0.006071091,0,
00:07.9,0.003879547,0.004114151,0.006071091,0,
00:07.9,0.003890991,0.004131317,0.006065369,0,
00:07.9,0.003896713,0.004119873,0.006053925,0,
00:07.9,0.003885269,0.004102707,0.006065369,0,
00:07.9,0.003890991,0.004102707,0.006065369,0,
00:07.9,0.003890991,0.004108429,0.006065369,0,
00:07.9,0.003885269,0.004102707,0.006059647,0,
00:07.9,0.003885269,0.004108429,0.006065369,0,
00:07.9,0.003885269,0.004102707,0.006065369,0,
00:07.9,0.003890991,0.004096985,0.006059647,0,
00:07.9,0.003890991,0.004102707,0.006053925,0,
00:07.9,0.003890991,0.004119873,0.006065369,0,
00:07.9,0.003890991,0.004114151,0.006059647,0,
00:07.9,0.003890991,0.004108429,0.006059647,0,
00:07.9,0.003890991,0.004108429,0.006065369,0,
00:07.9,0.003890991,0.004108429,0.006059647,0,
00:08.0,0.003896713,0.004114151,0.006059647,0,
00:08.0,0.003879547,0.004102707,0.006065369,0,
00:08.0,0.003856659,0.004096985,0.006065369,0,
00:08.0,0.003879547,0.004096985,0.006059647,0,
00:08.0,0.003896713,0.004096985,0.006053925,0,
00:08.0,0.003890991,0.004091263,0.006048203,0,
00:08.0,0.003890991,0.004068375,0.006036758,0,
00:08.0,0.003896713,0.004102707,0.006036758,0,
00:08.0,0.003879547,0.004119873,0.006053925,0,
00:08.0,0.003862381,0.004108429,0.006048203,0,
00:08.0,0.003885269,0.004096985,0.006053925,0,
00:08.0,0.003908157,0.004114151,0.00604248,0,
00:00:08,0.003902435,0.004091263,0.00604248,0,
00:08.0,0.003896713,0.004096985,0.006053925,0,
00:08.0,0.003890991,0.004137039,0.006059647,0,
00:08.0,0.003885269,0.004125595,0.006059647,0,
00:08.0,0.003879547,0.004114151,0.006053925,0,
00:08.0,0.003885269,0.004102707,0.006048203,0,
00:08.0,0.003890991,0.004096985,0.006071091,0,
00:08.0,0.003873825,0.004108429,0.006065369,0,
00:08.0,0.003873825,0.004114151,0.006053925,0,
00:08.0,0.003885269,0.004108429,0.006048203,0,
00:08.0,0.003885269,0.004102707,0.006053925,0,
00:08.0,0.003896713,0.004108429,0.006059647,0,
00:08.0,0.003890991,0.004114151,0.006053925,0,
00:08.1,0.003873825,0.004114151,0.00604248,0,
00:08.1,0.003873825,0.004102707,0.006036758,0,
00:08.1,0.003890991,0.004102707,0.006059647,0,
00:08.1,0.003902435,0.004102707,0.006053925,0,
00:08.1,0.003896713,0.004108429,0.006048203,0,
00:08.1,0.003890991,0.004108429,0.006053925,0,
00:08.1,0.003890991,0.004108429,0.006053925,0,
00:08.1,0.003885269,0.004091263,0.006048203,0,
00:08.1,0.003885269,0.004068375,0.006048203,0,
00:08.1,0.003885269,0.004079819,0.006036758,0,
00:08.1,0.003885269,0.004125595,0.00604248,0,
00:08.1,0.003890991,0.004119873,0.00604248,0,
00:08.1,0.003896713,0.004114151,0.006048203,0,
00:08.1,0.003885269,0.004114151,0.006059647,0,
00:08.1,0.003873825,0.004114151,0.006053925,0,
00:08.1,0.003873825,0.004114151,0.006048203,0,
00:08.1,0.003873825,0.004096985,0.00604248,0,
00:08.1,0.003890991,0.004096985,0.00604248,0,
00:08.1,0.003896713,0.004108429,0.00604248,0,
00:08.1,0.003896713,0.004119873,0.006048203,0,
00:08.1,0.003879547,0.004114151,0.006053925,0,
00:08.1,0.003868103,0.004096985,0.00604248,0,
00:08.1,0.003890991,0.004114151,0.006048203,0,
00:08.1,0.003896713,0.004114151,0.00604248,0,
00:08.1,0.003890991,0.004119873,0.00604248,0,
00:08.2,0.003896713,0.004119873,0.006048203,0,
00:08.2,0.003890991,0.004102707,0.006036758,0,
00:08.2,0.003885269,0.004102707,0.006048203,0,
00:08.2,0.003879547,0.004108429,0.00604248,0,
00:08.2,0.003885269,0.004102707,0.006036758,0,
00:08.2,0.003896713,0.004108429,0.006036758,0,
00:08.2,0.003885269,0.004102707,0.006048203,0,
00:08.2,0.003879547,0.004096985,0.00604248,0,
00:08.2,0.003879547,0.004096985,0.00604248,0,
00:08.2,0.003890991,0.004102707,0.00604248,0,
00:08.2,0.003896713,0.004102707,0.00604248,0,
00:08.2,0.003885269,0.004108429,0.00604248,0,
00:08.2,0.003890991,0.004096985,0.006031036,0,
00:08.2,0.003890991,0.004114151,0.006031036,0,
00:08.2,0.003890991,0.004119873,0.00604248,0,
00:08.2,0.003885269,0.004108429,0.006048203,0,
00:08.2,0.003885269,0.004108429,0.006036758,0,
00:08.2,0.003890991,0.004096985,0.006036758,0,
00:08.2,0.003890991,0.004114151,0.006031036,0,
00:08.2,0.003879547,0.004108429,0.006031036,0,
00:08.2,0.003868103,0.004079819,0.006036758,0,
00:08.2,0.003890991,0.004102707,0.006031036,0,
00:08.2,0.003896713,0.004131317,0.006025314,0,
00:08.2,0.003890991,0.004125595,0.00601387,0,
00:08.2,0.003879547,0.004125595,0.006008148,0,
00:08.3,0.003862381,0.004114151,0.006036758,0,
00:08.3,0.003868103,0.004102707,0.006031036,0,
00:08.3,0.003902435,0.004102707,0.006031036,0,
00:08.3,0.003908157,0.004108429,0.006036758,0,
00:08.3,0.003896713,0.004114151,0.006036758,0,
00:08.3,0.003890991,0.004114151,0.006031036,0,
00:08.3,0.003890991,0.004102707,0.006019592,0,
00:08.3,0.003890991,0.004096985,0.006031036,0,
00:08.3,0.003890991,0.004102707,0.006025314,0,
00:08.3,0.003890991,0.004102707,0.006025314,0,
00:08.3,0.003885269,0.004114151,0.006025314,0,
00:08.3,0.003879547,0.004091263,0.00601387,0,
00:08.3,0.003885269,0.004085541,0.00601387,0,
00:08.3,0.003885269,0.004102707,0.006025314,0,
00:08.3,0.003885269,0.004114151,0.006025314,0,
00:08.3,0.003873825,0.004125595,0.006025314,0,
00:08.3,0.003879547,0.004125595,0.006019592,0,
00:08.3,0.003890991,0.004108429,0.006002426,0,
00:08.3,0.003896713,0.004102707,0.005990982,0,
00:08.3,0.003890991,0.004108429,0.006025314,0,
00:08.3,0.003885269,0.004108429,0.006031036,0,
00:08.3,0.003873825,0.004096985,0.006031036,0,
00:08.3,0.003862381,0.004091263,0.006019592,0,
00:08.3,0.003862381,0.004119873,0.006019592,0,
00:08.3,0.003902435,0.004131317,0.006008148,0,
00:08.4,0.003908157,0.004119873,0.006008148,0,
00:08.4,0.003896713,0.004108429,0.006019592,0,
00:08.4,0.003890991,0.004108429,0.006008148,0,
00:08.4,0.003879547,0.004102707,0.006019592,0,
00:08.4,0.003885269,0.004091263,0.00601387,0,
00:08.4,0.003890991,0.004091263,0.00601387,0,
00:08.4,0.003879547,0.004108429,0.006008148,0,
00:08.4,0.003879547,0.004102707,0.00601387,0,
00:08.4,0.003890991,0.004102707,0.00601387,0,
00:08.4,0.003896713,0.004119873,0.006008148,0,
00:08.4,0.003890991,0.004096985,0.006019592,0,
00:08.4,0.003885269,0.004074097,0.006008148,0,
00:08.4,0.003890991,0.004114151,0.00601387,0,
00:08.4,0.003879547,0.004148483,0.00601387,0,
00:08.4,0.003873825,0.004125595,0.00601387,0,
00:08.4,0.003879547,0.004108429,0.006008148,0,
00:08.4,0.003896713,0.004085541,0.00601387,0,
00:08.4,0.003890991,0.004079819,0.00601387,0,
00:08.4,0.003896713,0.004131317,0.006019592,0,
00:08.4,0.003890991,0.004131317,0.006008148,0,
00:08.4,0.003890991,0.004119873,0.006002426,0,
00:08.4,0.003885269,0.004102707,0.005996704,0,
00:08.4,0.003873825,0.004096985,0.006002426,0,
00:08.4,0.003885269,0.004102707,0.006002426,0,
00:08.4,0.003885269,0.004096985,0.006008148,0,
00:08.5,0.003890991,0.004096985,0.006002426,0,
00:08.5,0.003879547,0.004102707,0.005996704,0,
00:08.5,0.003890991,0.004119873,0.006002426,0,
00:08.5,0.003885269,0.004114151,0.006002426,0,
00:08.5,0.003873825,0.004114151,0.006002426,0,
00:08.5,0.003873825,0.004114151,0.005996704,0,
00:08.5,0.003896713,0.004108429,0.006008148,0,
00:08.5,0.003890991,0.004114151,0.005996704,0,
00:08.5,0.003885269,0.004108429,0.005990982,0,
00:08.5,0.003890991,0.004102707,0.006002426,0,
00:08.5,0.003885269,0.004102707,0.006008148,0,
00:08.5,0.003885269,0.004091263,0.006008148,0,
00:08.5,0.003862381,0.004085541,0.006008148,0,
00:08.5,0.003873825,0.004096985,0.005996704,0,
00:08.5,0.003890991,0.004096985,0.00598526,0,
00:08.5,0.003890991,0.004114151,0.005996704,0,
00:08.5,0.003885269,0.004131317,0.005996704,0,
00:08.5,0.003890991,0.004125595,0.005996704,0,
00:08.5,0.003896713,0.004119873,0.005996704,0,
00:08.5,0.003879547,0.004114151,0.006008148,0,
00:08.5,0.003868103,0.004108429,0.006002426,0,
00:08.5,0.003879547,0.004102707,0.005996704,0,
00:08.5,0.003896713,0.004085541,0.005996704,0,
00:08.5,0.003902435,0.004119873,0.005996704,0,
00:08.5,0.003879547,0.004125595,0.005996704,0,
00:08.6,0.003885269,0.004108429,0.005996704,0,
00:08.6,0.003885269,0.004102707,0.005979538,0,
00:08.6,0.003879547,0.004108429,0.00598526,0,
00:08.6,0.003873825,0.004108429,0.005996704,0,
00:08.6,0.003890991,0.004114151,0.005996704,0,
00:08.6,0.003890991,0.004119873,0.005996704,0,
00:08.6,0.003879547,0.004102707,0.005990982,0,
00:08.6,0.003873825,0.004085541,0.005990982,0,
00:08.6,0.003885269,0.004096985,0.00598526,0,
00:08.6,0.003885269,0.004125595,0.005979538,0,
00:08.6,0.003879547,0.004125595,0.00598526,0,
00:08.6,0.003885269,0.004108429,0.00598526,0,
00:08.6,0.003885269,0.004096985,0.005979538,0,
00:08.6,0.003890991,0.004114151,0.00598526,0,
00:08.6,0.003873825,0.004108429,0.005990982,0,
00:08.6,0.003868103,0.004102707,0.00598526,0,
00:08.6,0.003879547,0.004096985,0.005990982,0,
00:08.6,0.003890991,0.004119873,0.00598526,0,
00:08.6,0.003896713,0.004114151,0.00598526,0,
00:08.6,0.003890991,0.004114151,0.005979538,0,
00:08.6,0.003896713,0.004119873,0.005973816,0,
00:08.6,0.003890991,0.004114151,0.005962372,0,
00:08.6,0.003885269,0.004114151,0.005973816,0,
00:08.6,0.003885269,0.004114151,0.005979538,0,
00:08.6,0.003885269,0.004102707,0.00598526,0,
00:08.7,0.003879547,0.004119873,0.005996704,0,
00:08.7,0.003873825,0.004119873,0.005990982,0,
00:08.7,0.003885269,0.004108429,0.005979538,0,
00:08.7,0.003885269,0.004096985,0.005973816,0,
00:08.7,0.003879547,0.004085541,0.005973816,0,
00:08.7,0.003873825,0.004096985,0.005973816,0,
00:08.7,0.003868103,0.004119873,0.005973816,0,
00:08.7,0.003879547,0.004108429,0.005973816,0,
00:08.7,0.003885269,0.004096985,0.005979538,0,
00:08.7,0.003873825,0.004096985,0.005973816,0,
00:08.7,0.003879547,0.004114151,0.005968094,0,
00:08.7,0.003885269,0.004114151,0.005979538,0,
00:08.7,0.003885269,0.004114151,0.005968094,0,
00:08.7,0.003896713,0.004119873,0.005973816,0,
00:08.7,0.003896713,0.004125595,0.005968094,0,
00:08.7,0.003879547,0.004114151,0.005962372,0,
00:08.7,0.003873825,0.004091263,0.00595665,0,
00:08.7,0.003890991,0.004108429,0.005968094,0,
00:08.7,0.003885269,0.004125595,0.005968094,0,
00:08.7,0.003885269,0.004119873,0.00595665,0,
00:08.7,0.003868103,0.004108429,0.00595665,0,
00:08.7,0.003862381,0.004102707,0.005968094,0,
00:08.7,0.003856659,0.004102707,0.005979538,0,
00:08.7,0.003885269,0.004114151,0.005962372,0,
00:08.7,0.003908157,0.004102707,0.005962372,0,
00:08.8,0.003890991,0.004102707,0.005968094,0,
00:08.8,0.003885269,0.004096985,0.005968094,0,
00:08.8,0.003885269,0.004096985,0.005973816,0,
00:08.8,0.003879547,0.004108429,0.005973816,0,
00:08.8,0.003879547,0.004108429,0.005968094,0,
00:08.8,0.003873825,0.004114151,0.005968094,0,
00:08.8,0.003879547,0.004108429,0.005968094,0,
00:08.8,0.003873825,0.004091263,0.005968094,0,
00:08.8,0.003873825,0.004102707,0.00595665,0,
00:08.8,0.003873825,0.004114151,0.005962372,0,
00:08.8,0.003879547,0.004108429,0.005950928,0,
00:08.8,0.003879547,0.004114151,0.00595665,0,
00:08.8,0.003885269,0.004108429,0.00595665,0,
00:08.8,0.003873825,0.004102707,0.00595665,0,
00:08.8,0.003868103,0.004108429,0.005962372,0,
00:08.8,0.003868103,0.004114151,0.00595665,0,
00:08.8,0.003862381,0.004102707,0.005962372,0,
00:08.8,0.003890991,0.004108429,0.005968094,0,
00:08.8,0.003896713,0.004125595,0.005968094,0,
00:08.8,0.003885269,0.004119873,0.00595665,0,
00:08.8,0.003879547,0.004114151,0.005968094,0,
00:08.8,0.003873825,0.004091263,0.005968094,0,
00:08.8,0.003873825,0.004091263,0.005968094,0,
00:08.8,0.003879547,0.004119873,0.005962372,0,
00:08.8,0.003873825,0.004108429,0.005945206,0,
00:08.9,0.003873825,0.004108429,0.005950928,0,
00:08.9,0.003868103,0.004102707,0.005973816,0,
00:08.9,0.003868103,0.004108429,0.005968094,0,
00:08.9,0.003856659,0.004108429,0.005968094,0,
00:08.9,0.003856659,0.004096985,0.005962372,0,
00:08.9,0.003873825,0.004085541,0.005962372,0,
00:08.9,0.003868103,0.004102707,0.005962372,0,
00:08.9,0.003879547,0.004108429,0.00595665,0,
00:08.9,0.003862381,0.004096985,0.005950928,0,
00:08.9,0.003850937,0.004114151,0.005950928,0,
00:08.9,0.003862381,0.004108429,0.005968094,0,
00:08.9,0.003885269,0.004096985,0.005973816,0,
00:08.9,0.003873825,0.004114151,0.005962372,0,
00:08.9,0.003873825,0.004119873,0.005962372,0,
00:08.9,0.003868103,0.004114151,0.005962372,0,
00:08.9,0.003862381,0.004114151,0.00595665,0,
00:08.9,0.003862381,0.004102707,0.00595665,0,
00:08.9,0.003862381,0.004091263,0.00595665,0,
00:08.9,0.003862381,0.004096985,0.00595665,0,
00:08.9,0.003862381,0.004119873,0.00595665,0,
00:08.9,0.003856659,0.004108429,0.005950928,0,
00:08.9,0.003856659,0.004102707,0.005950928,0,
00:08.9,0.003868103,0.004102707,0.005962372,0,
00:08.9,0.003862381,0.004119873,0.005950928,0,
00:08.9,0.003862381,0.004119873,0.005945206,0,
00:09.0,0.003845215,0.004108429,0.005950928,0,
00:09.0,0.003833771,0.004108429,0.005945206,0,
00:09.0,0.003839493,0.004102707,0.005945206,0,
00:09.0,0.003868103,0.004096985,0.005950928,0,
00:09.0,0.003845215,0.004096985,0.005945206,0,
00:09.0,0.003839493,0.004102707,0.005933762,0,
00:09.0,0.003856659,0.004091263,0.005933762,0,
00:09.0,0.003862381,0.004096985,0.00595665,0,
00:09.0,0.003856659,0.004114151,0.005962372,0,
00:09.0,0.003845215,0.004102707,0.005950928,0,
00:09.0,0.003845215,0.004079819,0.005945206,0,
00:09.0,0.003845215,0.004096985,0.005939484,0,
00:00:09,0.003850937,0.004114151,0.005939484,0,
00:09.0,0.003850937,0.004108429,0.005945206,0,
00:09.0,0.003839493,0.004102707,0.005950928,0,
00:09.0,0.003833771,0.004114151,0.005950928,0,
00:09.0,0.003828049,0.004102707,0.005945206,0,
00:09.0,0.003845215,0.004096985,0.005945206,0,
00:09.0,0.003845215,0.004096985,0.005939484,0,
00:09.0,0.003839493,0.004091263,0.005939484,0,
00:09.0,0.003833771,0.004102707,0.005945206,0,
00:09.0,0.003828049,0.004102707,0.005939484,0,
00:09.0,0.003828049,0.004096985,0.005939484,0,
00:09.0,0.003810883,0.004091263,0.005945206,0,
00:09.0,0.003822327,0.004096985,0.005939484,0,
00:09.1,0.003839493,0.004096985,0.005945206,0,
00:09.1,0.003850937,0.004108429,0.005939484,0,
00:09.1,0.003845215,0.004114151,0.005939484,0,
00:09.1,0.003833771,0.004096985,0.00592804,0,
00:09.1,0.003828049,0.004091263,0.00592804,0,
00:09.1,0.003828049,0.004096985,0.005950928,0,
00:09.1,0.003822327,0.004085541,0.005950928,0,
00:09.1,0.003816605,0.004062653,0.005945206,0,
00:09.1,0.003822327,0.004096985,0.005939484,0,
00:09.1,0.003822327,0.004102707,0.005939484,0,
00:09.1,0.003822327,0.004102707,0.005945206,0,
00:09.1,0.003833771,0.004102707,0.005950928,0,
00:09.1,0.003828049,0.004096985,0.005945206,0,
00:09.1,0.003822327,0.004102707,0.005939484,0,
00:09.1,0.003810883,0.004114151,0.005939484,0,
00:09.1,0.003793716,0.004096985,0.005945206,0,
00:09.1,0.003828049,0.004085541,0.005939484,0,
00:09.1,0.003822327,0.004085541,0.005945206,0,
00:09.1,0.003805161,0.004091263,0.005945206,0,
00:09.1,0.003805161,0.004085541,0.005939484,0,
00:09.1,0.003828049,0.004091263,0.005945206,0,
00:09.1,0.003822327,0.004074097,0.005933762,0,
00:09.1,0.003816605,0.004074097,0.005933762,0,
00:09.1,0.003810883,0.004096985,0.005933762,0,
00:09.1,0.003805161,0.004085541,0.005922318,0,
00:09.2,0.003799438,0.004085541,0.005939484,0,
00:09.2,0.003805161,0.004096985,0.005950928,0,
00:09.2,0.003799438,0.004085541,0.005950928,0,
00:09.2,0.003816605,0.004074097,0.005950928,0,
00:09.2,0.003805161,0.004074097,0.005945206,0,
00:09.2,0.003799438,0.004062653,0.005945206,0,
00:09.2,0.003799438,0.004068375,0.005945206,0,
00:09.2,0.003793716,0.004079819,0.005939484,0,
00:09.2,0.003799438,0.004102707,0.005939484,0,
00:09.2,0.003810883,0.004102707,0.005939484,0,
00:09.2,0.003793716,0.004079819,0.005945206,0,
00:09.2,0.003787994,0.004068375,0.005950928,0,
00:09.2,0.003799438,0.004062653,0.005945206,0,
00:09.2,0.003810883,0.004085541,0.005939484,0,
00:09.2,0.003782272,0.004091263,0.005950928,0,
00:09.2,0.003782272,0.004085541,0.005950928,0,
00:09.2,0.003805161,0.004079819,0.005933762,0,
00:09.2,0.003793716,0.004079819,0.00595665,0,
00:09.2,0.003793716,0.004074097,0.00595665,0,
00:09.2,0.003799438,0.004074097,0.005962372,0,
00:09.2,0.003793716,0.004074097,0.005950928,0,
00:09.2,0.003799438,0.004085541,0.005933762,0,
00:09.2,0.003805161,0.004079819,0.005945206,0,
00:09.2,0.003799438,0.004074097,0.005968094,0,
00:09.2,0.003793716,0.004068375,0.005968094,0,
00:09.3,0.003787994,0.004062653,0.00595665,0,
00:09.3,0.00377655,0.004074097,0.005962372,0,
00:09.3,0.003787994,0.004062653,0.005962372,0,
00:09.3,0.003805161,0.004056931,0.00595665,0,
00:09.3,0.003787994,0.004062653,0.00595665,0,
00:09.3,0.003787994,0.004074097,0.005968094,0,
00:09.3,0.003787994,0.004062653,0.005968094,0,
00:09.3,0.003782272,0.004056931,0.005962372,0,
00:09.3,0.003770828,0.004045486,0.005968094,0,
00:09.3,0.00377655,0.004074097,0.005968094,0,
00:09.3,0.003782272,0.004091263,0.00595665,0,
00:09.3,0.003782272,0.004074097,0.005968094,0,
00:09.3,0.003799438,0.004074097,0.005979538,0,
00:09.3,0.003787994,0.004068375,0.00598526,0,
00:09.3,0.00377655,0.004056931,0.00598526,0,
00:09.3,0.003782272,0.004056931,0.005979538,0,
00:09.3,0.003787994,0.004068375,0.00598526,0,
00:09.3,0.003787994,0.004068375,0.005973816,0,
00:09.3,0.003787994,0.004068375,0.005962372,0,
00:09.3,0.003770828,0.004068375,0.005968094,0,
00:09.3,0.003765106,0.004062653,0.005990982,0,
00:09.3,0.003793716,0.004045486,0.006002426,0,
00:09.3,0.003782272,0.004051208,0.005990982,0,
00:09.3,0.003782272,0.004068375,0.005990982,0,
00:09.3,0.003787994,0.004056931,0.005990982,0,
00:09.4,0.003782272,0.004045486,0.00598526,0,
00:09.4,0.00377655,0.004051208,0.005990982,0,
00:09.4,0.003770828,0.004045486,0.00598526,0,
00:09.4,0.003753662,0.004062653,0.005996704,0,
00:09.4,0.00377655,0.004074097,0.006002426,0,
00:09.4,0.003787994,0.004068375,0.006002426,0,
00:09.4,0.00377655,0.004062653,0.005996704,0,
00:09.4,0.003793716,0.004062653,0.006008148,0,
00:09.4,0.003787994,0.004068375,0.006008148,0,
00:09.4,0.003782272,0.004068375,0.006002426,0,
00:09.4,0.003782272,0.004051208,0.006002426,0,
00:09.4,0.003782272,0.004056931,0.006002426,0,
00:09.4,0.003782272,0.004051208,0.006008148,0,
00:09.4,0.00377655,0.004045486,0.006008148,0,
00:09.4,0.003770828,0.004056931,0.006008148,0,
00:09.4,0.003765106,0.004056931,0.006019592,0,
00:09.4,0.003765106,0.004039764,0.00601387,0,
00:09.4,0.003770828,0.004045486,0.00601387,0,
00:09.4,0.00377655,0.004045486,0.006025314,0,
00:09.4,0.003770828,0.004039764,0.006031036,0,
00:09.4,0.00377655,0.004068375,0.006019592,0,
00:09.4,0.00377655,0.004039764,0.006025314,0,
00:09.4,0.00377655,0.004062653,0.006036758,0,
00:09.4,0.003782272,0.004074097,0.006036758,0,
00:09.4,0.003759384,0.004056931,0.006031036,0,
00:09.5,0.003759384,0.004051208,0.006036758,0,
00:09.5,0.00377655,0.004051208,0.006036758,0,
00:09.5,0.00377655,0.004051208,0.006036758,0,
00:09.5,0.00377655,0.004068375,0.006036758,0,
00:09.5,0.00377655,0.004062653,0.006031036,0,
00:09.5,0.00377655,0.004051208,0.006025314,0,
00:09.5,0.003782272,0.004039764,0.00604248,0,
00:09.5,0.00377655,0.004045486,0.00604248,0,
00:09.5,0.00377655,0.004062653,0.006036758,0,
00:09.5,0.003782272,0.004062653,0.006048203,0,
00:09.5,0.003770828,0.004056931,0.006048203,0,
00:09.5,0.00377655,0.004051208,0.006048203,0,
00:09.5,0.003793716,0.004045486,0.00604248,0,
00:09.5,0.00377655,0.004051208,0.006065369,0,
00:09.5,0.003759384,0.004039764,0.006065369,0,
00:09.5,0.00377655,0.004039764,0.006059647,0,
00:09.5,0.003799438,0.004045486,0.006059647,0,
00:09.5,0.003787994,0.004039764,0.006059647,0,
00:09.5,0.003787994,0.00402832,0.006053925,0,
00:09.5,0.003782272,0.004045486,0.006059647,0,
00:09.5,0.003787994,0.004062653,0.006053925,0,
00:09.5,0.003770828,0.004051208,0.006071091,0,
00:09.5,0.003765106,0.004039764,0.006071091,0,
00:09.5,0.003793716,0.004039764,0.006065369,0,
00:09.5,0.003782272,0.004034042,0.006065369,0,
00:09.6,0.00377655,0.004034042,0.006065369,0,
00:09.6,0.003782272,0.004039764,0.006059647,0,
00:09.6,0.003782272,0.004051208,0.006071091,0,
00:09.6,0.003770828,0.004051208,0.006076813,0,
00:09.6,0.00377655,0.004056931,0.006071091,0,
00:09.6,0.00377655,0.004045486,0.006065369,0,
00:09.6,0.003782272,0.004045486,0.006071091,0,
00:09.6,0.003793716,0.004045486,0.006088257,0,
00:09.6,0.003787994,0.004045486,0.006082535,0,
00:09.6,0.003787994,0.004045486,0.006071091,0,
00:09.6,0.003782272,0.004051208,0.006082535,0,
00:09.6,0.003782272,0.004051208,0.006093979,0,
00:09.6,0.003787994,0.004045486,0.006088257,0,
00:09.6,0.003787994,0.004039764,0.006082535,0,
00:09.6,0.003787994,0.004039764,0.006076813,0,
00:09.6,0.003787994,0.004045486,0.006088257,0,
00:09.6,0.003787994,0.004034042,0.006088257,0,
00:09.6,0.003787994,0.004034042,0.006088257,0,
00:09.6,0.00377655,0.004051208,0.006082535,0,
00:09.6,0.003753662,0.004045486,0.006076813,0,
00:09.6,0.003782272,0.004034042,0.006093979,0,
00:09.6,0.003810883,0.00402832,0.006088257,0,
00:09.6,0.003805161,0.004016876,0.006093979,0,
00:09.6,0.003787994,0.004022598,0.006093979,0,
00:09.6,0.00377655,0.004045486,0.006093979,0,
00:09.7,0.003793716,0.004056931,0.006093979,0,
00:09.7,0.003805161,0.004039764,0.006088257,0,
00:09.7,0.003805161,0.004045486,0.006082535,0,
00:09.7,0.003793716,0.004045486,0.006111145,0,
00:09.7,0.003782272,0.004034042,0.006122589,0,
00:09.7,0.003805161,0.004034042,0.006116867,0,
00:09.7,0.003799438,0.004039764,0.006105423,0,
00:09.7,0.003793716,0.004045486,0.006099701,0,
00:09.7,0.003793716,0.004056931,0.006105423,0,
00:09.7,0.003793716,0.004039764,0.006122589,0,
00:09.7,0.003805161,0.004016876,0.006116867,0,
00:09.7,0.003810883,0.004034042,0.006116867,0,
00:09.7,0.003805161,0.004068375,0.006122589,0,
00:09.7,0.003805161,0.004056931,0.006116867,0,
00:09.7,0.003805161,0.004045486,0.006116867,0,
00:09.7,0.003799438,0.00402832,0.006122589,0,
00:09.7,0.003799438,0.004022598,0.006128311,0,
00:09.7,0.003810883,0.004039764,0.006128311,0,
00:09.7,0.003810883,0.004045486,0.006122589,0,
00:09.7,0.003799438,0.004051208,0.006128311,0,
00:09.7,0.003793716,0.004045486,0.006122589,0,
00:09.7,0.003810883,0.004039764,0.006122589,0,
00:09.7,0.003816605,0.004039764,0.006105423,0,
00:09.7,0.003805161,0.004039764,0.006116867,0,
00:09.7,0.003799438,0.004022598,0.006139755,0,
00:09.8,0.003799438,0.00399971,0.006139755,0,
00:09.8,0.003805161,0.004034042,0.006134033,0,
00:09.8,0.003822327,0.004062653,0.006134033,0,
00:09.8,0.003822327,0.004056931,0.006139755,0,
00:09.8,0.003810883,0.004045486,0.006134033,0,
00:09.8,0.003816605,0.004034042,0.006134033,0,
00:09.8,0.003822327,0.004039764,0.006134033,0,
00:09.8,0.003816605,0.004051208,0.006134033,0,
00:09.8,0.003833771,0.004045486,0.006122589,0,
00:09.8,0.003822327,0.004056931,0.006134033,0,
00:09.8,0.003822327,0.004045486,0.006134033,0,
00:09.8,0.003828049,0.004045486,0.006139755,0,
00:09.8,0.003828049,0.004045486,0.006139755,0,
00:09.8,0.003822327,0.004045486,0.006151199,0,
00:09.8,0.003810883,0.004034042,0.006134033,0,
00:09.8,0.003810883,0.004039764,0.006134033,0,
00:09.8,0.003828049,0.004045486,0.006145477,0,
00:09.8,0.003839493,0.004051208,0.006139755,0,
00:09.8,0.003816605,0.004045486,0.006139755,0,
00:09.8,0.003822327,0.00402832,0.006139755,0,
00:09.8,0.003845215,0.004016876,0.006128311,0,
00:09.8,0.003839493,0.004039764,0.006134033,0,
00:09.8,0.003828049,0.004062653,0.006145477,0,
00:09.8,0.003822327,0.004051208,0.006145477,0,
00:09.8,0.003839493,0.004051208,0.006139755,0,
00:09.9,0.003845215,0.004051208,0.006134033,0,
00:09.9,0.003833771,0.004045486,0.006134033,0,
00:09.9,0.003828049,0.004056931,0.006128311,0,
00:09.9,0.003839493,0.004068375,0.006134033,0,
00:09.9,0.003856659,0.004062653,0.006128311,0,
00:09.9,0.003845215,0.004045486,0.006134033,0,
00:09.9,0.003839493,0.004051208,0.006139755,0,
00:09.9,0.003845215,0.004051208,0.006139755,0,
00:09.9,0.003845215,0.004051208,0.006156921,0,
00:09.9,0.003839493,0.004056931,0.006145477,0,
00:09.9,0.003833771,0.004056931,0.006139755,0,
00:09.9,0.003845215,0.004051208,0.006139755,0,
00:09.9,0.003816605,0.004051208,0.006145477,0,
00:09.9,0.003839493,0.004062653,0.006139755,0,
00:09.9,0.003856659,0.004056931,0.006134033,0,
00:09.9,0.003839493,0.004045486,0.006122589,0,
00:09.9,0.003833771,0.004034042,0.006122589,0,
00:09.9,0.003833771,0.004045486,0.006134033,0,
00:09.9,0.003850937,0.004068375,0.006145477,0,
00:09.9,0.003850937,0.004062653,0.006139755,0,
00:09.9,0.003850937,0.004062653,0.006134033,0,
00:09.9,0.003845215,0.004056931,0.006128311,0,
00:09.9,0.003845215,0.004045486,0.006128311,0,
00:09.9,0.003839493,0.004062653,0.006134033,0,
00:09.9,0.003833771,0.004056931,0.006134033,0,
00:10.0,0.003828049,0.004045486,0.006128311,0,
00:10.0,0.003839493,0.004085541,0.006122589,0,
00:10.0,0.003850937,0.004085541,0.006134033,0,
00:10.0,0.003845215,0.004085541,0.006145477,0,
00:10.0,0.003845215,0.004074097,0.006151199,0,
00:10.0,0.003833771,0.004062653,0.006145477,0,
00:10.0,0.003822327,0.004074097,0.006134033,0,
00:10.0,0.003828049,0.004074097,0.006134033,0,
00:10.0,0.003833771,0.004074097,0.006128311,0,
00:10.0,0.003850937,0.004079819,0.006122589,0,
00:10.0,0.003845215,0.004068375,0.006128311,0,
00:10.0,0.003839493,0.004068375,0.006122589,0,
00:00:10,0.003833771,0.004085541,0.006122589,0,
00:10.0,0.003845215,0.004085541,0.006111145,0,
00:10.0,0.003856659,0.004079819,0.006116867,0,
00:10.0,0.003850937,0.004074097,0.006134033,0,
00:10.0,0.003850937,0.004068375,0.006139755,0,
00:10.0,0.003845215,0.004079819,0.006128311,0,
00:10.0,0.003833771,0.004096985,0.006122589,0,
00:10.0,0.003850937,0.004096985,0.006128311,0,
00:10.0,0.003862381,0.004074097,0.006111145,0,
00:10.0,0.003845215,0.004062653,0.006134033,0,
00:10.0,0.003850937,0.004085541,0.006139755,0,
00:10.0,0.003856659,0.004079819,0.006134033,0,
00:10.0,0.003833771,0.004085541,0.006122589,0,
00:10.1,0.003816605,0.004091263,0.006116867,0,
00:10.1,0.003845215,0.004102707,0.006116867,0,
00:10.1,0.003873825,0.004091263,0.006122589,0,
00:10.1,0.003862381,0.004085541,0.006128311,0,
00:10.1,0.003856659,0.004091263,0.006122589,0,
00:10.1,0.003862381,0.004102707,0.006111145,0,
00:10.1,0.003862381,0.004108429,0.006111145,0,
00:10.1,0.003862381,0.004114151,0.006116867,0,
00:10.1,0.003862381,0.004108429,0.006105423,0,
00:10.1,0.003856659,0.004102707,0.006093979,0,
00:10.1,0.003850937,0.004096985,0.006105423,0,
00:10.1,0.003856659,0.004085541,0.006105423,0,
00:10.1,0.003839493,0.004085541,0.006105423,0,
00:10.1,0.003856659,0.004114151,0.006116867,0,
00:10.1,0.003868103,0.004102707,0.006122589,0,
00:10.1,0.003862381,0.004114151,0.006105423,0,
00:10.1,0.003862381,0.004119873,0.006099701,0,
00:10.1,0.003856659,0.004102707,0.006099701,0,
00:10.1,0.003862381,0.004091263,0.006105423,0,
00:10.1,0.003856659,0.004108429,0.006105423,0,
00:10.1,0.003839493,0.004131317,0.006099701,0,
00:10.1,0.003850937,0.004119873,0.006099701,0,
00:10.1,0.003868103,0.004102707,0.006105423,0,
00:10.1,0.003873825,0.004108429,0.006099701,0,
00:10.1,0.003873825,0.004125595,0.006093979,0,
00:10.2,0.003862381,0.004125595,0.006088257,0,
00:10.2,0.003873825,0.004119873,0.006076813,0,
00:10.2,0.003868103,0.004119873,0.006088257,0,
00:10.2,0.003868103,0.004119873,0.006093979,0,
00:10.2,0.003862381,0.004119873,0.006099701,0,
00:10.2,0.003850937,0.004108429,0.006088257,0,
00:10.2,0.003862381,0.004119873,0.006088257,0,
00:10.2,0.003868103,0.004131317,0.006088257,0,
00:10.2,0.003862381,0.004137039,0.006088257,0,
00:10.2,0.003856659,0.004119873,0.006093979,0,
00:10.2,0.003868103,0.004091263,0.006082535,0,
00:10.2,0.003868103,0.004096985,0.006082535,0,
00:10.2,0.003868103,0.004119873,0.006093979,0,
00:10.2,0.003873825,0.004125595,0.006088257,0,
00:10.2,0.003868103,0.004137039,0.006082535,0,
00:10.2,0.003868103,0.004125595,0.006082535,0,
00:10.2,0.003873825,0.004114151,0.006076813,0,
00:10.2,0.003873825,0.004131317,0.006076813,0,
00:10.2,0.003868103,0.004142761,0.006076813,0,
00:10.2,0.003868103,0.004137039,0.006082535,0,
00:10.2,0.003868103,0.004125595,0.006071091,0,
