Elapsed_Time,EMG1,EMG2,EMG3,BioRadio Event,Unnamed: 5
00:00:00,0.002174377,0.002815247,0.004022598,0,
00:00.0,0.002202988,0.002786636,0.004039764,0,
00:00.0,0.002174377,0.002775192,0.004016876,0,
00:00.0,0.002122879,0.002780914,0.004034042,0,
00:00.0,0.002122879,0.002809525,0.004074097,0,
00:00.0,0.002140045,0.002803802,0.004051208,0,
00:00.0,0.002122879,0.00276947,0.004062653,0,
00:00.0,0.002117157,0.00276947,0.004062653,0,
00:00.0,0.002128601,0.002786636,0.004039764,0,
00:00.0,0.002128601,0.002780914,0.004039764,0,
00:00.0,0.002128601,0.002758026,0.004085541,0,
00:00.0,0.002059937,0.00276947,0.004068375,0,
00:00.0,0.00204277,0.002775192,0.004051208,0,
00:00.1,0.002071381,0.00279808,0.004056931,0,
00:00.1,0.002145767,0.002792358,0.004034042,0,
00:00.1,0.002174377,0.002792358,0.003982544,0,
00:00.1,0.002151489,0.002786636,0.004062653,0,
00:00.1,0.002065659,0.00276947,0.004068375,0,
00:00.1,0.002128601,0.00276947,0.004056931,0,
00:00.1,0.002140045,0.002780914,0.004051208,0,
00:00.1,0.002180099,0.002780914,0.00402832,0,
00:00.1,0.002071381,0.002780914,0.004011154,0,
00:00.1,0.002140045,0.002786636,0.004085541,0,
00:00.1,0.002174377,0.00279808,0.004068375,0,
00:00.1,0.002162933,0.00279808,0.00402832,0,
00:00.1,0.002157211,0.002786636,0.004039764,0,
00:00.1,0.002145767,0.002809525,0.00402832,0,
00:00.1,0.002151489,0.002820969,0.004022598,0,
00:00.1,0.002140045,0.002786636,0.004062653,0,
00:00.1,0.002111435,0.002758026,0.004056931,0,
00:00.1,0.002117157,0.002752304,0.004045486,0,
00:00.1,0.002111435,0.002746582,0.004051208,0,
00:00.1,0.002105713,0.002746582,0.004085541,0,
00:00.1,0.002128601,0.002792358,0.004056931,0,
00:00.1,0.002071381,0.002803802,0.00399971,0,
00:00.1,0.002082825,0.002786636,0.004056931,0,
00:00.1,0.002077103,0.002792358,0.004068375,0,
00:00.1,0.002048492,0.002763748,0.004074097,0,
00:00.2,0.002140045,0.002775192,0.00402832,0,
00:00.2,0.002145767,0.00279808,0.00399971,0,
00:00.2,0.002180099,0.00279808,0.004016876,0,
00:00.2,0.002174377,0.002792358,0.004039764,0,
00:00.2,0.002128601,0.002803802,0.004045486,0,
00:00.2,0.002128601,0.002803802,0.004039764,0,
00:00.2,0.002117157,0.002775192,0.004085541,0,
00:00.2,0.002128601,0.002786636,0.004022598,0,
00:00.2,0.002117157,0.00279808,0.004022598,0,
00:00.2,0.002168655,0.002803802,0.004034042,0,
00:00.2,0.002128601,0.002780914,0.004045486,0,
00:00.2,0.002134323,0.00276947,0.004079819,0,
00:00.2,0.002122879,0.002763748,0.004074097,0,
00:00.2,0.002117157,0.002786636,0.004022598,0,
00:00.2,0.002128601,0.00279808,0.004039764,0,
00:00.2,0.002122879,0.002780914,0.004011154,0,
00:00.2,0.002122879,0.00276947,0.004011154,0,
00:00.2,0.002099991,0.002775192,0.004045486,0,
00:00.2,0.002048492,0.002786636,0.004091263,0,
00:00.2,0.002105713,0.002786636,0.004062653,0,
00:00.2,0.002025604,0.00276947,0.00402832,0,
00:00.2,0.002008438,0.002775192,0.004011154,0,
00:00.2,0.002271652,0.00276947,0.004034042,0,
00:00.2,0.002180099,0.002758026,0.004079819,0,
00:00.2,0.002077103,0.00276947,0.004051208,0,
00:00.3,0.002157211,0.00279808,0.004062653,0,
00:00.3,0.002180099,0.002803802,0.004034042,0,
00:00.3,0.002151489,0.002792358,0.004034042,0,
00:00.3,0.002128601,0.002775192,0.004034042,0,
00:00.3,0.002140045,0.00279808,0.004011154,0,
00:00.3,0.002145767,0.002820969,0.00399971,0,
00:00.3,0.002128601,0.002809525,0.004039764,0,
00:00.3,0.002111435,0.002775192,0.004091263,0,
00:00.3,0.002145767,0.002780914,0.004045486,0,
00:00.3,0.002128601,0.002775192,0.00402832,0,
00:00.3,0.002105713,0.00274086,0.004011154,0,
00:00.3,0.002117157,0.002752304,0.004016876,0,
00:00.3,0.002111435,0.002775192,0.004056931,0,
00:00.3,0.002105713,0.002786636,0.004056931,0,
00:00.3,0.002140045,0.00279808,0.004085541,0,
00:00.3,0.002094269,0.002786636,0.004034042,0,
00:00.3,0.002122879,0.002780914,0.004034042,0,
00:00.3,0.002122879,0.00276947,0.004045486,0,
00:00.3,0.002059937,0.002780914,0.004051208,0,
00:00.3,0.001876831,0.002775192,0.004051208,0,
00:00.3,0.002059937,0.00276947,0.004016876,0,
00:00.3,0.00220871,0.002775192,0.004039764,0,
00:00.3,0.00223732,0.00276947,0.004011154,0,
00:00.3,0.002180099,0.002792358,0.004011154,0,
00:00.3,0.002105713,0.002786636,0.004045486,0,
00:00.4,0.002082825,0.002763748,0.004051208,0,
00:00.4,0.002162933,0.002792358,0.004011154,0,
00:00.4,0.002162933,0.002792358,0.004039764,0,
00:00.4,0.002122879,0.002792358,0.004039764,0,
00:00.4,0.002094269,0.002775192,0.004045486,0,
00:00.4,0.002122879,0.00276947,0.004051208,0,
00:00.4,0.002117157,0.002763748,0.004062653,0,
00:00.4,0.002122879,0.002763748,0.004062653,0,
00:00.4,0.002117157,0.00276947,0.004051208,0,
00:00.4,0.002099991,0.002775192,0.004039764,0,
00:00.4,0.002094269,0.002775192,0.004022598,0,
00:00.4,0.002094269,0.002786636,0.004045486,0,
00:00.4,0.002122879,0.002786636,0.004045486,0,
00:00.4,0.002117157,0.002775192,0.004039764,0,
00:00.4,0.002094269,0.002775192,0.004034042,0,
00:00.4,0.002122879,0.002792358,0.004039764,0,
00:00.4,0.002128601,0.002775192,0.004045486,0,
00:00.4,0.002082825,0.00276947,0.004039764,0,
00:00.4,0.00201416,0.002763748,0.004056931,0,
00:00.4,0.002065659,0.002780914,0.004011154,0,
00:00.4,0.002031326,0.002758026,0.004016876,0,
00:00.4,0.002094269,0.00276947,0.004051208,0,
00:00.4,0.002071381,0.002775192,0.004085541,0,
00:00.4,0.002140045,0.002786636,0.004045486,0,
00:00.4,0.00223732,0.002803802,0.004045486,0,
00:00.5,0.002145767,0.00276947,0.004039764,0,
00:00.5,0.002122879,0.002775192,0.004016876,0,
00:00.5,0.002134323,0.002786636,0.004034042,0,
00:00.5,0.002117157,0.00276947,0.004051208,0,
00:00.5,0.002134323,0.002780914,0.004045486,0,
00:00.5,0.002088547,0.00276947,0.004034042,0,
00:00.5,0.002094269,0.002763748,0.004051208,0,
00:00.5,0.002111435,0.002758026,0.004045486,0,
00:00.5,0.002105713,0.00274086,0.00399971,0,
00:00.5,0.002122879,0.002786636,0.004005432,0,
00:00.5,0.002122879,0.002820969,0.004045486,0,
00:00.5,0.002111435,0.002780914,0.004056931,0,
00:00.5,0.002094269,0.002775192,0.004051208,0,
00:00.5,0.002059937,0.00276947,0.004034042,0,
00:00.5,0.002094269,0.00276947,0.004039764,0,
00:00.5,0.002117157,0.002786636,0.004039764,0,
00:00.5,0.002077103,0.00279808,0.004016876,0,
00:00.5,0.002088547,0.002792358,0.004045486,0,
00:00.5,0.002140045,0.002775192,0.004051208,0,
00:00.5,0.002094269,0.002763748,0.004074097,0,
00:00.5,0.00204277,0.002763748,0.004039764,0,
00:00.5,0.002059937,0.002758026,0.004039764,0,
00:00.5,0.002088547,0.00276947,0.004011154,0,
00:00.5,0.002077103,0.002763748,0.004045486,0,
00:00.5,0.002162933,0.002792358,0.00402832,0,
00:00.6,0.002134323,0.00279808,0.004011154,0,
00:00.6,0.002145767,0.002786636,0.004011154,0,
00:00.6,0.002145767,0.002780914,0.004045486,0,
00:00.6,0.002134323,0.002780914,0.004045486,0,
00:00.6,0.002111435,0.002763748,0.004085541,0,
00:00.6,0.002099991,0.00276947,0.004034042,0,
00:00.6,0.002111435,0.002780914,0.00402832,0,
00:00.6,0.002140045,0.002780914,0.004016876,0,
00:00.6,0.002105713,0.00276947,0.004011154,0,
00:00.6,0.002088547,0.002763748,0.004011154,0,
00:00.6,0.002088547,0.00276947,0.004056931,0,
00:00.6,0.002094269,0.002746582,0.004062653,0,
00:00.6,0.002094269,0.002752304,0.004039764,0,
00:00.6,0.002065659,0.002775192,0.004034042,0,
00:00.6,0.002019882,0.002775192,0.004034042,0,
00:00.6,0.002019882,0.00276947,0.004039764,0,
00:00.6,0.002117157,0.002758026,0.004062653,0,
00:00.6,0.002180099,0.002780914,0.004045486,0,
00:00.6,0.002117157,0.002780914,0.00402832,0,
00:00.6,0.002054214,0.002758026,0.00402832,0,
00:00.6,0.002077103,0.002763748,0.00402832,0,
00:00.6,0.002099991,0.002775192,0.004016876,0,
00:00.6,0.001939774,0.002763748,0.004005432,0,
00:00.6,0.002088547,0.002786636,0.004045486,0,
00:00.6,0.002283096,0.00279808,0.004068375,0,
00:00.7,0.002162933,0.00276947,0.00402832,0,
00:00.7,0.002105713,0.002758026,0.004039764,0,
00:00.7,0.002128601,0.00276947,0.004051208,0,
00:00.7,0.002105713,0.00276947,0.004039764,0,
00:00.7,0.002099991,0.00276947,0.004056931,0,
00:00.7,0.002088547,0.00276947,0.004034042,0,
00:00.7,0.002094269,0.00276947,0.004016876,0,
00:00.7,0.002099991,0.00276947,0.004016876,0,
00:00.7,0.002094269,0.002763748,0.004039764,0,
00:00.7,0.002099991,0.002763748,0.004039764,0,
00:00.7,0.002094269,0.00276947,0.004016876,0,
00:00.7,0.002088547,0.00276947,0.004039764,0,
00:00.7,0.002088547,0.00276947,0.004056931,0,
00:00.7,0.002105713,0.002786636,0.004022598,0,
00:00.7,0.002094269,0.002786636,0.004045486,0,
00:00.7,0.002037048,0.002746582,0.004045486,0,
00:00.7,0.002037048,0.002729416,0.004056931,0,
00:00.7,0.002031326,0.002763748,0.004045486,0,
00:00.7,0.002134323,0.002780914,0.004034042,0,
00:00.7,0.002105713,0.00276947,0.004034042,0,
00:00.7,0.002077103,0.002746582,0.004011154,0,
00:00.7,0.002117157,0.002752304,0.004016876,0,
00:00.7,0.002162933,0.002780914,0.004051208,0,
00:00.7,0.002117157,0.002775192,0.004056931,0,
00:00.7,0.002082825,0.002752304,0.00402832,0,
00:00.8,0.002111435,0.00274086,0.004034042,0,
00:00.8,0.002071381,0.00276947,0.004056931,0,
00:00.8,0.002105713,0.002775192,0.004062653,0,
00:00.8,0.002117157,0.002775192,0.004016876,0,
00:00.8,0.002099991,0.002786636,0.004011154,0,
00:00.8,0.002094269,0.002780914,0.004022598,0,
00:00.8,0.002094269,0.002758026,0.004045486,0,
00:00.8,0.002088547,0.002758026,0.004045486,0,
00:00.8,0.002059937,0.002752304,0.00402832,0,
00:00.8,0.002031326,0.002775192,0.004011154,0,
00:00.8,0.00204277,0.00276947,0.004045486,0,
00:00.8,0.002162933,0.002780914,0.004056931,0,
00:00.8,0.002105713,0.00276947,0.004016876,0,
00:00.8,0.002088547,0.002763748,0.004045486,0,
00:00.8,0.002065659,0.00276947,0.004068375,0,
00:00.8,0.00204277,0.002752304,0.004051208,0,
00:00.8,0.002059937,0.002752304,0.00402832,0,
00:00.8,0.002065659,0.002752304,0.004045486,0,
00:00.8,0.002008438,0.002763748,0.004045486,0,
00:00.8,0.002128601,0.002763748,0.004074097,0,
00:00.8,0.002174377,0.002775192,0.004016876,0,
00:00.8,0.002134323,0.00276947,0.004005432,0,
00:00.8,0.002117157,0.002758026,0.004022598,0,
00:00.8,0.002105713,0.002752304,0.004062653,0,
00:00.8,0.002082825,0.002758026,0.004051208,0,
00:00.9,0.002082825,0.002758026,0.004039764,0,
00:00.9,0.002094269,0.002763748,0.004022598,0,
00:00.9,0.002099991,0.002775192,0.004022598,0,
00:00.9,0.002082825,0.00276947,0.004039764,0,
00:00.9,0.002088547,0.002758026,0.00402832,0,
00:00.9,0.002099991,0.00276947,0.004051208,0,
00:00.9,0.002082825,0.002763748,0.004051208,0,
00:00.9,0.002088547,0.002763748,0.004045486,0,
00:00.9,0.002099991,0.002763748,0.004051208,0,
00:00.9,0.002094269,0.002763748,0.004022598,0,
00:00.9,0.002088547,0.002763748,0.004034042,0,
00:00.9,0.002071381,0.002763748,0.004045486,0,
00:00.9,0.001974106,0.002746582,0.004056931,0,
00:00.9,0.001991272,0.002752304,0.004051208,0,
00:00.9,0.002082825,0.002815247,0.003993988,0,
00:00.9,0.002140045,0.002803802,0.004022598,0,
00:00.9,0.002111435,0.002746582,0.00402832,0,
00:00.9,0.002054214,0.002752304,0.004062653,0,
00:00.9,0.002059937,0.002746582,0.004079819,0,
00:00.9,0.002162933,0.002763748,0.004039764,0,
00:00.9,0.002122879,0.002752304,0.004022598,0,
00:00.9,0.002099991,0.002758026,0.004045486,0,
00:00.9,0.002088547,0.002758026,0.004062653,0,
00:00.9,0.002099991,0.002763748,0.004062653,0,
00:00.9,0.002077103,0.002763748,0.004045486,0,
00:01.0,0.002094269,0.002752304,0.004034042,0,
00:01.0,0.002111435,0.002758026,0.004022598,0,
00:01.0,0.002105713,0.00276947,0.004056931,0,
00:01.0,0.002077103,0.002752304,0.004039764,0,
00:01.0,0.002077103,0.002758026,0.004034042,0,
00:01.0,0.002059937,0.002763748,0.004051208,0,
00:01.0,0.002037048,0.002758026,0.004045486,0,
00:01.0,0.002008438,0.002758026,0.004051208,0,
00:01.0,0.002140045,0.002758026,0.004045486,0,
00:01.0,0.002157211,0.002775192,0.004045486,0,
00:01.0,0.002094269,0.002763748,0.004039764,0,
00:01.0,0.002019882,0.002746582,0.004005432,0,
00:00:01,0.002025604,0.002763748,0.00402832,0,
00:01.0,0.002059937,0.002763748,0.004074097,0,
00:01.0,0.002088547,0.002746582,0.004045486,0,
00:01.0,0.002094269,0.002775192,0.004045486,0,
00:01.0,0.002088547,0.002752304,0.004062653,0,
00:01.0,0.00204277,0.002746582,0.004039764,0,
00:01.0,0.002071381,0.002763748,0.004068375,0,
00:01.0,0.002082825,0.002780914,0.004051208,0,
00:01.0,0.002122879,0.002752304,0.004034042,0,
00:01.0,0.002099991,0.002758026,0.004034042,0,
00:01.0,0.002088547,0.002763748,0.00402832,0,
00:01.0,0.002094269,0.002758026,0.004051208,0,
00:01.0,0.002111435,0.00276947,0.004034042,0,
00:01.1,0.002094269,0.002758026,0.004016876,0,
00:01.1,0.002082825,0.002752304,0.004056931,0,
00:01.1,0.002077103,0.002763748,0.00402832,0,
00:01.1,0.002077103,0.002763748,0.004045486,0,
00:01.1,0.002054214,0.002775192,0.004085541,0,
00:01.1,0.002071381,0.00276947,0.004045486,0,
00:01.1,0.002099991,0.002746582,0.004039764,0,
00:01.1,0.002059937,0.002729416,0.004034042,0,
00:01.1,0.002054214,0.00276947,0.004062653,0,
00:01.1,0.002117157,0.002786636,0.004056931,0,
00:01.1,0.002082825,0.00276947,0.004034042,0,
00:01.1,0.002059937,0.002746582,0.004005432,0,
00:01.1,0.002059937,0.002758026,0.004045486,0,
00:01.1,0.002071381,0.002746582,0.004074097,0,
00:01.1,0.002094269,0.00274086,0.004056931,0,
00:01.1,0.002008438,0.002746582,0.004056931,0,
00:01.1,0.002008438,0.002735138,0.004039764,0,
00:01.1,0.002168655,0.002780914,0.004039764,0,
00:01.1,0.002105713,0.00279808,0.004022598,0,
00:01.1,0.002077103,0.002758026,0.004022598,0,
00:01.1,0.00204277,0.002735138,0.004039764,0,
00:01.1,0.002054214,0.002752304,0.004062653,0,
00:01.1,0.002122879,0.00276947,0.004051208,0,
00:01.1,0.002071381,0.002758026,0.004056931,0,
00:01.1,0.001991272,0.002752304,0.004039764,0,
00:01.2,0.002094269,0.002746582,0.004074097,0,
00:01.2,0.002128601,0.002763748,0.00402832,0,
00:01.2,0.002077103,0.00276947,0.004051208,0,
00:01.2,0.002037048,0.002758026,0.004051208,0,
00:01.2,0.00204277,0.002758026,0.004051208,0,
00:01.2,0.002099991,0.002763748,0.004045486,0,
00:01.2,0.002111435,0.002758026,0.004039764,0,
00:01.2,0.002105713,0.002752304,0.004051208,0,
00:01.2,0.002088547,0.002758026,0.004056931,0,
00:01.2,0.002071381,0.002746582,0.004062653,0,
00:01.2,0.002019882,0.002752304,0.004051208,0,
00:01.2,0.001991272,0.002752304,0.004034042,0,
00:01.2,0.002077103,0.002752304,0.004056931,0,
00:01.2,0.002105713,0.002763748,0.004051208,0,
00:01.2,0.002094269,0.002763748,0.004034042,0,
00:01.2,0.002088547,0.002746582,0.004056931,0,
00:01.2,0.002077103,0.002763748,0.004045486,0,
00:01.2,0.002031326,0.002752304,0.004045486,0,
00:01.2,0.002025604,0.002746582,0.004045486,0,
00:01.2,0.002094269,0.002752304,0.004051208,0,
00:01.2,0.002099991,0.002758026,0.004074097,0,
00:01.2,0.002094269,0.002758026,0.004074097,0,
00:01.2,0.002059937,0.002752304,0.004062653,0,
00:01.2,0.002094269,0.002775192,0.004034042,0,
00:01.2,0.002071381,0.002758026,0.004034042,0,
00:01.3,0.002025604,0.002763748,0.00402832,0,
00:01.3,0.002037048,0.002758026,0.004051208,0,
00:01.3,0.002094269,0.00274086,0.004045486,0,
00:01.3,0.002111435,0.002752304,0.004074097,0,
00:01.3,0.002071381,0.002758026,0.004085541,0,
00:01.3,0.002059937,0.002746582,0.004062653,0,
00:01.3,0.002094269,0.002752304,0.004039764,0,
00:01.3,0.002071381,0.002746582,0.004051208,0,
00:01.3,0.002059937,0.002752304,0.004045486,0,
00:01.3,0.002065659,0.002752304,0.004062653,0,
00:01.3,0.00204277,0.00274086,0.004074097,0,
00:01.3,0.002105713,0.002758026,0.004039764,0,
00:01.3,0.002111435,0.002758026,0.004016876,0,
00:01.3,0.002077103,0.002758026,0.00402832,0,
00:01.3,0.002048492,0.002763748,0.004062653,0,
00:01.3,0.002048492,0.002752304,0.004079819,0,
00:01.3,0.002048492,0.002752304,0.004051208,0,
00:01.3,0.002071381,0.002758026,0.004016876,0,
00:01.3,0.002088547,0.002763748,0.004039764,0,
00:01.3,0.00201416,0.002735138,0.004074097,0,
00:01.3,0.002019882,0.002746582,0.004056931,0,
00:01.3,0.002071381,0.002746582,0.004051208,0,
00:01.3,0.002099991,0.002758026,0.004074097,0,
00:01.3,0.002002716,0.002752304,0.004074097,0,
00:01.3,0.002031326,0.00274086,0.004068375,0,
00:01.4,0.002134323,0.002763748,0.004045486,0,
00:01.4,0.002054214,0.00274086,0.004062653,0,
00:01.4,0.00204277,0.002746582,0.004062653,0,
00:01.4,0.002077103,0.002763748,0.004045486,0,
00:01.4,0.002111435,0.002758026,0.004051208,0,
00:01.4,0.002117157,0.002752304,0.004074097,0,
00:01.4,0.002077103,0.002758026,0.004022598,0,
00:01.4,0.002071381,0.00276947,0.004022598,0,
00:01.4,0.002037048,0.002758026,0.004051208,0,
00:01.4,0.002019882,0.002746582,0.004062653,0,
00:01.4,0.002077103,0.002752304,0.004068375,0,
00:01.4,0.002111435,0.002775192,0.004079819,0,
00:01.4,0.002077103,0.002758026,0.004056931,0,
00:01.4,0.002059937,0.002752304,0.004051208,0,
00:01.4,0.002094269,0.002735138,0.004114151,0,
00:01.4,0.002059937,0.002763748,0.00402832,0,
00:01.4,0.002048492,0.002763748,0.004045486,0,
00:01.4,0.002048492,0.002758026,0.004068375,0,
00:01.4,0.002002716,0.002746582,0.004079819,0,
00:01.4,0.002037048,0.002752304,0.004074097,0,
00:01.4,0.002002716,0.002746582,0.004051208,0,
00:01.4,0.002117157,0.002758026,0.004062653,0,
00:01.4,0.002082825,0.002758026,0.004039764,0,
00:01.4,0.002019882,0.002735138,0.004074097,0,
00:01.4,0.002065659,0.00274086,0.004091263,0,
00:01.5,0.002122879,0.002763748,0.004062653,0,
00:01.5,0.002082825,0.002758026,0.004062653,0,
00:01.5,0.002071381,0.002752304,0.004051208,0,
00:01.5,0.002094269,0.002752304,0.004068375,0,
00:01.5,0.002059937,0.002752304,0.004068375,0,
00:01.5,0.00204277,0.002752304,0.004085541,0,
00:01.5,0.002059937,0.002746582,0.004039764,0,
00:01.5,0.002077103,0.002746582,0.004034042,0,
00:01.5,0.002082825,0.002752304,0.004102707,0,
00:01.5,0.002077103,0.002752304,0.004074097,0,
00:01.5,0.002059937,0.002752304,0.004045486,0,
00:01.5,0.002059937,0.002758026,0.004051208,0,
00:01.5,0.002031326,0.002746582,0.004051208,0,
00:01.5,0.002071381,0.002746582,0.004062653,0,
00:01.5,0.002065659,0.002752304,0.004062653,0,
00:01.5,0.002065659,0.002758026,0.004034042,0,
00:01.5,0.002025604,0.002752304,0.004034042,0,
00:01.5,0.00195694,0.002729416,0.004085541,0,
00:01.5,0.00198555,0.00274086,0.004062653,0,
00:01.5,0.002162933,0.002758026,0.004051208,0,
00:01.5,0.002105713,0.002758026,0.004056931,0,
00:01.5,0.001991272,0.002735138,0.004051208,0,
00:01.5,0.002059937,0.002746582,0.004056931,0,
00:01.5,0.002025604,0.00274086,0.004062653,0,
00:01.5,0.002099991,0.002746582,0.004074097,0,
00:01.6,0.002105713,0.002746582,0.004056931,0,
00:01.6,0.002077103,0.002746582,0.004056931,0,
00:01.6,0.002099991,0.002758026,0.004045486,0,
00:01.6,0.002077103,0.002758026,0.004051208,0,
00:01.6,0.002048492,0.00274086,0.004079819,0,
00:01.6,0.002059937,0.00274086,0.004068375,0,
00:01.6,0.002065659,0.002758026,0.004056931,0,
00:01.6,0.002054214,0.00274086,0.004062653,0,
00:01.6,0.002071381,0.002763748,0.004056931,0,
00:01.6,0.002048492,0.002752304,0.004051208,0,
00:01.6,0.002025604,0.002735138,0.004074097,0,
00:01.6,0.002071381,0.002746582,0.004045486,0,
00:01.6,0.002077103,0.002763748,0.004039764,0,
00:01.6,0.00204277,0.002752304,0.004079819,0,
00:01.6,0.00204277,0.00274086,0.00399971,0,
00:01.6,0.00195694,0.002735138,0.004091263,0,
00:01.6,0.001974106,0.002723694,0.004085541,0,
00:01.6,0.002088547,0.002758026,0.004062653,0,
00:01.6,0.002025604,0.002729416,0.004068375,0,
00:01.6,0.002111435,0.002746582,0.004068375,0,
00:01.6,0.002111435,0.002752304,0.004056931,0,
00:01.6,0.002065659,0.002729416,0.004068375,0,
00:01.6,0.002071381,0.002752304,0.004074097,0,
00:01.6,0.002059937,0.002746582,0.004062653,0,
00:01.6,0.002077103,0.002746582,0.004045486,0,
00:01.7,0.002071381,0.002746582,0.004056931,0,
00:01.7,0.002071381,0.002752304,0.004051208,0,
00:01.7,0.002088547,0.002752304,0.004051208,0,
00:01.7,0.002077103,0.002735138,0.004034042,0,
00:01.7,0.00204277,0.00274086,0.004068375,0,
00:01.7,0.002054214,0.002746582,0.004051208,0,
00:01.7,0.00204277,0.002746582,0.004056931,0,
00:01.7,0.002037048,0.002758026,0.004051208,0,
00:01.7,0.002059937,0.002746582,0.004056931,0,
00:01.7,0.002048492,0.00274086,0.004051208,0,
00:01.7,0.002031326,0.002758026,0.004045486,0,
00:01.7,0.002025604,0.002735138,0.004022598,0,
00:01.7,0.00198555,0.002735138,0.004131317,0,
00:01.7,0.002037048,0.002752304,0.004079819,0,
00:01.7,0.002025604,0.002729416,0.004085541,0,
00:01.7,0.00198555,0.002729416,0.004079819,0,
00:01.7,0.002168655,0.002746582,0.004045486,0,
00:01.7,0.002094269,0.00274086,0.004051208,0,
00:01.7,0.002082825,0.00274086,0.004051208,0,
00:01.7,0.002065659,0.002735138,0.004056931,0,
00:01.7,0.002065659,0.002752304,0.004062653,0,
00:01.7,0.002019882,0.002735138,0.004056931,0,
00:01.7,0.002031326,0.00274086,0.004096985,0,
00:01.7,0.002025604,0.002752304,0.004062653,0,
00:01.7,0.002054214,0.002752304,0.004051208,0,
00:01.8,0.002094269,0.002735138,0.004056931,0,
00:01.8,0.002065659,0.002735138,0.004051208,0,
00:01.8,0.002065659,0.002746582,0.00402832,0,
00:01.8,0.002077103,0.002746582,0.004051208,0,
00:01.8,0.00204277,0.002735138,0.004062653,0,
00:01.8,0.002054214,0.002746582,0.004079819,0,
00:01.8,0.002059937,0.002735138,0.004056931,0,
00:01.8,0.002008438,0.002735138,0.004068375,0,
00:01.8,0.00198555,0.002746582,0.004079819,0,
00:01.8,0.001991272,0.002729416,0.004079819,0,
00:01.8,0.002088547,0.002735138,0.004079819,0,
00:01.8,0.002094269,0.002746582,0.004045486,0,
00:01.8,0.002019882,0.002746582,0.004074097,0,
00:01.8,0.001996994,0.002729416,0.004068375,0,
00:01.8,0.002037048,0.002735138,0.00402832,0,
00:01.8,0.00204277,0.002746582,0.004056931,0,
00:01.8,0.002031326,0.00274086,0.004085541,0,
00:01.8,0.002082825,0.00274086,0.004091263,0,
00:01.8,0.002088547,0.00274086,0.004062653,0,
00:01.8,0.002048492,0.002752304,0.004051208,0,
00:01.8,0.002059937,0.002746582,0.004074097,0,
00:01.8,0.002054214,0.002735138,0.004051208,0,
00:01.8,0.002054214,0.00274086,0.004045486,0,
00:01.8,0.002037048,0.00274086,0.004051208,0,
00:01.8,0.002002716,0.002746582,0.004051208,0,
00:01.9,0.002037048,0.002746582,0.004062653,0,
00:01.9,0.002059937,0.002746582,0.004079819,0,
00:01.9,0.002054214,0.00274086,0.004062653,0,
00:01.9,0.001991272,0.002735138,0.004079819,0,
00:01.9,0.001974106,0.002735138,0.004068375,0,
00:01.9,0.002065659,0.002746582,0.004045486,0,
00:01.9,0.002111435,0.002746582,0.004068375,0,
00:01.9,0.002059937,0.00274086,0.004079819,0,
00:01.9,0.002059937,0.002735138,0.004074097,0,
00:01.9,0.00204277,0.00274086,0.004068375,0,
00:01.9,0.001979828,0.002735138,0.004056931,0,
00:01.9,0.002025604,0.002735138,0.004085541,0,
00:01.9,0.002094269,0.002746582,0.004085541,0,
00:01.9,0.002065659,0.00274086,0.004068375,0,
00:01.9,0.002054214,0.00274086,0.004034042,0,
00:01.9,0.002031326,0.00274086,0.00402832,0,
00:01.9,0.002037048,0.002723694,0.004079819,0,
00:01.9,0.002031326,0.002723694,0.004096985,0,
00:01.9,0.002037048,0.002746582,0.004085541,0,
00:01.9,0.002048492,0.002752304,0.004068375,0,
00:01.9,0.00201416,0.002735138,0.004039764,0,
00:01.9,0.002059937,0.002735138,0.004045486,0,
00:01.9,0.002037048,0.002758026,0.004068375,0,
00:01.9,0.001979828,0.00274086,0.004102707,0,
00:01.9,0.00204277,0.00274086,0.004039764,0,
00:02.0,0.002117157,0.002752304,0.004091263,0,
00:02.0,0.002037048,0.00274086,0.004074097,0,
00:02.0,0.002002716,0.002723694,0.004051208,0,
00:02.0,0.002031326,0.002752304,0.004085541,0,
00:02.0,0.00204277,0.00274086,0.004068375,0,
00:02.0,0.00204277,0.002735138,0.004062653,0,
00:02.0,0.002019882,0.002735138,0.004085541,0,
00:02.0,0.00204277,0.00274086,0.004074097,0,
00:02.0,0.002059937,0.002752304,0.004068375,0,
00:02.0,0.002077103,0.002735138,0.004062653,0,
00:02.0,0.002048492,0.002735138,0.004068375,0,
00:02.0,0.002019882,0.002746582,0.004062653,0,
00:00:02,0.00201416,0.002746582,0.004068375,0,
00:02.0,0.002019882,0.002735138,0.004074097,0,
00:02.0,0.002059937,0.002729416,0.004074097,0,
00:02.0,0.002008438,0.002729416,0.004062653,0,
00:02.0,0.002031326,0.002735138,0.004079819,0,
00:02.0,0.002054214,0.00274086,0.004079819,0,
00:02.0,0.002037048,0.00274086,0.004068375,0,
00:02.0,0.00201416,0.00274086,0.004068375,0,
00:02.0,0.002031326,0.002723694,0.004091263,0,
00:02.0,0.002054214,0.002735138,0.004045486,0,
00:02.0,0.001991272,0.002729416,0.004085541,0,
00:02.0,0.002008438,0.00274086,0.004096985,0,
00:02.0,0.002077103,0.00274086,0.004074097,0,
00:02.1,0.002094269,0.002752304,0.004074097,0,
00:02.1,0.002059937,0.002758026,0.004056931,0,
00:02.1,0.00201416,0.00274086,0.004039764,0,
00:02.1,0.002031326,0.002723694,0.004068375,0,
00:02.1,0.00204277,0.002746582,0.004068375,0,
00:02.1,0.002019882,0.002758026,0.004074097,0,
00:02.1,0.001911163,0.00271225,0.004074097,0,
00:02.1,0.00204277,0.002735138,0.004074097,0,
00:02.1,0.002031326,0.002746582,0.004068375,0,
00:02.1,0.002071381,0.002746582,0.004079819,0,
00:02.1,0.002071381,0.002763748,0.004062653,0,
00:02.1,0.00201416,0.002746582,0.004056931,0,
00:02.1,0.001996994,0.002735138,0.004079819,0,
00:02.1,0.002048492,0.00274086,0.004079819,0,
00:02.1,0.002008438,0.002735138,0.004096985,0,
00:02.1,0.002054214,0.002735138,0.004108429,0,
00:02.1,0.002059937,0.00274086,0.004079819,0,
00:02.1,0.002037048,0.002717972,0.004068375,0,
00:02.1,0.002025604,0.002729416,0.004068375,0,
00:02.1,0.002025604,0.002758026,0.004051208,0,
00:02.1,0.002025604,0.002746582,0.004011154,0,
00:02.1,0.002037048,0.00274086,0.004062653,0,
00:02.1,0.002054214,0.002723694,0.004096985,0,
00:02.1,0.002059937,0.002735138,0.004085541,0,
00:02.1,0.002019882,0.002752304,0.004108429,0,
00:02.2,0.001996994,0.002758026,0.004039764,0,
00:02.2,0.002008438,0.00274086,0.004056931,0,
00:02.2,0.002002716,0.002729416,0.004068375,0,
00:02.2,0.001974106,0.002723694,0.004068375,0,
00:02.2,0.002048492,0.002746582,0.004085541,0,
00:02.2,0.001974106,0.00274086,0.004085541,0,
00:02.2,0.00195694,0.002729416,0.004085541,0,
00:02.2,0.002008438,0.002735138,0.004085541,0,
00:02.2,0.002054214,0.00274086,0.004062653,0,
00:02.2,0.002037048,0.002752304,0.004056931,0,
00:02.2,0.002002716,0.00274086,0.004074097,0,
00:02.2,0.002025604,0.00274086,0.004096985,0,
00:02.2,0.002037048,0.002746582,0.004096985,0,
00:02.2,0.002054214,0.002735138,0.004074097,0,
00:02.2,0.002037048,0.002735138,0.004079819,0,
00:02.2,0.002019882,0.002717972,0.004079819,0,
00:02.2,0.002025604,0.002723694,0.004068375,0,
00:02.2,0.00201416,0.00274086,0.004079819,0,
00:02.2,0.002037048,0.002758026,0.004074097,0,
00:02.2,0.002071381,0.002752304,0.004045486,0,
00:02.2,0.002054214,0.002735138,0.004051208,0,
00:02.2,0.002019882,0.00274086,0.004045486,0,
00:02.2,0.002002716,0.002735138,0.004091263,0,
00:02.2,0.002002716,0.002729416,0.004091263,0,
00:02.2,0.002008438,0.002758026,0.004085541,0,
00:02.3,0.00198555,0.002746582,0.004091263,0,
00:02.3,0.001974106,0.00274086,0.004079819,0,
00:02.3,0.002002716,0.002746582,0.004062653,0,
00:02.3,0.002008438,0.002735138,0.004079819,0,
00:02.3,0.00198555,0.002746582,0.004085541,0,
00:02.3,0.00204277,0.00274086,0.004062653,0,
00:02.3,0.002031326,0.00274086,0.004074097,0,
00:02.3,0.001996994,0.00274086,0.004091263,0,
00:02.3,0.002019882,0.002758026,0.004079819,0,
00:02.3,0.00201416,0.00274086,0.004074097,0,
00:02.3,0.002008438,0.00274086,0.004074097,0,
00:02.3,0.001934052,0.002729416,0.004091263,0,
00:02.3,0.002002716,0.002752304,0.004068375,0,
00:02.3,0.002094269,0.002775192,0.004051208,0,
00:02.3,0.002002716,0.002746582,0.004068375,0,
00:02.3,0.001962662,0.00271225,0.004085541,0,
00:02.3,0.002025604,0.002746582,0.004079819,0,
00:02.3,0.002008438,0.002746582,0.004091263,0,
00:02.3,0.002019882,0.00274086,0.004074097,0,
00:02.3,0.001996994,0.002752304,0.004056931,0,
00:02.3,0.001945496,0.002735138,0.004079819,0,
00:02.3,0.002002716,0.002746582,0.004091263,0,
00:02.3,0.00201416,0.00274086,0.004079819,0,
00:02.3,0.002037048,0.002786636,0.004039764,0,
00:02.3,0.00204277,0.002786636,0.004022598,0,
00:02.4,0.001979828,0.002723694,0.004079819,0,
00:02.4,0.001962662,0.002717972,0.004096985,0,
00:02.4,0.001939774,0.002735138,0.004074097,0,
00:02.4,0.001974106,0.002758026,0.004091263,0,
00:02.4,0.002002716,0.002763748,0.004079819,0,
00:02.4,0.001968384,0.002752304,0.004068375,0,
00:02.4,0.001939774,0.00274086,0.004056931,0,
00:02.4,0.002048492,0.002752304,0.004045486,0,
00:02.4,0.002037048,0.002763748,0.004068375,0,
00:02.4,0.002008438,0.002752304,0.004062653,0,
00:02.4,0.002019882,0.002746582,0.004085541,0,
00:02.4,0.002008438,0.002758026,0.004074097,0,
00:02.4,0.002008438,0.002729416,0.004079819,0,
00:02.4,0.002031326,0.002735138,0.004056931,0,
00:02.4,0.00201416,0.002758026,0.004056931,0,
00:02.4,0.001979828,0.002746582,0.004051208,0,
00:02.4,0.00198555,0.002746582,0.004085541,0,
00:02.4,0.001876831,0.00274086,0.004074097,0,
00:02.4,0.001893997,0.002735138,0.004079819,0,
00:02.4,0.002077103,0.002758026,0.004056931,0,
00:02.4,0.002031326,0.002758026,0.004068375,0,
00:02.4,0.002025604,0.002763748,0.004062653,0,
00:02.4,0.00198555,0.002775192,0.004068375,0,
00:02.4,0.001934052,0.002752304,0.004079819,0,
00:02.4,0.001996994,0.002746582,0.004079819,0,
00:02.5,0.001991272,0.00274086,0.004074097,0,
00:02.5,0.001996994,0.002729416,0.004045486,0,
00:02.5,0.001974106,0.002746582,0.004062653,0,
00:02.5,0.001951218,0.002758026,0.004062653,0,
00:02.5,0.00198555,0.002758026,0.004074097,0,
00:02.5,0.001974106,0.00276947,0.004039764,0,
00:02.5,0.002037048,0.00274086,0.004068375,0,
00:02.5,0.002031326,0.002752304,0.004074097,0,
00:02.5,0.00198555,0.002758026,0.004085541,0,
00:02.5,0.001934052,0.002729416,0.004119873,0,
00:02.5,0.001928329,0.002752304,0.004108429,0,
00:02.5,0.002008438,0.002786636,0.004051208,0,
00:02.5,0.002008438,0.002746582,0.004062653,0,
00:02.5,0.002008438,0.002758026,0.004102707,0,
00:02.5,0.002002716,0.002758026,0.004056931,0,
00:02.5,0.002002716,0.002763748,0.004056931,0,
00:02.5,0.001945496,0.002752304,0.004096985,0,
00:02.5,0.00195694,0.002746582,0.004091263,0,
00:02.5,0.001996994,0.002752304,0.004068375,0,
00:02.5,0.00198555,0.002752304,0.004074097,0,
00:02.5,0.002002716,0.002752304,0.004085541,0,
00:02.5,0.001991272,0.00276947,0.004091263,0,
00:02.5,0.001968384,0.00276947,0.004056931,0,
00:02.5,0.001968384,0.002763748,0.004062653,0,
00:02.5,0.00198555,0.002763748,0.004068375,0,
00:02.6,0.00198555,0.002735138,0.004074097,0,
00:02.6,0.001939774,0.00271225,0.004079819,0,
00:02.6,0.001905441,0.002746582,0.004079819,0,
00:02.6,0.00195694,0.002752304,0.004085541,0,
00:02.6,0.002031326,0.00276947,0.004074097,0,
00:02.6,0.00201416,0.00276947,0.004091263,0,
00:02.6,0.002002716,0.002763748,0.004068375,0,
00:02.6,0.001888275,0.002763748,0.004068375,0,
00:02.6,0.001951218,0.002758026,0.004068375,0,
00:02.6,0.002019882,0.002775192,0.004085541,0,
00:02.6,0.001991272,0.002775192,0.004096985,0,
00:02.6,0.002048492,0.002763748,0.004074097,0,
00:02.6,0.002025604,0.002752304,0.004119873,0,
00:02.6,0.00201416,0.002746582,0.004119873,0,
00:02.6,0.002002716,0.002763748,0.004068375,0,
00:02.6,0.001979828,0.00276947,0.004074097,0,
00:02.6,0.001974106,0.002752304,0.004096985,0,
00:02.6,0.001979828,0.002752304,0.004085541,0,
00:02.6,0.002002716,0.002752304,0.004062653,0,
00:02.6,0.001996994,0.002763748,0.004062653,0,
00:02.6,0.001996994,0.00276947,0.004096985,0,
00:02.6,0.00198555,0.002763748,0.004068375,0,
00:02.6,0.00198555,0.002775192,0.004074097,0,
00:02.6,0.00201416,0.002775192,0.004079819,0,
00:02.6,0.002002716,0.00276947,0.004074097,0,
00:02.7,0.001974106,0.002763748,0.004079819,0,
00:02.7,0.001974106,0.002758026,0.004096985,0,
00:02.7,0.002002716,0.002763748,0.004068375,0,
00:02.7,0.001979828,0.002775192,0.004096985,0,
00:02.7,0.001979828,0.002775192,0.004085541,0,
00:02.7,0.001979828,0.002758026,0.004114151,0,
00:02.7,0.001934052,0.002752304,0.004108429,0,
00:02.7,0.001905441,0.00276947,0.004074097,0,
00:02.7,0.001996994,0.002758026,0.004085541,0,
00:02.7,0.002008438,0.002763748,0.004119873,0,
00:02.7,0.00201416,0.002780914,0.004142761,0,
00:02.7,0.002037048,0.002763748,0.004102707,0,
00:02.7,0.00195694,0.002758026,0.004079819,0,
00:02.7,0.001979828,0.002758026,0.004114151,0,
00:02.7,0.002031326,0.002775192,0.004079819,0,
00:02.7,0.002031326,0.002792358,0.004091263,0,
00:02.7,0.00195694,0.002780914,0.004114151,0,
00:02.7,0.00201416,0.002758026,0.004096985,0,
00:02.7,0.002054214,0.002758026,0.004085541,0,
00:02.7,0.00201416,0.00279808,0.004085541,0,
00:02.7,0.002008438,0.002815247,0.004051208,0,
00:02.7,0.001996994,0.00276947,0.004091263,0,
00:02.7,0.001979828,0.002758026,0.004137039,0,
00:02.7,0.002002716,0.002758026,0.004108429,0,
00:02.7,0.002008438,0.00276947,0.004137039,0,
00:02.8,0.001968384,0.002786636,0.004096985,0,
00:02.8,0.001934052,0.002786636,0.004068375,0,
00:02.8,0.001945496,0.002758026,0.004131317,0,
00:02.8,0.002019882,0.002763748,0.004114151,0,
00:02.8,0.001979828,0.002758026,0.004119873,0,
00:02.8,0.001996994,0.00276947,0.004102707,0,
00:02.8,0.001922607,0.00276947,0.004119873,0,
00:02.8,0.002025604,0.00276947,0.004148483,0,
00:02.8,0.002059937,0.00276947,0.004102707,0,
00:02.8,0.002019882,0.002775192,0.004096985,0,
00:02.8,0.00198555,0.002775192,0.004108429,0,
00:02.8,0.002037048,0.00276947,0.004165649,0,
00:02.8,0.001996994,0.002775192,0.004125595,0,
00:02.8,0.002037048,0.002803802,0.004096985,0,
00:02.8,0.002088547,0.002780914,0.004119873,0,
00:02.8,0.002048492,0.002792358,0.004114151,0,
00:02.8,0.002025604,0.002803802,0.004114151,0,
00:02.8,0.001996994,0.002803802,0.004102707,0,
00:02.8,0.001979828,0.002775192,0.004102707,0,
00:02.8,0.002019882,0.00276947,0.004119873,0,
00:02.8,0.00201416,0.002786636,0.004137039,0,
00:02.8,0.00201416,0.002792358,0.004114151,0,
00:02.8,0.002008438,0.002786636,0.004188538,0,
00:02.8,0.001979828,0.002775192,0.004137039,0,
00:02.8,0.001974106,0.002763748,0.004096985,0,
00:02.9,0.002008438,0.002786636,0.004119873,0,
00:02.9,0.001962662,0.002792358,0.004148483,0,
00:02.9,0.001882553,0.002786636,0.004119873,0,
00:02.9,0.002031326,0.002780914,0.004131317,0,
00:02.9,0.001996994,0.002763748,0.004171371,0,
00:02.9,0.001979828,0.002752304,0.004182816,0,
00:02.9,0.002128601,0.002803802,0.004125595,0,
00:02.9,0.002088547,0.002803802,0.004131317,0,
00:02.9,0.002025604,0.002786636,0.004125595,0,
00:02.9,0.002008438,0.002792358,0.004119873,0,
00:02.9,0.002059937,0.002792358,0.004142761,0,
00:02.9,0.002019882,0.002780914,0.004159927,0,
00:02.9,0.00201416,0.00276947,0.004154205,0,
00:02.9,0.002048492,0.002786636,0.004125595,0,
00:02.9,0.002059937,0.002803802,0.004199982,0,
00:02.9,0.002031326,0.002803802,0.004199982,0,
00:02.9,0.002065659,0.002792358,0.004165649,0,
00:02.9,0.002065659,0.002775192,0.004131317,0,
00:02.9,0.002019882,0.002792358,0.004142761,0,
00:02.9,0.002031326,0.002803802,0.004182816,0,
00:02.9,0.00201416,0.002803802,0.004182816,0,
00:02.9,0.001951218,0.002792358,0.004142761,0,
00:02.9,0.002008438,0.002786636,0.004137039,0,
00:02.9,0.00204277,0.002780914,0.004154205,0,
00:02.9,0.002037048,0.002792358,0.004177094,0,
00:03.0,0.002037048,0.002809525,0.004171371,0,
00:03.0,0.001996994,0.002820969,0.004171371,0,
00:03.0,0.001865387,0.002792358,0.004182816,0,
00:03.0,0.001968384,0.002780914,0.00419426,0,
00:03.0,0.002111435,0.002780914,0.004182816,0,
00:03.0,0.002082825,0.00276947,0.004182816,0,
00:03.0,0.002088547,0.00279808,0.004211426,0,
00:03.0,0.002048492,0.00279808,0.00419426,0,
00:03.0,0.002019882,0.002786636,0.004211426,0,
00:03.0,0.00201416,0.002786636,0.004154205,0,
00:03.0,0.002002716,0.002792358,0.004182816,0,
00:03.0,0.002002716,0.002792358,0.004182816,0,
00:00:03,0.002094269,0.002815247,0.004188538,0,
00:03.0,0.002048492,0.00279808,0.004228592,0,
00:03.0,0.002048492,0.00279808,0.00422287,0,
00:03.0,0.002059937,0.002780914,0.004199982,0,
00:03.0,0.002065659,0.002815247,0.004188538,0,
00:03.0,0.002059937,0.002832413,0.00419426,0,
00:03.0,0.002059937,0.002832413,0.004211426,0,
00:03.0,0.002037048,0.00279808,0.004211426,0,
00:03.0,0.00204277,0.002786636,0.004228592,0,
00:03.0,0.00204277,0.002809525,0.004188538,0,
00:03.0,0.002048492,0.002838135,0.004165649,0,
00:03.0,0.002031326,0.002815247,0.004234314,0,
00:03.0,0.002008438,0.002780914,0.00425148,0,
00:03.1,0.002031326,0.002792358,0.004240036,0,
00:03.1,0.002025604,0.00279808,0.004211426,0,
00:03.1,0.001916885,0.002786636,0.004217148,0,
00:03.1,0.001882553,0.00279808,0.004262924,0,
00:03.1,0.002077103,0.002809525,0.004217148,0,
00:03.1,0.002157211,0.002826691,0.004217148,0,
00:03.1,0.002122879,0.002820969,0.004262924,0,
00:03.1,0.002105713,0.002815247,0.004257202,0,
00:03.1,0.002054214,0.00279808,0.004257202,0,
00:03.1,0.002065659,0.002809525,0.00422287,0,
00:03.1,0.002099991,0.002820969,0.00425148,0,
00:03.1,0.002048492,0.002786636,0.004274368,0,
00:03.1,0.00204277,0.002809525,0.004262924,0,
00:03.1,0.002065659,0.002815247,0.004240036,0,
00:03.1,0.002054214,0.002803802,0.004217148,0,
00:03.1,0.002054214,0.002809525,0.004240036,0,
00:03.1,0.002054214,0.002815247,0.004268646,0,
00:03.1,0.002071381,0.002838135,0.00425148,0,
00:03.1,0.002059937,0.002855301,0.00422287,0,
00:03.1,0.002077103,0.002838135,0.004245758,0,
00:03.1,0.002048492,0.002786636,0.004291534,0,
00:03.1,0.002048492,0.002792358,0.004325867,0,
00:03.1,0.002048492,0.002792358,0.004291534,0,
00:03.1,0.002054214,0.002792358,0.004285812,0,
00:03.1,0.00204277,0.002820969,0.00428009,0,
00:03.2,0.001991272,0.002809525,0.004291534,0,
00:03.2,0.001888275,0.002820969,0.004291534,0,
00:03.2,0.00195694,0.002826691,0.004291534,0,
00:03.2,0.002077103,0.002803802,0.004331589,0,
00:03.2,0.002111435,0.002809525,0.004354477,0,
00:03.2,0.002111435,0.002809525,0.004274368,0,
00:03.2,0.002128601,0.002809525,0.004262924,0,
00:03.2,0.002065659,0.002803802,0.004291534,0,
00:03.2,0.002077103,0.002826691,0.004291534,0,
00:03.2,0.002088547,0.002832413,0.004291534,0,
00:03.2,0.002065659,0.002826691,0.004320145,0,
00:03.2,0.002088547,0.002832413,0.004308701,0,
00:03.2,0.002082825,0.002843857,0.004285812,0,
00:03.2,0.002088547,0.002826691,0.004308701,0,
00:03.2,0.002088547,0.002815247,0.004331589,0,
00:03.2,0.002082825,0.002838135,0.004314423,0,
00:03.2,0.002054214,0.002838135,0.004308701,0,
00:03.2,0.002071381,0.002815247,0.004274368,0,
00:03.2,0.002048492,0.002803802,0.004331589,0,
00:03.2,0.002048492,0.002815247,0.004331589,0,
00:03.2,0.002082825,0.002832413,0.004337311,0,
00:03.2,0.002071381,0.002826691,0.004320145,0,
00:03.2,0.002054214,0.002803802,0.004337311,0,
00:03.2,0.002019882,0.002826691,0.004343033,0,
00:03.2,0.001996994,0.002826691,0.004325867,0,
00:03.3,0.002088547,0.002820969,0.004325867,0,
00:03.3,0.002094269,0.002832413,0.004343033,0,
00:03.3,0.00204277,0.002832413,0.004343033,0,
00:03.3,0.002002716,0.002838135,0.004320145,0,
00:03.3,0.002054214,0.002826691,0.004325867,0,
00:03.3,0.002105713,0.002815247,0.004360199,0,
00:03.3,0.002140045,0.002832413,0.004400253,0,
00:03.3,0.002105713,0.002849579,0.004331589,0,
00:03.3,0.002094269,0.002820969,0.004320145,0,
00:03.3,0.002065659,0.002820969,0.004337311,0,
00:03.3,0.002048492,0.002820969,0.004354477,0,
00:03.3,0.002122879,0.002832413,0.004354477,0,
00:03.3,0.002111435,0.002838135,0.004337311,0,
00:03.3,0.002088547,0.002838135,0.004371643,0,
00:03.3,0.002077103,0.002832413,0.004354477,0,
00:03.3,0.002077103,0.002820969,0.004371643,0,
00:03.3,0.002094269,0.002832413,0.004337311,0,
00:03.3,0.002082825,0.002843857,0.004314423,0,
00:03.3,0.002054214,0.002843857,0.004365921,0,
00:03.3,0.002082825,0.002843857,0.004417419,0,
00:03.3,0.00201416,0.002820969,0.004417419,0,
00:03.3,0.001979828,0.002809525,0.004365921,0,
00:03.3,0.00204277,0.002820969,0.004354477,0,
00:03.3,0.002157211,0.002832413,0.004354477,0,
00:03.3,0.002145767,0.002832413,0.004365921,0,
00:03.4,0.002094269,0.002832413,0.004360199,0,
00:03.4,0.002054214,0.002849579,0.004365921,0,
00:03.4,0.002105713,0.002832413,0.004365921,0,
00:03.4,0.002105713,0.002809525,0.004377365,0,
00:03.4,0.002088547,0.002838135,0.004377365,0,
00:03.4,0.002077103,0.002849579,0.004371643,0,
00:03.4,0.002105713,0.002855301,0.004377365,0,
00:03.4,0.002128601,0.002861023,0.004405975,0,
00:03.4,0.002094269,0.002838135,0.004371643,0,
00:03.4,0.002077103,0.002820969,0.004365921,0,
00:03.4,0.002099991,0.002832413,0.004388809,0,
00:03.4,0.002082825,0.002832413,0.004394531,0,
00:03.4,0.002077103,0.002843857,0.004394531,0,
00:03.4,0.002088547,0.002826691,0.004377365,0,
00:03.4,0.002099991,0.002849579,0.004377365,0,
00:03.4,0.002088547,0.002843857,0.004394531,0,
00:03.4,0.002025604,0.002826691,0.004400253,0,
00:03.4,0.001974106,0.002832413,0.004400253,0,
00:03.4,0.002037048,0.002832413,0.004388809,0,
00:03.4,0.002145767,0.002849579,0.004377365,0,
00:03.4,0.00204277,0.002843857,0.004417419,0,
00:03.4,0.002082825,0.002832413,0.004394531,0,
00:03.4,0.002128601,0.002843857,0.004377365,0,
00:03.4,0.002111435,0.002832413,0.004411697,0,
00:03.4,0.002094269,0.002832413,0.004423141,0,
00:03.5,0.002094269,0.002838135,0.004394531,0,
00:03.5,0.002099991,0.002855301,0.004405975,0,
00:03.5,0.002140045,0.002838135,0.004400253,0,
00:03.5,0.002111435,0.002832413,0.004394531,0,
00:03.5,0.002105713,0.002843857,0.004400253,0,
00:03.5,0.002122879,0.002843857,0.004434586,0,
00:03.5,0.002111435,0.002832413,0.004428864,0,
00:03.5,0.002117157,0.002838135,0.004411697,0,
00:03.5,0.002105713,0.002843857,0.004383087,0,
00:03.5,0.002088547,0.002832413,0.004417419,0,
00:03.5,0.002094269,0.002849579,0.004428864,0,
00:03.5,0.002094269,0.002866745,0.004411697,0,
00:03.5,0.002105713,0.002861023,0.004423141,0,
00:03.5,0.002111435,0.002849579,0.004434586,0,
00:03.5,0.002088547,0.002843857,0.004423141,0,
00:03.5,0.002077103,0.002832413,0.004423141,0,
00:03.5,0.002077103,0.002826691,0.004434586,0,
00:03.5,0.002094269,0.002838135,0.004417419,0,
00:03.5,0.002019882,0.002843857,0.004440308,0,
00:03.5,0.002059937,0.002832413,0.004451752,0,
00:03.5,0.002128601,0.002838135,0.004428864,0,
00:03.5,0.002099991,0.002838135,0.004423141,0,
00:03.5,0.002037048,0.002838135,0.004428864,0,
00:03.5,0.002099991,0.002843857,0.004434586,0,
00:03.5,0.002128601,0.002832413,0.004457474,0,
00:03.6,0.002151489,0.002838135,0.004423141,0,
00:03.6,0.002094269,0.002855301,0.004411697,0,
00:03.6,0.002140045,0.002849579,0.004440308,0,
00:03.6,0.002122879,0.002838135,0.004463196,0,
00:03.6,0.002082825,0.002832413,0.004434586,0,
00:03.6,0.002094269,0.002843857,0.004451752,0,
00:03.6,0.002140045,0.002838135,0.00447464,0,
00:03.6,0.002117157,0.002832413,0.004440308,0,
00:03.6,0.002105713,0.002849579,0.004440308,0,
00:03.6,0.002111435,0.002849579,0.004434586,0,
00:03.6,0.002099991,0.002849579,0.004434586,0,
00:03.6,0.002099991,0.002832413,0.004417419,0,
00:03.6,0.002111435,0.002843857,0.004434586,0,
00:03.6,0.002105713,0.002843857,0.00447464,0,
00:03.6,0.002099991,0.002832413,0.004440308,0,
00:03.6,0.002088547,0.002838135,0.00447464,0,
00:03.6,0.002099991,0.002843857,0.004463196,0,
00:03.6,0.002111435,0.002832413,0.004451752,0,
00:03.6,0.002077103,0.002826691,0.00447464,0,
00:03.6,0.002002716,0.002838135,0.00447464,0,
00:03.6,0.001939774,0.002832413,0.00447464,0,
00:03.6,0.002111435,0.002849579,0.004463196,0,
00:03.6,0.002202988,0.002855301,0.00444603,0,
00:03.6,0.002128601,0.002820969,0.004428864,0,
00:03.6,0.002128601,0.002826691,0.00444603,0,
00:03.7,0.002117157,0.002832413,0.00447464,0,
00:03.7,0.002094269,0.002838135,0.004468918,0,
00:03.7,0.002117157,0.002861023,0.004440308,0,
00:03.7,0.002128601,0.002849579,0.004411697,0,
00:03.7,0.002111435,0.002838135,0.00444603,0,
00:03.7,0.002117157,0.002849579,0.00444603,0,
00:03.7,0.002111435,0.002849579,0.004457474,0,
00:03.7,0.002099991,0.002838135,0.00447464,0,
00:03.7,0.002094269,0.002838135,0.004468918,0,
00:03.7,0.002088547,0.002849579,0.00447464,0,
00:03.7,0.002099991,0.002849579,0.004468918,0,
00:03.7,0.002082825,0.002838135,0.004468918,0,
00:03.7,0.002048492,0.002826691,0.004486084,0,
00:03.7,0.002065659,0.002815247,0.004463196,0,
00:03.7,0.002082825,0.002832413,0.004463196,0,
00:03.7,0.002122879,0.002849579,0.004457474,0,
00:03.7,0.002099991,0.002855301,0.004491806,0,
00:03.7,0.002031326,0.002855301,0.004451752,0,
00:03.7,0.002019882,0.002832413,0.004440308,0,
00:03.7,0.002059937,0.002809525,0.004468918,0,
00:03.7,0.002202988,0.002826691,0.004468918,0,
00:03.7,0.002128601,0.002849579,0.004417419,0,
00:03.7,0.002071381,0.002838135,0.004468918,0,
00:03.7,0.002128601,0.002843857,0.004468918,0,
00:03.7,0.002122879,0.002861023,0.004451752,0,
00:03.8,0.002134323,0.002861023,0.004497528,0,
00:03.8,0.002122879,0.002838135,0.004468918,0,
00:03.8,0.002088547,0.002826691,0.004463196,0,
00:03.8,0.002082825,0.002832413,0.004457474,0,
00:03.8,0.002048492,0.002832413,0.00444603,0,
00:03.8,0.002111435,0.002838135,0.00447464,0,
00:03.8,0.002134323,0.002849579,0.00447464,0,
00:03.8,0.002099991,0.002832413,0.004463196,0,
00:03.8,0.002111435,0.002843857,0.00447464,0,
00:03.8,0.002105713,0.002861023,0.004451752,0,
00:03.8,0.002071381,0.002843857,0.004486084,0,
00:03.8,0.002082825,0.002826691,0.004486084,0,
00:03.8,0.002082825,0.002838135,0.004468918,0,
00:03.8,0.002140045,0.002855301,0.004434586,0,
00:03.8,0.002128601,0.002838135,0.004457474,0,
00:03.8,0.002082825,0.002832413,0.004480362,0,
00:03.8,0.002099991,0.002838135,0.00447464,0,
00:03.8,0.002082825,0.002826691,0.004468918,0,
00:03.8,0.002037048,0.002832413,0.00447464,0,
00:03.8,0.002151489,0.002855301,0.00444603,0,
00:03.8,0.002174377,0.002861023,0.00447464,0,
00:03.8,0.002054214,0.002832413,0.004497528,0,
00:03.8,0.002037048,0.002826691,0.004480362,0,
00:03.8,0.002151489,0.002855301,0.004480362,0,
00:03.8,0.002111435,0.002843857,0.004451752,0,
00:03.9,0.002140045,0.002861023,0.004463196,0,
00:03.9,0.002134323,0.002843857,0.004480362,0,
00:03.9,0.002077103,0.002855301,0.004480362,0,
00:03.9,0.002099991,0.002861023,0.00447464,0,
00:03.9,0.002151489,0.002855301,0.004491806,0,
00:03.9,0.002122879,0.002832413,0.00447464,0,
00:03.9,0.002111435,0.002843857,0.004440308,0,
00:03.9,0.002088547,0.002843857,0.004491806,0,
00:03.9,0.002105713,0.002838135,0.004486084,0,
00:03.9,0.002117157,0.002838135,0.004463196,0,
00:03.9,0.002117157,0.002849579,0.004463196,0,
00:03.9,0.002088547,0.002843857,0.004463196,0,
00:03.9,0.002059937,0.002843857,0.004457474,0,
00:03.9,0.002128601,0.002855301,0.004486084,0,
00:03.9,0.002094269,0.002849579,0.004486084,0,
00:03.9,0.002128601,0.002838135,0.004497528,0,
00:03.9,0.002140045,0.002838135,0.004468918,0,
00:03.9,0.002105713,0.002843857,0.004480362,0,
00:03.9,0.002071381,0.002855301,0.004486084,0,
00:03.9,0.002140045,0.002849579,0.004463196,0,
00:03.9,0.002111435,0.002843857,0.004457474,0,
00:03.9,0.002077103,0.002843857,0.004508972,0,
00:03.9,0.002082825,0.002849579,0.004468918,0,
00:03.9,0.002054214,0.002820969,0.004457474,0,
00:03.9,0.002105713,0.002820969,0.004486084,0,
00:04.0,0.002202988,0.002849579,0.004497528,0,
00:04.0,0.002180099,0.002861023,0.004480362,0,
00:04.0,0.002157211,0.002838135,0.00450325,0,
00:04.0,0.002128601,0.002849579,0.004497528,0,
00:04.0,0.002117157,0.002849579,0.00447464,0,
00:04.0,0.002111435,0.002849579,0.00444603,0,
00:04.0,0.002099991,0.002843857,0.004486084,0,
00:04.0,0.002088547,0.002826691,0.00450325,0,
00:04.0,0.002145767,0.002843857,0.004486084,0,
00:04.0,0.002134323,0.002838135,0.00447464,0,
00:04.0,0.002122879,0.002826691,0.00450325,0,
00:04.0,0.002111435,0.002838135,0.00450325,0,
00:00:04,0.002099991,0.002843857,0.004486084,0,
00:04.0,0.002117157,0.002843857,0.004480362,0,
00:04.0,0.002117157,0.002832413,0.004468918,0,
00:04.0,0.002134323,0.002843857,0.004480362,0,
00:04.0,0.002122879,0.002843857,0.004486084,0,
00:04.0,0.002111435,0.002843857,0.004491806,0,
00:04.0,0.002094269,0.002843857,0.004463196,0,
00:04.0,0.002094269,0.002843857,0.004440308,0,
00:04.0,0.002111435,0.002826691,0.00450325,0,
00:04.0,0.002145767,0.002838135,0.004520416,0,
00:04.0,0.002134323,0.002843857,0.004480362,0,
00:04.0,0.002145767,0.002838135,0.004451752,0,
00:04.0,0.002122879,0.002820969,0.004486084,0,
00:04.1,0.002162933,0.002832413,0.004497528,0,
00:04.1,0.002134323,0.002838135,0.004468918,0,
00:04.1,0.002128601,0.002838135,0.00447464,0,
00:04.1,0.002128601,0.002843857,0.004486084,0,
00:04.1,0.002128601,0.002849579,0.004497528,0,
00:04.1,0.002111435,0.002843857,0.004491806,0,
00:04.1,0.002077103,0.002849579,0.00450325,0,
00:04.1,0.002128601,0.002849579,0.004486084,0,
00:04.1,0.002145767,0.002849579,0.004486084,0,
00:04.1,0.002134323,0.002838135,0.004486084,0,
00:04.1,0.002128601,0.002815247,0.004463196,0,
00:04.1,0.002128601,0.002815247,0.004486084,0,
00:04.1,0.002134323,0.002855301,0.004514694,0,
00:04.1,0.002105713,0.002866745,0.00447464,0,
00:04.1,0.002099991,0.002843857,0.004463196,0,
00:04.1,0.002111435,0.002838135,0.004486084,0,
00:04.1,0.002111435,0.002838135,0.004491806,0,
00:04.1,0.002134323,0.002843857,0.004480362,0,
00:04.1,0.002134323,0.002832413,0.004486084,0,
00:04.1,0.002031326,0.002849579,0.004514694,0,
00:04.1,0.002162933,0.002838135,0.004520416,0,
00:04.1,0.002180099,0.002832413,0.004480362,0,
00:04.1,0.002185822,0.002855301,0.004497528,0,
00:04.1,0.002128601,0.002843857,0.004491806,0,
00:04.1,0.002122879,0.002832413,0.004526138,0,
00:04.2,0.002151489,0.002849579,0.004508972,0,
00:04.2,0.002145767,0.002838135,0.004480362,0,
00:04.2,0.002140045,0.002838135,0.00450325,0,
00:04.2,0.002140045,0.002843857,0.004486084,0,
00:04.2,0.002174377,0.002849579,0.00447464,0,
00:04.2,0.002151489,0.002838135,0.004520416,0,
00:04.2,0.002140045,0.002832413,0.004520416,0,
00:04.2,0.002094269,0.002832413,0.00447464,0,
00:04.2,0.002105713,0.002826691,0.004526138,0,
00:04.2,0.002162933,0.002832413,0.004526138,0,
00:04.2,0.002151489,0.002826691,0.004497528,0,
00:04.2,0.002162933,0.002838135,0.004508972,0,
00:04.2,0.002099991,0.002838135,0.004508972,0,
00:04.2,0.002122879,0.002838135,0.00450325,0,
00:04.2,0.002168655,0.002832413,0.00450325,0,
00:04.2,0.002157211,0.002843857,0.004480362,0,
00:04.2,0.002048492,0.002838135,0.004491806,0,
00:04.2,0.002059937,0.002815247,0.004486084,0,
00:04.2,0.00220871,0.002820969,0.00450325,0,
00:04.2,0.002225876,0.002832413,0.00450325,0,
00:04.2,0.002185822,0.002849579,0.004486084,0,
00:04.2,0.002151489,0.002843857,0.00450325,0,
00:04.2,0.002174377,0.002843857,0.004520416,0,
00:04.2,0.002162933,0.002826691,0.004497528,0,
00:04.2,0.002140045,0.002832413,0.004491806,0,
00:04.3,0.002157211,0.002855301,0.004486084,0,
00:04.3,0.002128601,0.002849579,0.00453186,0,
00:04.3,0.002145767,0.002832413,0.004497528,0,
00:04.3,0.002128601,0.002820969,0.004520416,0,
00:04.3,0.002162933,0.002832413,0.004520416,0,
00:04.3,0.002180099,0.002843857,0.004508972,0,
00:04.3,0.002162933,0.002832413,0.004514694,0,
00:04.3,0.002145767,0.002843857,0.004526138,0,
00:04.3,0.002122879,0.002820969,0.004491806,0,
00:04.3,0.002157211,0.002832413,0.004514694,0,
00:04.3,0.002168655,0.002832413,0.00450325,0,
00:04.3,0.002140045,0.002826691,0.004526138,0,
00:04.3,0.002117157,0.002838135,0.004520416,0,
00:04.3,0.002151489,0.002832413,0.004508972,0,
00:04.3,0.002168655,0.002826691,0.00450325,0,
00:04.3,0.002140045,0.002820969,0.004508972,0,
00:04.3,0.002128601,0.002820969,0.004497528,0,
00:04.3,0.002117157,0.002815247,0.004520416,0,
00:04.3,0.002134323,0.002832413,0.00450325,0,
00:04.3,0.002122879,0.002826691,0.00450325,0,
00:04.3,0.002202988,0.002843857,0.004520416,0,
00:04.3,0.002174377,0.002832413,0.004497528,0,
00:04.3,0.002140045,0.002820969,0.004520416,0,
00:04.3,0.002145767,0.002826691,0.004508972,0,
00:04.3,0.002191544,0.002843857,0.00450325,0,
00:04.4,0.002191544,0.002832413,0.004508972,0,
00:04.4,0.002162933,0.002820969,0.004520416,0,
00:04.4,0.002168655,0.002826691,0.004520416,0,
00:04.4,0.002168655,0.002809525,0.004537582,0,
00:04.4,0.002134323,0.002809525,0.004480362,0,
00:04.4,0.002094269,0.002843857,0.00450325,0,
00:04.4,0.002140045,0.002826691,0.004549026,0,
00:04.4,0.002185822,0.002838135,0.004514694,0,
00:04.4,0.002174377,0.002838135,0.004514694,0,
00:04.4,0.002197266,0.002826691,0.004520416,0,
00:04.4,0.002111435,0.002815247,0.004480362,0,
00:04.4,0.002025604,0.00279808,0.004514694,0,
00:04.4,0.002140045,0.002820969,0.004537582,0,
00:04.4,0.002128601,0.002826691,0.004514694,0,
00:04.4,0.002197266,0.002832413,0.004514694,0,
00:04.4,0.002197266,0.002809525,0.004543304,0,
00:04.4,0.002191544,0.002838135,0.004508972,0,
00:04.4,0.002225876,0.002838135,0.00453186,0,
00:04.4,0.00223732,0.002832413,0.004543304,0,
00:04.4,0.002162933,0.002826691,0.004514694,0,
00:04.4,0.002157211,0.002826691,0.004480362,0,
00:04.4,0.002151489,0.002826691,0.00450325,0,
00:04.4,0.002157211,0.002826691,0.004537582,0,
00:04.4,0.002168655,0.002826691,0.004514694,0,
00:04.4,0.002157211,0.002820969,0.004514694,0,
00:04.5,0.002151489,0.002809525,0.004520416,0,
00:04.5,0.002157211,0.002820969,0.004514694,0,
00:04.5,0.002162933,0.002815247,0.004514694,0,
00:04.5,0.002157211,0.002820969,0.004497528,0,
00:04.5,0.002157211,0.002826691,0.004520416,0,
00:04.5,0.002145767,0.002820969,0.004520416,0,
00:04.5,0.002122879,0.002815247,0.004526138,0,
00:04.5,0.002071381,0.002809525,0.004537582,0,
00:04.5,0.002117157,0.002803802,0.004537582,0,
00:04.5,0.002202988,0.002815247,0.004537582,0,
00:04.5,0.002197266,0.002826691,0.004549026,0,
00:04.5,0.00220871,0.002826691,0.00453186,0,
00:04.5,0.002117157,0.002820969,0.004514694,0,
00:04.5,0.002162933,0.002815247,0.004526138,0,
00:04.5,0.002214432,0.002809525,0.00450325,0,
00:04.5,0.002180099,0.002809525,0.004520416,0,
00:04.5,0.002140045,0.002809525,0.004497528,0,
00:04.5,0.002140045,0.002803802,0.004549026,0,
00:04.5,0.002157211,0.002792358,0.00453186,0,
00:04.5,0.002180099,0.002820969,0.004526138,0,
00:04.5,0.002134323,0.002815247,0.004508972,0,
00:04.5,0.002174377,0.002809525,0.004514694,0,
00:04.5,0.002168655,0.002832413,0.00453186,0,
00:04.5,0.002157211,0.002826691,0.00453186,0,
00:04.5,0.002191544,0.002820969,0.004514694,0,
00:04.6,0.002162933,0.00279808,0.00453186,0,
00:04.6,0.002185822,0.002803802,0.004537582,0,
00:04.6,0.002157211,0.002820969,0.004508972,0,
00:04.6,0.002174377,0.002820969,0.004526138,0,
00:04.6,0.002180099,0.002809525,0.004554749,0,
00:04.6,0.002168655,0.002803802,0.004549026,0,
00:04.6,0.002162933,0.002809525,0.004526138,0,
00:04.6,0.002168655,0.002809525,0.00453186,0,
00:04.6,0.002145767,0.002803802,0.004537582,0,
00:04.6,0.002145767,0.002803802,0.004520416,0,
00:04.6,0.002134323,0.00279808,0.004526138,0,
00:04.6,0.002128601,0.00279808,0.004537582,0,
00:04.6,0.002202988,0.002803802,0.004537582,0,
00:04.6,0.002168655,0.002809525,0.004514694,0,
00:04.6,0.002180099,0.002815247,0.004514694,0,
00:04.6,0.002214432,0.002826691,0.004543304,0,
00:04.6,0.002168655,0.002809525,0.004508972,0,
00:04.6,0.002174377,0.002809525,0.004571915,0,
00:04.6,0.002157211,0.002803802,0.00453186,0,
00:04.6,0.002191544,0.002792358,0.004543304,0,
00:04.6,0.002185822,0.002792358,0.004537582,0,
00:04.6,0.002162933,0.002803802,0.004520416,0,
00:04.6,0.002168655,0.002809525,0.004543304,0,
00:04.6,0.002185822,0.00279808,0.004554749,0,
00:04.6,0.002162933,0.002809525,0.004549026,0,
00:04.7,0.002151489,0.002820969,0.004520416,0,
00:04.7,0.002197266,0.002820969,0.00453186,0,
00:04.7,0.00220871,0.002809525,0.004549026,0,
00:04.7,0.002145767,0.002809525,0.004520416,0,
00:04.7,0.002094269,0.002792358,0.004491806,0,
00:04.7,0.002174377,0.00279808,0.004520416,0,
00:04.7,0.002191544,0.002803802,0.004537582,0,
00:04.7,0.002180099,0.002803802,0.004554749,0,
00:04.7,0.002162933,0.002792358,0.004549026,0,
00:04.7,0.002162933,0.00279808,0.004560471,0,
00:04.7,0.002214432,0.002792358,0.004514694,0,
00:04.7,0.002220154,0.002803802,0.004549026,0,
00:04.7,0.002185822,0.00279808,0.004549026,0,
00:04.7,0.002185822,0.002792358,0.004543304,0,
00:04.7,0.00220871,0.002792358,0.004549026,0,
00:04.7,0.002214432,0.002792358,0.004554749,0,
00:04.7,0.002202988,0.00279808,0.004543304,0,
00:04.7,0.002185822,0.002803802,0.004549026,0,
00:04.7,0.002180099,0.002826691,0.004554749,0,
00:04.7,0.002180099,0.002832413,0.004537582,0,
00:04.7,0.002174377,0.002803802,0.00453186,0,
00:04.7,0.002191544,0.00279808,0.00453186,0,
00:04.7,0.002191544,0.002803802,0.004566193,0,
00:04.7,0.002145767,0.002803802,0.004526138,0,
00:04.7,0.002145767,0.002792358,0.004514694,0,
00:04.8,0.002197266,0.002803802,0.004520416,0,
00:04.8,0.002197266,0.002803802,0.00453186,0,
00:04.8,0.00220871,0.002792358,0.004549026,0,
00:04.8,0.002220154,0.002815247,0.004549026,0,
00:04.8,0.002197266,0.002815247,0.004554749,0,
00:04.8,0.002157211,0.002786636,0.004554749,0,
00:04.8,0.002162933,0.002786636,0.004566193,0,
00:04.8,0.002151489,0.002786636,0.004543304,0,
00:04.8,0.002162933,0.002803802,0.00453186,0,
00:04.8,0.002140045,0.002803802,0.004537582,0,
00:04.8,0.002105713,0.002758026,0.004560471,0,
00:04.8,0.002140045,0.002780914,0.004554749,0,
00:04.8,0.002254486,0.002792358,0.004566193,0,
00:04.8,0.002197266,0.002786636,0.00453186,0,
00:04.8,0.002220154,0.002803802,0.004526138,0,
00:04.8,0.002185822,0.002803802,0.004520416,0,
00:04.8,0.002220154,0.002803802,0.004526138,0,
00:04.8,0.002202988,0.002809525,0.00453186,0,
00:04.8,0.002185822,0.002780914,0.004549026,0,
00:04.8,0.002225876,0.002775192,0.004537582,0,
00:04.8,0.002202988,0.002786636,0.004537582,0,
00:04.8,0.002180099,0.00279808,0.004560471,0,
00:04.8,0.002197266,0.00279808,0.004560471,0,
00:04.8,0.002185822,0.00279808,0.004571915,0,
00:04.8,0.00220871,0.00279808,0.004508972,0,
00:04.9,0.002202988,0.00279808,0.004526138,0,
00:04.9,0.002197266,0.00279808,0.00453186,0,
00:04.9,0.002191544,0.002792358,0.004537582,0,
00:04.9,0.002185822,0.002792358,0.004549026,0,
00:04.9,0.002180099,0.002786636,0.004549026,0,
00:04.9,0.002174377,0.002780914,0.004543304,0,
00:04.9,0.002168655,0.00279808,0.004543304,0,
00:04.9,0.002128601,0.002786636,0.004537582,0,
00:04.9,0.002162933,0.002780914,0.004520416,0,
00:04.9,0.00220871,0.002786636,0.004508972,0,
00:04.9,0.002168655,0.002763748,0.004520416,0,
00:04.9,0.002180099,0.002792358,0.004560471,0,
00:04.9,0.002162933,0.002803802,0.004594803,0,
00:04.9,0.002231598,0.002792358,0.004566193,0,
00:04.9,0.002243042,0.002786636,0.004508972,0,
00:04.9,0.002185822,0.002786636,0.004543304,0,
00:04.9,0.002151489,0.002775192,0.004560471,0,
00:04.9,0.002191544,0.00276947,0.004554749,0,
00:04.9,0.002185822,0.002786636,0.004520416,0,
00:04.9,0.002180099,0.002780914,0.004520416,0,
00:04.9,0.00220871,0.002803802,0.00453186,0,
00:04.9,0.002225876,0.00279808,0.004560471,0,
00:04.9,0.002214432,0.002780914,0.004560471,0,
00:04.9,0.00220871,0.002775192,0.004537582,0,
00:04.9,0.002202988,0.002780914,0.004537582,0,
00:05.0,0.002191544,0.00276947,0.004549026,0,
00:05.0,0.002191544,0.002786636,0.004554749,0,
00:05.0,0.002185822,0.002786636,0.004537582,0,
00:05.0,0.002180099,0.002780914,0.004537582,0,
00:05.0,0.00220871,0.002792358,0.004549026,0,
00:05.0,0.002197266,0.002775192,0.004549026,0,
00:05.0,0.002162933,0.002758026,0.004549026,0,
00:05.0,0.002134323,0.002775192,0.004560471,0,
00:05.0,0.002128601,0.002780914,0.004566193,0,
00:05.0,0.00220871,0.00276947,0.004537582,0,
00:05.0,0.002151489,0.002758026,0.004549026,0,
00:05.0,0.002157211,0.002780914,0.00453186,0,
00:00:05,0.002117157,0.002775192,0.004543304,0,
00:05.0,0.002185822,0.002792358,0.004566193,0,
00:05.0,0.002254486,0.002792358,0.004554749,0,
00:05.0,0.002283096,0.002786636,0.00450325,0,
00:05.0,0.002214432,0.002775192,0.004549026,0,
00:05.0,0.002214432,0.002735138,0.004566193,0,
00:05.0,0.002220154,0.002758026,0.004560471,0,
00:05.0,0.002225876,0.002809525,0.00453186,0,
00:05.0,0.002202988,0.002792358,0.004549026,0,
00:05.0,0.002168655,0.002775192,0.004537582,0,
00:05.0,0.002197266,0.002775192,0.00453186,0,
00:05.0,0.002202988,0.00276947,0.004549026,0,
00:05.0,0.00220871,0.002758026,0.004554749,0,
00:05.1,0.00220871,0.00276947,0.004571915,0,
00:05.1,0.002191544,0.002775192,0.004537582,0,
00:05.1,0.002191544,0.002786636,0.004554749,0,
00:05.1,0.002185822,0.00276947,0.004560471,0,
00:05.1,0.002134323,0.002758026,0.004560471,0,
00:05.1,0.002168655,0.00276947,0.004577637,0,
00:05.1,0.002214432,0.002775192,0.004554749,0,
00:05.1,0.002225876,0.002786636,0.004520416,0,
00:05.1,0.002214432,0.002775192,0.004543304,0,
00:05.1,0.002157211,0.002758026,0.004554749,0,
00:05.1,0.002122879,0.00274086,0.004560471,0,
00:05.1,0.002151489,0.002758026,0.004560471,0,
00:05.1,0.002225876,0.002746582,0.004577637,0,
00:05.1,0.002225876,0.00276947,0.004571915,0,
00:05.1,0.002197266,0.00276947,0.004560471,0,
00:05.1,0.002191544,0.00276947,0.004571915,0,
00:05.1,0.002214432,0.00276947,0.004594803,0,
00:05.1,0.00223732,0.002775192,0.004549026,0,
00:05.1,0.002185822,0.002763748,0.004554749,0,
00:05.1,0.002180099,0.002758026,0.004543304,0,
00:05.1,0.002202988,0.002763748,0.004543304,0,
00:05.1,0.002197266,0.002775192,0.004537582,0,
00:05.1,0.002214432,0.002775192,0.004543304,0,
00:05.1,0.002214432,0.002780914,0.004571915,0,
00:05.1,0.002191544,0.002763748,0.004549026,0,
00:05.2,0.002191544,0.00274086,0.004566193,0,
00:05.2,0.002197266,0.00276947,0.004577637,0,
00:05.2,0.002191544,0.002758026,0.004594803,0,
00:05.2,0.002168655,0.002752304,0.004560471,0,
00:05.2,0.002134323,0.002763748,0.004560471,0,
00:05.2,0.002191544,0.002758026,0.004554749,0,
00:05.2,0.002220154,0.00276947,0.004543304,0,
00:05.2,0.002191544,0.002763748,0.004560471,0,
00:05.2,0.002191544,0.002758026,0.004594803,0,
00:05.2,0.002157211,0.002758026,0.004554749,0,
00:05.2,0.002082825,0.00274086,0.004571915,0,
00:05.2,0.002105713,0.002746582,0.004606247,0,
00:05.2,0.00223732,0.002758026,0.004566193,0,
00:05.2,0.002288818,0.002780914,0.004577637,0,
00:05.2,0.002220154,0.002758026,0.004554749,0,
00:05.2,0.002180099,0.00276947,0.004571915,0,
00:05.2,0.002197266,0.002758026,0.004560471,0,
00:05.2,0.002220154,0.002763748,0.004566193,0,
00:05.2,0.002197266,0.002758026,0.004571915,0,
00:05.2,0.002197266,0.002752304,0.004577637,0,
00:05.2,0.002202988,0.002763748,0.004571915,0,
00:05.2,0.002202988,0.002758026,0.004554749,0,
00:05.2,0.002214432,0.002763748,0.004571915,0,
00:05.2,0.002202988,0.002763748,0.004594803,0,
00:05.2,0.002202988,0.002763748,0.004583359,0,
00:05.3,0.002197266,0.002763748,0.004571915,0,
00:05.3,0.002191544,0.002758026,0.004583359,0,
00:05.3,0.002191544,0.002758026,0.004566193,0,
00:05.3,0.002197266,0.002763748,0.004566193,0,
00:05.3,0.002197266,0.002758026,0.004577637,0,
00:05.3,0.002185822,0.002746582,0.004600525,0,
00:05.3,0.002174377,0.002763748,0.004571915,0,
00:05.3,0.002157211,0.002758026,0.004571915,0,
00:05.3,0.002185822,0.00274086,0.004589081,0,
00:05.3,0.002231598,0.002786636,0.004577637,0,
00:05.3,0.002168655,0.002758026,0.004594803,0,
00:05.3,0.002128601,0.00274086,0.004583359,0,
00:05.3,0.002151489,0.002763748,0.004594803,0,
00:05.3,0.002122879,0.002752304,0.004600525,0,
00:05.3,0.002128601,0.002735138,0.004600525,0,
00:05.3,0.002231598,0.002746582,0.004606247,0,
00:05.3,0.002317429,0.002758026,0.004606247,0,
00:05.3,0.002305984,0.00276947,0.004600525,0,
00:05.3,0.002248764,0.002775192,0.004566193,0,
00:05.3,0.002191544,0.002752304,0.004606247,0,
00:05.3,0.002145767,0.002758026,0.004583359,0,
00:05.3,0.002197266,0.00276947,0.004583359,0,
00:05.3,0.002202988,0.002758026,0.004594803,0,
00:05.3,0.00220871,0.002752304,0.004594803,0,
00:05.3,0.002202988,0.002758026,0.004594803,0,
00:05.4,0.002191544,0.002735138,0.004600525,0,
00:05.4,0.002202988,0.002763748,0.004594803,0,
00:05.4,0.002197266,0.002758026,0.004577637,0,
00:05.4,0.002197266,0.002752304,0.004583359,0,
00:05.4,0.002202988,0.002758026,0.004583359,0,
00:05.4,0.002185822,0.002758026,0.004594803,0,
00:05.4,0.002174377,0.002752304,0.004611969,0,
00:05.4,0.002191544,0.00276947,0.004600525,0,
00:05.4,0.00220871,0.00276947,0.004629135,0,
00:05.4,0.002191544,0.002758026,0.004606247,0,
00:05.4,0.002214432,0.002752304,0.004623413,0,
00:05.4,0.002214432,0.002746582,0.004629135,0,
00:05.4,0.002168655,0.002752304,0.004600525,0,
00:05.4,0.002117157,0.00274086,0.004566193,0,
00:05.4,0.002065659,0.00274086,0.004606247,0,
00:05.4,0.002220154,0.002763748,0.004611969,0,
00:05.4,0.002283096,0.002775192,0.004617691,0,
00:05.4,0.00223732,0.002763748,0.004594803,0,
00:05.4,0.002168655,0.002746582,0.004617691,0,
00:05.4,0.002128601,0.002729416,0.004646301,0,
00:05.4,0.00223732,0.002763748,0.004611969,0,
00:05.4,0.002271652,0.002775192,0.004629135,0,
00:05.4,0.002248764,0.002763748,0.004623413,0,
00:05.4,0.002191544,0.002758026,0.004606247,0,
00:05.4,0.002168655,0.002758026,0.004611969,0,
00:05.5,0.002231598,0.00276947,0.004634857,0,
00:05.5,0.002231598,0.002758026,0.004629135,0,
00:05.5,0.002214432,0.002752304,0.004617691,0,
00:05.5,0.002214432,0.002763748,0.004606247,0,
00:05.5,0.002191544,0.002758026,0.004617691,0,
00:05.5,0.002197266,0.00276947,0.004629135,0,
00:05.5,0.002214432,0.002775192,0.004623413,0,
00:05.5,0.002197266,0.002763748,0.004606247,0,
00:05.5,0.002202988,0.002752304,0.004634857,0,
00:05.5,0.002185822,0.00274086,0.004640579,0,
00:05.5,0.002214432,0.002763748,0.004646301,0,
00:05.5,0.002214432,0.00276947,0.004640579,0,
00:05.5,0.002197266,0.002763748,0.004634857,0,
00:05.5,0.002111435,0.002763748,0.004657745,0,
00:05.5,0.002105713,0.002763748,0.004646301,0,
00:05.5,0.002145767,0.002758026,0.004634857,0,
00:05.5,0.002231598,0.002746582,0.004634857,0,
00:05.5,0.00226593,0.002746582,0.004646301,0,
00:05.5,0.002225876,0.002746582,0.004663467,0,
00:05.5,0.002197266,0.002763748,0.004629135,0,
00:05.5,0.002260208,0.002775192,0.004606247,0,
00:05.5,0.002231598,0.002752304,0.004652023,0,
00:05.5,0.002197266,0.002775192,0.004646301,0,
00:05.5,0.002197266,0.002775192,0.004669189,0,
00:05.5,0.002231598,0.002746582,0.004663467,0,
00:05.6,0.002231598,0.002763748,0.004652023,0,
00:05.6,0.002225876,0.00276947,0.004669189,0,
00:05.6,0.002202988,0.002758026,0.004657745,0,
00:05.6,0.002214432,0.002752304,0.004652023,0,
00:05.6,0.002214432,0.002763748,0.004657745,0,
00:05.6,0.002202988,0.002763748,0.004663467,0,
00:05.6,0.002202988,0.002752304,0.004663467,0,
00:05.6,0.00220871,0.002758026,0.004669189,0,
00:05.6,0.002214432,0.002758026,0.004669189,0,
00:05.6,0.002214432,0.002752304,0.004686356,0,
00:05.6,0.00220871,0.002746582,0.004680634,0,
00:05.6,0.002202988,0.002758026,0.004657745,0,
00:05.6,0.002191544,0.00276947,0.004674911,0,
00:05.6,0.002157211,0.002758026,0.004674911,0,
00:05.6,0.002185822,0.00276947,0.004663467,0,
00:05.6,0.002202988,0.002775192,0.004669189,0,
00:05.6,0.002174377,0.002752304,0.004680634,0,
00:05.6,0.002185822,0.002746582,0.004686356,0,
00:05.6,0.002145767,0.00274086,0.004692078,0,
00:05.6,0.002197266,0.002763748,0.004680634,0,
00:05.6,0.002271652,0.002780914,0.004646301,0,
00:05.6,0.002277374,0.00276947,0.004680634,0,
00:05.6,0.002260208,0.002758026,0.0046978,0,
00:05.6,0.002197266,0.002763748,0.004692078,0,
00:05.6,0.002225876,0.002758026,0.004692078,0,
00:05.7,0.002214432,0.00276947,0.004692078,0,
00:05.7,0.002202988,0.00276947,0.004692078,0,
00:05.7,0.002202988,0.00276947,0.004692078,0,
00:05.7,0.002162933,0.002763748,0.004703522,0,
00:05.7,0.002151489,0.002752304,0.004720688,0,
00:05.7,0.002271652,0.002758026,0.004709244,0,
00:05.7,0.00226593,0.002786636,0.004680634,0,
00:05.7,0.002180099,0.002780914,0.004692078,0,
00:05.7,0.002162933,0.002775192,0.004652023,0,
00:05.7,0.002231598,0.00276947,0.004652023,0,
00:05.7,0.002277374,0.002763748,0.004714966,0,
00:05.7,0.00220871,0.00276947,0.004680634,0,
00:05.7,0.002162933,0.002763748,0.004720688,0,
00:05.7,0.002197266,0.002775192,0.0046978,0,
00:05.7,0.00226593,0.002775192,0.004674911,0,
00:05.7,0.002254486,0.002758026,0.004732132,0,
00:05.7,0.002243042,0.00276947,0.004720688,0,
00:05.7,0.002260208,0.002786636,0.004714966,0,
00:05.7,0.002248764,0.002780914,0.004709244,0,
00:05.7,0.002197266,0.002780914,0.004709244,0,
00:05.7,0.002197266,0.002752304,0.004709244,0,
00:05.7,0.002197266,0.002746582,0.004732132,0,
00:05.7,0.002231598,0.002775192,0.004732132,0,
00:05.7,0.002231598,0.002775192,0.00472641,0,
00:05.7,0.002214432,0.00276947,0.004709244,0,
00:05.8,0.002197266,0.00276947,0.004709244,0,
00:05.8,0.002220154,0.002786636,0.00475502,0,
00:05.8,0.002243042,0.002786636,0.00472641,0,
00:05.8,0.002202988,0.002758026,0.004709244,0,
00:05.8,0.002185822,0.002763748,0.004737854,0,
00:05.8,0.00220871,0.00276947,0.004743576,0,
00:05.8,0.002225876,0.002775192,0.004709244,0,
00:05.8,0.00223732,0.002775192,0.004714966,0,
00:05.8,0.002225876,0.002775192,0.004720688,0,
00:05.8,0.002197266,0.002775192,0.004720688,0,
00:05.8,0.002225876,0.002763748,0.00472641,0,
00:05.8,0.002248764,0.002780914,0.004732132,0,
00:05.8,0.002214432,0.002758026,0.004732132,0,
00:05.8,0.002214432,0.002763748,0.004732132,0,
00:05.8,0.002260208,0.002792358,0.004732132,0,
00:05.8,0.002231598,0.002780914,0.004732132,0,
00:05.8,0.002243042,0.002780914,0.00475502,0,
00:05.8,0.002248764,0.002775192,0.004737854,0,
00:05.8,0.002214432,0.002780914,0.004749298,0,
00:05.8,0.002220154,0.002786636,0.00475502,0,
00:05.8,0.00223732,0.002780914,0.00472641,0,
00:05.8,0.002231598,0.002763748,0.004732132,0,
00:05.8,0.002225876,0.002758026,0.004743576,0,
00:05.8,0.002231598,0.00279808,0.00475502,0,
00:05.8,0.002243042,0.002809525,0.00475502,0,
00:05.9,0.002248764,0.002775192,0.004760742,0,
00:05.9,0.00223732,0.002775192,0.004749298,0,
00:05.9,0.00220871,0.002775192,0.004760742,0,
00:05.9,0.002191544,0.00276947,0.004737854,0,
00:05.9,0.002180099,0.002763748,0.004777908,0,
00:05.9,0.002151489,0.00276947,0.00478363,0,
00:05.9,0.002191544,0.002786636,0.004760742,0,
00:05.9,0.002191544,0.002780914,0.00475502,0,
00:05.9,0.002231598,0.00276947,0.004760742,0,
00:05.9,0.002300262,0.002786636,0.004743576,0,
00:05.9,0.002225876,0.002780914,0.00475502,0,
00:05.9,0.002191544,0.002763748,0.004777908,0,
00:05.9,0.002277374,0.002780914,0.00475502,0,
00:05.9,0.002260208,0.002792358,0.00478363,0,
00:05.9,0.002248764,0.002780914,0.00478363,0,
00:05.9,0.002254486,0.002775192,0.004777908,0,
00:05.9,0.00223732,0.00276947,0.004777908,0,
00:05.9,0.002254486,0.002792358,0.00478363,0,
00:05.9,0.002243042,0.002803802,0.00478363,0,
00:05.9,0.002220154,0.002780914,0.004760742,0,
00:05.9,0.002248764,0.002775192,0.004766464,0,
00:05.9,0.002248764,0.002780914,0.004772186,0,
00:05.9,0.002220154,0.002786636,0.00478363,0,
00:05.9,0.002225876,0.002803802,0.004806519,0,
00:05.9,0.002243042,0.002792358,0.004737854,0,
00:06.0,0.002243042,0.002780914,0.004760742,0,
00:06.0,0.002225876,0.00276947,0.004806519,0,
00:06.0,0.00223732,0.002786636,0.004789352,0,
00:06.0,0.00223732,0.002792358,0.004772186,0,
00:06.0,0.002231598,0.002786636,0.004772186,0,
00:06.0,0.002225876,0.00279808,0.004777908,0,
00:06.0,0.002231598,0.002803802,0.00478363,0,
00:06.0,0.002185822,0.002775192,0.004800797,0,
00:06.0,0.002145767,0.002763748,0.004823685,0,
00:06.0,0.002260208,0.002786636,0.004823685,0,
00:06.0,0.002202988,0.002792358,0.004800797,0,
00:06.0,0.002180099,0.002786636,0.004800797,0,
00:00:06,0.00223732,0.002780914,0.004806519,0,
00:06.0,0.002328873,0.002786636,0.004806519,0,
00:06.0,0.002271652,0.002786636,0.004800797,0,
00:06.0,0.002243042,0.002780914,0.004812241,0,
00:06.0,0.002254486,0.002803802,0.004812241,0,
00:06.0,0.002243042,0.002786636,0.004800797,0,
00:06.0,0.002243042,0.002786636,0.004806519,0,
00:06.0,0.002248764,0.00279808,0.00478363,0,
00:06.0,0.002254486,0.002780914,0.004812241,0,
00:06.0,0.002254486,0.002780914,0.004823685,0,
00:06.0,0.002260208,0.00279808,0.004812241,0,
00:06.0,0.002260208,0.00279808,0.004817963,0,
00:06.0,0.002243042,0.00279808,0.004817963,0,
00:06.1,0.002220154,0.00276947,0.004806519,0,
00:06.1,0.002214432,0.002792358,0.004817963,0,
00:06.1,0.002231598,0.002792358,0.004823685,0,
00:06.1,0.002248764,0.002792358,0.004835129,0,
00:06.1,0.002231598,0.002786636,0.004823685,0,
00:06.1,0.002254486,0.002786636,0.004852295,0,
00:06.1,0.002254486,0.00279808,0.004829407,0,
00:06.1,0.002225876,0.002792358,0.004806519,0,
00:06.1,0.002202988,0.002792358,0.004806519,0,
00:06.1,0.002168655,0.002780914,0.004829407,0,
00:06.1,0.002202988,0.002780914,0.004840851,0,
00:06.1,0.002248764,0.002786636,0.004817963,0,
00:06.1,0.002271652,0.002792358,0.004817963,0,
00:06.1,0.002277374,0.00279808,0.004846573,0,
00:06.1,0.002254486,0.00279808,0.004840851,0,
00:06.1,0.00220871,0.002786636,0.004835129,0,
00:06.1,0.002202988,0.002775192,0.004835129,0,
00:06.1,0.002260208,0.002786636,0.004823685,0,
00:06.1,0.002260208,0.002775192,0.004823685,0,
00:06.1,0.002277374,0.00279808,0.004840851,0,
00:06.1,0.00226593,0.00279808,0.004840851,0,
00:06.1,0.002254486,0.002803802,0.004835129,0,
00:06.1,0.002254486,0.00279808,0.004840851,0,
00:06.1,0.00226593,0.00279808,0.004846573,0,
00:06.1,0.002231598,0.00279808,0.004835129,0,
00:06.2,0.002231598,0.00279808,0.004846573,0,
00:06.2,0.002260208,0.002786636,0.004875183,0,
00:06.2,0.002260208,0.002803802,0.004846573,0,
00:06.2,0.00223732,0.002809525,0.004817963,0,
00:06.2,0.00223732,0.002803802,0.004817963,0,
00:06.2,0.002277374,0.00279808,0.004817963,0,
00:06.2,0.002260208,0.002786636,0.004886627,0,
00:06.2,0.002231598,0.002775192,0.004903793,0,
00:06.2,0.002243042,0.002792358,0.004852295,0,
00:06.2,0.002220154,0.00279808,0.004846573,0,
00:06.2,0.002225876,0.002786636,0.004858017,0,
00:06.2,0.002271652,0.002815247,0.004823685,0,
00:06.2,0.002271652,0.002803802,0.004863739,0,
00:06.2,0.002225876,0.002809525,0.004858017,0,
00:06.2,0.002174377,0.00279808,0.004846573,0,
00:06.2,0.002168655,0.002815247,0.004835129,0,
00:06.2,0.002254486,0.002809525,0.004852295,0,
00:06.2,0.002305984,0.002792358,0.004840851,0,
00:06.2,0.002260208,0.002786636,0.004903793,0,
00:06.2,0.002202988,0.002775192,0.004903793,0,
00:06.2,0.00229454,0.002803802,0.004835129,0,
00:06.2,0.002271652,0.002815247,0.004852295,0,
00:06.2,0.002220154,0.00279808,0.004863739,0,
00:06.2,0.002220154,0.002792358,0.004863739,0,
00:06.2,0.002254486,0.002792358,0.004875183,0,
00:06.3,0.002283096,0.002803802,0.004875183,0,
00:06.3,0.002248764,0.00279808,0.004875183,0,
00:06.3,0.002231598,0.002786636,0.004875183,0,
00:06.3,0.002254486,0.002792358,0.004858017,0,
00:06.3,0.002271652,0.002803802,0.004858017,0,
00:06.3,0.002277374,0.002792358,0.004858017,0,
00:06.3,0.002248764,0.00279808,0.004858017,0,
00:06.3,0.002254486,0.002803802,0.004840851,0,
00:06.3,0.002254486,0.002815247,0.004869461,0,
00:06.3,0.002254486,0.002792358,0.004863739,0,
00:06.3,0.002243042,0.002792358,0.004863739,0,
00:06.3,0.00223732,0.002809525,0.004880905,0,
00:06.3,0.002243042,0.002809525,0.004858017,0,
00:06.3,0.002243042,0.00279808,0.004875183,0,
00:06.3,0.002202988,0.002803802,0.004898071,0,
00:06.3,0.002174377,0.002792358,0.004886627,0,
00:06.3,0.002185822,0.00279808,0.004892349,0,
00:06.3,0.002191544,0.00279808,0.004892349,0,
00:06.3,0.002311707,0.002809525,0.004840851,0,
00:06.3,0.00223732,0.002786636,0.004875183,0,
00:06.3,0.00226593,0.002780914,0.004886627,0,
00:06.3,0.00229454,0.002792358,0.004858017,0,
00:06.3,0.002283096,0.002815247,0.004886627,0,
00:06.3,0.002214432,0.002803802,0.004915237,0,
00:06.3,0.002243042,0.002775192,0.004898071,0,
00:06.4,0.00226593,0.002803802,0.004858017,0,
00:06.4,0.002260208,0.002815247,0.004869461,0,
00:06.4,0.002271652,0.002792358,0.004875183,0,
00:06.4,0.002288818,0.00279808,0.004909515,0,
00:06.4,0.002260208,0.002809525,0.004863739,0,
00:06.4,0.002243042,0.002803802,0.004886627,0,
00:06.4,0.002260208,0.002803802,0.004880905,0,
00:06.4,0.002254486,0.002809525,0.004869461,0,
00:06.4,0.00226593,0.002815247,0.004898071,0,
00:06.4,0.002243042,0.002809525,0.004903793,0,
00:06.4,0.002214432,0.00279808,0.004909515,0,
00:06.4,0.002191544,0.00279808,0.004880905,0,
00:06.4,0.002185822,0.00279808,0.004869461,0,
00:06.4,0.002185822,0.002792358,0.004869461,0,
00:06.4,0.002248764,0.002792358,0.004880905,0,
00:06.4,0.002323151,0.002815247,0.004903793,0,
00:06.4,0.002283096,0.002803802,0.004875183,0,
00:06.4,0.002283096,0.002809525,0.004886627,0,
00:06.4,0.002243042,0.002803802,0.004880905,0,
00:06.4,0.002243042,0.00279808,0.004886627,0,
00:06.4,0.002254486,0.00279808,0.004886627,0,
00:06.4,0.002248764,0.002809525,0.004903793,0,
00:06.4,0.002271652,0.002820969,0.004875183,0,
00:06.4,0.002248764,0.002775192,0.004875183,0,
00:06.4,0.002260208,0.002786636,0.004909515,0,
00:06.5,0.002271652,0.002803802,0.004892349,0,
00:06.5,0.002260208,0.002809525,0.004886627,0,
00:06.5,0.002277374,0.002820969,0.004938126,0,
00:06.5,0.002277374,0.002820969,0.004858017,0,
00:06.5,0.002260208,0.002832413,0.004892349,0,
00:06.5,0.00223732,0.002803802,0.004892349,0,
00:06.5,0.002243042,0.00279808,0.004886627,0,
00:06.5,0.002231598,0.00279808,0.004875183,0,
00:06.5,0.002220154,0.002815247,0.004892349,0,
00:06.5,0.002168655,0.002809525,0.004898071,0,
00:06.5,0.002168655,0.00279808,0.004909515,0,
00:06.5,0.002225876,0.002786636,0.004903793,0,
00:06.5,0.002197266,0.002786636,0.004909515,0,
00:06.5,0.002214432,0.00279808,0.004880905,0,
00:06.5,0.002305984,0.002815247,0.004886627,0,
00:06.5,0.002340317,0.002820969,0.004915237,0,
00:06.5,0.002305984,0.002815247,0.004898071,0,
00:06.5,0.002283096,0.002809525,0.004920959,0,
00:06.5,0.00226593,0.002809525,0.004892349,0,
00:06.5,0.00223732,0.002809525,0.004903793,0,
00:06.5,0.002248764,0.002815247,0.004863739,0,
00:06.5,0.002271652,0.002803802,0.004875183,0,
00:06.5,0.00226593,0.002803802,0.004903793,0,
00:06.5,0.00226593,0.002809525,0.004943848,0,
00:06.5,0.002254486,0.002820969,0.004880905,0,
00:06.6,0.002271652,0.002820969,0.004898071,0,
00:06.6,0.002260208,0.002803802,0.004880905,0,
00:06.6,0.002231598,0.002803802,0.004880905,0,
00:06.6,0.002243042,0.002815247,0.004909515,0,
00:06.6,0.002254486,0.002803802,0.004880905,0,
00:06.6,0.002260208,0.002803802,0.004909515,0,
00:06.6,0.00226593,0.002820969,0.004915237,0,
00:06.6,0.002248764,0.002826691,0.004909515,0,
00:06.6,0.00223732,0.002815247,0.004898071,0,
00:06.6,0.002248764,0.002803802,0.004920959,0,
00:06.6,0.002202988,0.00279808,0.004903793,0,
00:06.6,0.002197266,0.002809525,0.004880905,0,
00:06.6,0.00223732,0.002809525,0.004926682,0,
00:06.6,0.002311707,0.002820969,0.004938126,0,
00:06.6,0.002243042,0.002815247,0.004915237,0,
00:06.6,0.002185822,0.002786636,0.004898071,0,
00:06.6,0.002231598,0.00279808,0.004909515,0,
00:06.6,0.002283096,0.002792358,0.004909515,0,
00:06.6,0.002300262,0.002820969,0.004892349,0,
00:06.6,0.002271652,0.002826691,0.004880905,0,
00:06.6,0.002254486,0.002820969,0.004903793,0,
00:06.6,0.002260208,0.002809525,0.004938126,0,
00:06.6,0.002243042,0.002815247,0.004892349,0,
00:06.6,0.002260208,0.002815247,0.004886627,0,
00:06.6,0.002271652,0.002809525,0.004875183,0,
00:06.7,0.00226593,0.002820969,0.004886627,0,
00:06.7,0.002248764,0.002815247,0.004915237,0,
00:06.7,0.002260208,0.002815247,0.004920959,0,
00:06.7,0.00226593,0.002809525,0.004920959,0,
00:06.7,0.002277374,0.002820969,0.004915237,0,
00:06.7,0.002254486,0.002820969,0.004898071,0,
00:06.7,0.00223732,0.002809525,0.004898071,0,
00:06.7,0.002248764,0.002815247,0.004903793,0,
00:06.7,0.002254486,0.002815247,0.004903793,0,
00:06.7,0.00223732,0.002815247,0.004898071,0,
00:06.7,0.002248764,0.002815247,0.004938126,0,
00:06.7,0.002248764,0.002809525,0.004920959,0,
00:06.7,0.002248764,0.002820969,0.004892349,0,
00:06.7,0.002248764,0.002803802,0.004880905,0,
00:06.7,0.002271652,0.00279808,0.004938126,0,
00:06.7,0.002260208,0.002809525,0.004938126,0,
00:06.7,0.002191544,0.002820969,0.004915237,0,
00:06.7,0.002128601,0.00279808,0.004875183,0,
00:06.7,0.002260208,0.002803802,0.004903793,0,
00:06.7,0.002340317,0.002826691,0.004938126,0,
00:06.7,0.002317429,0.002826691,0.004920959,0,
00:06.7,0.002288818,0.002820969,0.004892349,0,
00:06.7,0.002231598,0.002815247,0.004926682,0,
00:06.7,0.002231598,0.002809525,0.004920959,0,
00:06.7,0.002260208,0.002803802,0.004932404,0,
00:06.8,0.002243042,0.002809525,0.004915237,0,
00:06.8,0.002254486,0.002815247,0.004909515,0,
00:06.8,0.002277374,0.002820969,0.004898071,0,
00:06.8,0.002283096,0.002803802,0.004886627,0,
00:06.8,0.002260208,0.002809525,0.004932404,0,
00:06.8,0.002243042,0.002820969,0.004915237,0,
00:06.8,0.002254486,0.002803802,0.004915237,0,
00:06.8,0.002260208,0.002809525,0.004926682,0,
00:06.8,0.002254486,0.002815247,0.004898071,0,
00:06.8,0.002254486,0.002815247,0.004903793,0,
00:06.8,0.002243042,0.002815247,0.004898071,0,
00:06.8,0.002225876,0.002815247,0.004909515,0,
00:06.8,0.002243042,0.002820969,0.004915237,0,
00:06.8,0.002243042,0.002815247,0.004932404,0,
00:06.8,0.002283096,0.002820969,0.004926682,0,
00:06.8,0.002248764,0.002815247,0.004915237,0,
00:06.8,0.002185822,0.002815247,0.004943848,0,
00:06.8,0.002248764,0.002815247,0.004938126,0,
00:06.8,0.002260208,0.002803802,0.004926682,0,
00:06.8,0.002214432,0.002803802,0.004903793,0,
00:06.8,0.002185822,0.002820969,0.004898071,0,
00:06.8,0.002300262,0.002809525,0.004892349,0,
00:06.8,0.002260208,0.002815247,0.004932404,0,
00:06.8,0.002248764,0.00279808,0.00494957,0,
00:06.8,0.002248764,0.002803802,0.004926682,0,
00:06.9,0.002277374,0.002809525,0.004920959,0,
00:06.9,0.002288818,0.002826691,0.004903793,0,
00:06.9,0.002271652,0.002820969,0.004920959,0,
00:06.9,0.002277374,0.002815247,0.004920959,0,
00:06.9,0.002254486,0.002803802,0.004926682,0,
00:06.9,0.002231598,0.002815247,0.004926682,0,
00:06.9,0.00223732,0.002815247,0.004920959,0,
00:06.9,0.002271652,0.002815247,0.004915237,0,
00:06.9,0.002271652,0.002820969,0.004892349,0,
00:06.9,0.002243042,0.002809525,0.004926682,0,
00:06.9,0.002260208,0.002809525,0.004909515,0,
00:06.9,0.002254486,0.002809525,0.004880905,0,
00:06.9,0.00223732,0.002809525,0.00494957,0,
00:06.9,0.002243042,0.002832413,0.004938126,0,
00:06.9,0.002254486,0.002815247,0.004938126,0,
00:06.9,0.002243042,0.002803802,0.004955292,0,
00:06.9,0.002243042,0.002809525,0.004909515,0,
00:06.9,0.002243042,0.002820969,0.004915237,0,
00:06.9,0.002225876,0.002820969,0.004903793,0,
00:06.9,0.002231598,0.002809525,0.004926682,0,
00:06.9,0.002300262,0.002820969,0.004943848,0,
00:06.9,0.002243042,0.002809525,0.004920959,0,
00:06.9,0.002168655,0.002809525,0.004932404,0,
00:06.9,0.002243042,0.002820969,0.004915237,0,
00:06.9,0.00229454,0.00279808,0.004886627,0,
00:07.0,0.00226593,0.002809525,0.004909515,0,
00:07.0,0.002271652,0.002832413,0.004915237,0,
00:07.0,0.002231598,0.002803802,0.004909515,0,
00:07.0,0.002248764,0.00279808,0.004915237,0,
00:07.0,0.002277374,0.002809525,0.004920959,0,
00:07.0,0.002277374,0.002826691,0.004938126,0,
00:07.0,0.002254486,0.002815247,0.004938126,0,
00:07.0,0.00223732,0.002809525,0.004926682,0,
00:07.0,0.002248764,0.002809525,0.004892349,0,
00:07.0,0.002254486,0.002815247,0.004915237,0,
00:07.0,0.00226593,0.002820969,0.004938126,0,
00:07.0,0.00226593,0.002809525,0.004926682,0,
00:00:07,0.002248764,0.002803802,0.004926682,0,
00:07.0,0.002248764,0.002820969,0.004932404,0,
00:07.0,0.002220154,0.002826691,0.004898071,0,
00:07.0,0.002197266,0.00279808,0.004898071,0,
00:07.0,0.002248764,0.002809525,0.00494957,0,
00:07.0,0.002220154,0.002815247,0.004926682,0,
00:07.0,0.00226593,0.002815247,0.004903793,0,
00:07.0,0.002283096,0.002809525,0.004909515,0,
00:07.0,0.00229454,0.002809525,0.004915237,0,
00:07.0,0.002260208,0.002809525,0.004915237,0,
00:07.0,0.002260208,0.002815247,0.004915237,0,
00:07.0,0.00226593,0.002809525,0.004909515,0,
00:07.0,0.002225876,0.00279808,0.004920959,0,
00:07.1,0.002220154,0.002815247,0.004903793,0,
00:07.1,0.002260208,0.002832413,0.004886627,0,
00:07.1,0.002248764,0.002815247,0.004909515,0,
00:07.1,0.002243042,0.002803802,0.004926682,0,
00:07.1,0.002254486,0.002820969,0.004920959,0,
00:07.1,0.00220871,0.002826691,0.00494957,0,
00:07.1,0.002225876,0.00279808,0.004903793,0,
00:07.1,0.002271652,0.002803802,0.004920959,0,
00:07.1,0.002254486,0.002820969,0.004909515,0,
00:07.1,0.002271652,0.002826691,0.004909515,0,
00:07.1,0.00226593,0.002815247,0.004909515,0,
00:07.1,0.002260208,0.002803802,0.004943848,0,
00:07.1,0.00223732,0.00279808,0.004920959,0,
00:07.1,0.002202988,0.00279808,0.004903793,0,
00:07.1,0.00226593,0.00279808,0.004909515,0,
00:07.1,0.002271652,0.002820969,0.004915237,0,
00:07.1,0.002248764,0.002820969,0.004926682,0,
00:07.1,0.002248764,0.002815247,0.004920959,0,
00:07.1,0.002260208,0.002815247,0.004909515,0,
00:07.1,0.00223732,0.00279808,0.004915237,0,
00:07.1,0.00220871,0.00279808,0.004909515,0,
00:07.1,0.002191544,0.002815247,0.004892349,0,
00:07.1,0.002277374,0.002815247,0.004875183,0,
00:07.1,0.002260208,0.002820969,0.004886627,0,
00:07.1,0.002220154,0.002809525,0.004932404,0,
00:07.2,0.002248764,0.002820969,0.004926682,0,
00:07.2,0.002243042,0.00279808,0.004920959,0,
00:07.2,0.00226593,0.002786636,0.004909515,0,
00:07.2,0.002271652,0.002809525,0.004920959,0,
00:07.2,0.002260208,0.002815247,0.004886627,0,
00:07.2,0.002271652,0.002815247,0.004909515,0,
00:07.2,0.002231598,0.002803802,0.004920959,0,
00:07.2,0.002225876,0.002792358,0.004909515,0,
00:07.2,0.002214432,0.00279808,0.004898071,0,
00:07.2,0.00220871,0.002803802,0.004892349,0,
00:07.2,0.002243042,0.002815247,0.004898071,0,
00:07.2,0.002254486,0.002809525,0.004932404,0,
00:07.2,0.002248764,0.002815247,0.004898071,0,
00:07.2,0.002271652,0.002809525,0.004886627,0,
00:07.2,0.00226593,0.002809525,0.004898071,0,
00:07.2,0.002277374,0.002826691,0.004886627,0,
00:07.2,0.002243042,0.002815247,0.004875183,0,
00:07.2,0.002254486,0.002809525,0.004875183,0,
00:07.2,0.002248764,0.00279808,0.004898071,0,
00:07.2,0.002254486,0.002809525,0.004932404,0,
00:07.2,0.00229454,0.002815247,0.004903793,0,
00:07.2,0.002277374,0.002803802,0.004880905,0,
00:07.2,0.002220154,0.002803802,0.004903793,0,
00:07.2,0.002231598,0.002803802,0.004892349,0,
00:07.2,0.002231598,0.002803802,0.004892349,0,
00:07.3,0.002231598,0.002809525,0.004886627,0,
00:07.3,0.00223732,0.002803802,0.004903793,0,
00:07.3,0.002243042,0.002803802,0.004903793,0,
00:07.3,0.002225876,0.00279808,0.004903793,0,
00:07.3,0.00220871,0.00279808,0.004915237,0,
00:07.3,0.002260208,0.002815247,0.004880905,0,
00:07.3,0.002243042,0.002803802,0.004875183,0,
00:07.3,0.00223732,0.002803802,0.004886627,0,
00:07.3,0.002254486,0.002803802,0.004886627,0,
00:07.3,0.002248764,0.002803802,0.004875183,0,
00:07.3,0.00223732,0.002792358,0.004926682,0,
00:07.3,0.002248764,0.002809525,0.004875183,0,
00:07.3,0.00226593,0.002826691,0.004875183,0,
00:07.3,0.002248764,0.002815247,0.004875183,0,
00:07.3,0.002225876,0.00279808,0.004863739,0,
00:07.3,0.00223732,0.002780914,0.004892349,0,
00:07.3,0.002248764,0.002803802,0.004869461,0,
00:07.3,0.002225876,0.002815247,0.004880905,0,
00:07.3,0.002225876,0.002809525,0.004909515,0,
00:07.3,0.002214432,0.002809525,0.004880905,0,
00:07.3,0.002122879,0.002786636,0.004869461,0,
00:07.3,0.002202988,0.002775192,0.004898071,0,
00:07.3,0.002300262,0.002803802,0.004869461,0,
00:07.3,0.002197266,0.002792358,0.004869461,0,
00:07.3,0.00220871,0.00279808,0.004903793,0,
00:07.4,0.002277374,0.002809525,0.004898071,0,
00:07.4,0.002231598,0.002815247,0.004903793,0,
00:07.4,0.002305984,0.002820969,0.004875183,0,
00:07.4,0.002220154,0.002792358,0.004863739,0,
00:07.4,0.002168655,0.002763748,0.004915237,0,
00:07.4,0.002317429,0.002826691,0.004886627,0,
00:07.4,0.00229454,0.002838135,0.004840851,0,
00:07.4,0.002254486,0.00279808,0.004875183,0,
00:07.4,0.002254486,0.002792358,0.004869461,0,
00:07.4,0.002248764,0.00279808,0.004880905,0,
00:07.4,0.002260208,0.002803802,0.004898071,0,
00:07.4,0.002254486,0.002815247,0.004898071,0,
00:07.4,0.002243042,0.002815247,0.004898071,0,
00:07.4,0.002214432,0.002803802,0.004806519,0,
00:07.4,0.002185822,0.002786636,0.004863739,0,
00:07.4,0.002214432,0.002809525,0.004903793,0,
00:07.4,0.002271652,0.002809525,0.004858017,0,
00:07.4,0.00226593,0.00279808,0.004875183,0,
00:07.4,0.002254486,0.002809525,0.004880905,0,
00:07.4,0.002197266,0.002803802,0.004869461,0,
00:07.4,0.002185822,0.002820969,0.004852295,0,
00:07.4,0.002220154,0.00279808,0.004869461,0,
00:07.4,0.002243042,0.00279808,0.004909515,0,
00:07.4,0.00226593,0.002786636,0.004880905,0,
00:07.4,0.002254486,0.002792358,0.004880905,0,
00:07.5,0.00223732,0.002792358,0.004880905,0,
00:07.5,0.002225876,0.002786636,0.004886627,0,
00:07.5,0.002248764,0.002792358,0.004892349,0,
00:07.5,0.002254486,0.00279808,0.004875183,0,
00:07.5,0.00223732,0.002809525,0.004863739,0,
00:07.5,0.002243042,0.002815247,0.004852295,0,
00:07.5,0.00223732,0.002803802,0.004835129,0,
00:07.5,0.002243042,0.002792358,0.004835129,0,
00:07.5,0.002243042,0.00279808,0.004875183,0,
00:07.5,0.00220871,0.00279808,0.004892349,0,
00:07.5,0.002248764,0.00279808,0.004892349,0,
00:07.5,0.002277374,0.00279808,0.004875183,0,
00:07.5,0.002254486,0.002803802,0.004852295,0,
00:07.5,0.002243042,0.002809525,0.004846573,0,
00:07.5,0.00220871,0.002792358,0.004852295,0,
00:07.5,0.002157211,0.002786636,0.004886627,0,
00:07.5,0.002197266,0.00279808,0.004869461,0,
00:07.5,0.002243042,0.00279808,0.004846573,0,
00:07.5,0.00226593,0.00279808,0.004858017,0,
00:07.5,0.002260208,0.002803802,0.004880905,0,
00:07.5,0.00223732,0.002792358,0.004880905,0,
00:07.5,0.002214432,0.002792358,0.004846573,0,
00:07.5,0.002202988,0.002780914,0.004846573,0,
00:07.5,0.002197266,0.002780914,0.004886627,0,
00:07.5,0.002260208,0.002809525,0.004915237,0,
00:07.6,0.00226593,0.002803802,0.004852295,0,
00:07.6,0.002260208,0.00279808,0.004835129,0,
00:07.6,0.002248764,0.002780914,0.004869461,0,
00:07.6,0.002243042,0.002792358,0.004846573,0,
00:07.6,0.002243042,0.002809525,0.004858017,0,
00:07.6,0.002254486,0.002815247,0.004840851,0,
00:07.6,0.002243042,0.00279808,0.004817963,0,
00:07.6,0.00223732,0.002792358,0.004863739,0,
00:07.6,0.002225876,0.00279808,0.004852295,0,
00:07.6,0.00220871,0.002786636,0.004858017,0,
00:07.6,0.00223732,0.002780914,0.004875183,0,
00:07.6,0.00220871,0.002792358,0.004875183,0,
00:07.6,0.00223732,0.002792358,0.004869461,0,
00:07.6,0.002248764,0.002792358,0.004863739,0,
00:07.6,0.002225876,0.002792358,0.004863739,0,
00:07.6,0.00223732,0.002809525,0.004846573,0,
00:07.6,0.002248764,0.002803802,0.004846573,0,
00:07.6,0.002231598,0.002792358,0.004846573,0,
00:07.6,0.002225876,0.002803802,0.004852295,0,
00:07.6,0.002225876,0.002786636,0.004846573,0,
00:07.6,0.002248764,0.002786636,0.004840851,0,
00:07.6,0.002225876,0.002792358,0.004852295,0,
00:07.6,0.002122879,0.00276947,0.004863739,0,
00:07.6,0.002157211,0.00276947,0.004875183,0,
00:07.6,0.002305984,0.002803802,0.004858017,0,
00:07.7,0.002254486,0.002803802,0.004840851,0,
00:07.7,0.002231598,0.002792358,0.004840851,0,
00:07.7,0.002231598,0.00279808,0.004846573,0,
00:07.7,0.00223732,0.002786636,0.004880905,0,
00:07.7,0.00223732,0.002775192,0.004835129,0,
00:07.7,0.00220871,0.002792358,0.004852295,0,
00:07.7,0.002248764,0.002792358,0.004875183,0,
00:07.7,0.002231598,0.002792358,0.004840851,0,
00:07.7,0.00223732,0.00279808,0.004829407,0,
00:07.7,0.002277374,0.002815247,0.004852295,0,
00:07.7,0.002243042,0.002792358,0.004835129,0,
00:07.7,0.002225876,0.002786636,0.004863739,0,
00:07.7,0.002225876,0.002780914,0.004858017,0,
00:07.7,0.00220871,0.002775192,0.004858017,0,
00:07.7,0.002202988,0.002803802,0.004858017,0,
00:07.7,0.002191544,0.002809525,0.004835129,0,
00:07.7,0.002254486,0.002780914,0.004840851,0,
00:07.7,0.002202988,0.002792358,0.004852295,0,
00:07.7,0.002185822,0.002786636,0.004880905,0,
00:07.7,0.002277374,0.002792358,0.004846573,0,
00:07.7,0.002248764,0.00279808,0.004863739,0,
00:07.7,0.002243042,0.00279808,0.004863739,0,
00:07.7,0.002231598,0.002786636,0.004840851,0,
00:07.7,0.00223732,0.002792358,0.004858017,0,
00:07.7,0.002174377,0.002792358,0.004886627,0,
00:07.8,0.002151489,0.002780914,0.004863739,0,
00:07.8,0.002214432,0.002792358,0.004823685,0,
00:07.8,0.002168655,0.002792358,0.004858017,0,
00:07.8,0.002260208,0.002780914,0.004858017,0,
00:07.8,0.002300262,0.002792358,0.004863739,0,
00:07.8,0.002254486,0.002792358,0.004840851,0,
00:07.8,0.002254486,0.002786636,0.004852295,0,
00:07.8,0.002243042,0.002775192,0.004875183,0,
00:07.8,0.00223732,0.002786636,0.004806519,0,
00:07.8,0.002243042,0.00279808,0.004823685,0,
00:07.8,0.002214432,0.00279808,0.004846573,0,
00:07.8,0.002225876,0.002780914,0.004863739,0,
00:07.8,0.002231598,0.002780914,0.004869461,0,
00:07.8,0.002220154,0.002786636,0.004869461,0,
00:07.8,0.002225876,0.002786636,0.004835129,0,
00:07.8,0.00223732,0.002786636,0.004840851,0,
00:07.8,0.002231598,0.00279808,0.004846573,0,
00:07.8,0.002225876,0.002786636,0.004852295,0,
00:07.8,0.002225876,0.002780914,0.004858017,0,
00:07.8,0.002220154,0.002786636,0.004846573,0,
00:07.8,0.002231598,0.00279808,0.004852295,0,
00:07.8,0.002214432,0.002786636,0.004852295,0,
00:07.8,0.002191544,0.002775192,0.004846573,0,
00:07.8,0.00223732,0.002780914,0.004852295,0,
00:07.8,0.002271652,0.00279808,0.004852295,0,
00:07.9,0.002254486,0.00279808,0.004852295,0,
00:07.9,0.002220154,0.00279808,0.004886627,0,
00:07.9,0.002214432,0.002786636,0.004829407,0,
00:07.9,0.002220154,0.00279808,0.004835129,0,
00:07.9,0.002214432,0.002803802,0.004840851,0,
00:07.9,0.002197266,0.002786636,0.004846573,0,
00:07.9,0.002214432,0.002775192,0.004852295,0,
00:07.9,0.002185822,0.00276947,0.004875183,0,
00:07.9,0.002191544,0.00276947,0.004880905,0,
00:07.9,0.002191544,0.002792358,0.004852295,0,
00:07.9,0.00223732,0.002792358,0.004846573,0,
00:07.9,0.002243042,0.002792358,0.004852295,0,
00:07.9,0.002260208,0.002786636,0.004846573,0,
00:07.9,0.002214432,0.00276947,0.004852295,0,
00:07.9,0.002243042,0.002780914,0.004875183,0,
00:07.9,0.002254486,0.002792358,0.004858017,0,
00:07.9,0.00220871,0.002792358,0.004835129,0,
00:07.9,0.002243042,0.002780914,0.004800797,0,
00:07.9,0.00223732,0.002775192,0.004880905,0,
00:07.9,0.002248764,0.002786636,0.004875183,0,
00:07.9,0.002225876,0.002792358,0.004863739,0,
00:07.9,0.002231598,0.002792358,0.004858017,0,
00:07.9,0.00223732,0.00279808,0.004852295,0,
00:07.9,0.00223732,0.00279808,0.004852295,0,
00:07.9,0.002231598,0.002792358,0.004858017,0,
00:08.0,0.002225876,0.002775192,0.004852295,0,
00:08.0,0.002231598,0.002786636,0.004852295,0,
00:08.0,0.00220871,0.002786636,0.004858017,0,
00:08.0,0.002202988,0.002786636,0.004863739,0,
00:08.0,0.002214432,0.002792358,0.004869461,0,
00:08.0,0.002202988,0.002780914,0.004858017,0,
00:08.0,0.002168655,0.002775192,0.004858017,0,
00:08.0,0.002225876,0.002775192,0.004835129,0,
00:08.0,0.002300262,0.002786636,0.004840851,0,
00:08.0,0.002202988,0.002803802,0.004863739,0,
00:08.0,0.002180099,0.002775192,0.004880905,0,
00:08.0,0.002243042,0.002775192,0.004892349,0,
00:00:08,0.002214432,0.002780914,0.004875183,0,
00:08.0,0.002214432,0.002780914,0.004823685,0,
00:08.0,0.002260208,0.002792358,0.004835129,0,
00:08.0,0.002243042,0.00279808,0.004852295,0,
00:08.0,0.002260208,0.00279808,0.004863739,0,
00:08.0,0.00223732,0.002786636,0.004869461,0,
00:08.0,0.002214432,0.00276947,0.004880905,0,
00:08.0,0.002231598,0.00276947,0.004880905,0,
00:08.0,0.002243042,0.002792358,0.004869461,0,
00:08.0,0.00223732,0.002809525,0.004863739,0,
00:08.0,0.002243042,0.00279808,0.004869461,0,
00:08.0,0.00223732,0.002792358,0.004858017,0,
00:08.0,0.002220154,0.002780914,0.004863739,0,
00:08.1,0.002225876,0.002775192,0.004886627,0,
00:08.1,0.002231598,0.002792358,0.004863739,0,
00:08.1,0.002214432,0.002780914,0.004846573,0,
00:08.1,0.002202988,0.00276947,0.004892349,0,
00:08.1,0.002202988,0.00276947,0.004863739,0,
00:08.1,0.002174377,0.002775192,0.004892349,0,
00:08.1,0.00226593,0.002792358,0.004863739,0,
00:08.1,0.00223732,0.002775192,0.004852295,0,
00:08.1,0.00220871,0.002780914,0.004852295,0,
00:08.1,0.002225876,0.002786636,0.004886627,0,
00:08.1,0.002191544,0.002775192,0.004875183,0,
00:08.1,0.00220871,0.002786636,0.004858017,0,
00:08.1,0.002122879,0.00276947,0.004869461,0,
00:08.1,0.002225876,0.002775192,0.004880905,0,
00:08.1,0.002311707,0.002803802,0.004880905,0,
00:08.1,0.00223732,0.002792358,0.004858017,0,
00:08.1,0.002220154,0.002786636,0.004858017,0,
00:08.1,0.002248764,0.002786636,0.004852295,0,
00:08.1,0.002248764,0.00279808,0.004880905,0,
00:08.1,0.00223732,0.002792358,0.004869461,0,
00:08.1,0.002231598,0.002792358,0.004875183,0,
00:08.1,0.002231598,0.002786636,0.004869461,0,
00:08.1,0.002231598,0.00276947,0.004869461,0,
00:08.1,0.002231598,0.002780914,0.004869461,0,
00:08.1,0.002220154,0.002786636,0.004880905,0,
00:08.2,0.00220871,0.002786636,0.004898071,0,
00:08.2,0.002225876,0.002786636,0.004846573,0,
00:08.2,0.002243042,0.002775192,0.004869461,0,
00:08.2,0.002220154,0.002786636,0.004880905,0,
00:08.2,0.002225876,0.002786636,0.004898071,0,
00:08.2,0.002243042,0.002786636,0.004903793,0,
00:08.2,0.002225876,0.002792358,0.004875183,0,
00:08.2,0.00220871,0.002786636,0.004880905,0,
00:08.2,0.002185822,0.002792358,0.004875183,0,
00:08.2,0.002145767,0.002775192,0.004903793,0,
00:08.2,0.00223732,0.00279808,0.004863739,0,
00:08.2,0.002260208,0.00279808,0.004852295,0,
00:08.2,0.002271652,0.00276947,0.004892349,0,
00:08.2,0.002243042,0.002758026,0.004869461,0,
00:08.2,0.002231598,0.002792358,0.004852295,0,
00:08.2,0.002191544,0.002809525,0.004880905,0,
00:08.2,0.002174377,0.002780914,0.004903793,0,
00:08.2,0.002191544,0.002786636,0.004903793,0,
00:08.2,0.00220871,0.002786636,0.004892349,0,
00:08.2,0.002214432,0.002792358,0.004886627,0,
00:08.2,0.002202988,0.00279808,0.004880905,0,
00:08.2,0.00220871,0.002786636,0.004880905,0,
00:08.2,0.002277374,0.00279808,0.004880905,0,
00:08.2,0.002254486,0.002792358,0.004863739,0,
00:08.2,0.002231598,0.002792358,0.004903793,0,
00:08.3,0.002214432,0.002792358,0.004898071,0,
00:08.3,0.002231598,0.002786636,0.004909515,0,
00:08.3,0.002231598,0.002786636,0.004886627,0,
00:08.3,0.002225876,0.002786636,0.004858017,0,
00:08.3,0.002225876,0.002786636,0.004898071,0,
00:08.3,0.002231598,0.002786636,0.004898071,0,
00:08.3,0.002254486,0.002803802,0.004898071,0,
00:08.3,0.002220154,0.002780914,0.004869461,0,
00:08.3,0.002220154,0.002780914,0.004898071,0,
00:08.3,0.00220871,0.002792358,0.004903793,0,
00:08.3,0.002214432,0.002792358,0.004909515,0,
00:08.3,0.002225876,0.002792358,0.004909515,0,
00:08.3,0.002220154,0.002786636,0.004915237,0,
00:08.3,0.002220154,0.002792358,0.004880905,0,
00:08.3,0.002220154,0.00279808,0.004915237,0,
00:08.3,0.002197266,0.002786636,0.004886627,0,
00:08.3,0.002214432,0.002786636,0.004915237,0,
00:08.3,0.002231598,0.002792358,0.004892349,0,
00:08.3,0.002191544,0.002792358,0.004892349,0,
00:08.3,0.002157211,0.002792358,0.004932404,0,
00:08.3,0.002157211,0.002775192,0.004898071,0,
00:08.3,0.002248764,0.002780914,0.004863739,0,
00:08.3,0.002260208,0.002792358,0.004898071,0,
00:08.3,0.002214432,0.00279808,0.004903793,0,
00:08.3,0.00223732,0.002780914,0.004898071,0,
00:08.4,0.002231598,0.002792358,0.004926682,0,
00:08.4,0.00223732,0.002803802,0.004909515,0,
00:08.4,0.002231598,0.002792358,0.004915237,0,
00:08.4,0.002231598,0.002792358,0.004920959,0,
00:08.4,0.002220154,0.002792358,0.004915237,0,
00:08.4,0.002214432,0.002786636,0.004926682,0,
00:08.4,0.002197266,0.002786636,0.004898071,0,
00:08.4,0.002162933,0.00276947,0.004915237,0,
00:08.4,0.002248764,0.002780914,0.004903793,0,
00:08.4,0.002271652,0.00279808,0.004909515,0,
00:08.4,0.002231598,0.002809525,0.004926682,0,
00:08.4,0.00220871,0.002792358,0.004915237,0,
00:08.4,0.002202988,0.002786636,0.004915237,0,
00:08.4,0.002180099,0.002792358,0.004915237,0,
00:08.4,0.002220154,0.002792358,0.004915237,0,
00:08.4,0.002248764,0.002803802,0.004903793,0,
00:08.4,0.002231598,0.00279808,0.004898071,0,
00:08.4,0.002220154,0.00279808,0.004909515,0,
00:08.4,0.002197266,0.00279808,0.004932404,0,
00:08.4,0.002174377,0.002792358,0.004972458,0,
00:08.4,0.002214432,0.002780914,0.004943848,0,
00:08.4,0.002185822,0.002780914,0.004903793,0,
00:08.4,0.002162933,0.002786636,0.004915237,0,
00:08.4,0.002243042,0.002809525,0.004898071,0,
00:08.4,0.00223732,0.00279808,0.004909515,0,
00:08.5,0.002248764,0.00279808,0.004932404,0,
00:08.5,0.002214432,0.002792358,0.004938126,0,
00:08.5,0.002225876,0.00279808,0.004920959,0,
00:08.5,0.002214432,0.002792358,0.004932404,0,
00:08.5,0.002202988,0.00279808,0.004955292,0,
00:08.5,0.002231598,0.002792358,0.004932404,0,
00:08.5,0.002225876,0.002786636,0.004915237,0,
00:08.5,0.002231598,0.002786636,0.004926682,0,
00:08.5,0.002220154,0.002792358,0.004938126,0,
00:08.5,0.002220154,0.002792358,0.004932404,0,
00:08.5,0.002225876,0.00279808,0.004943848,0,
00:08.5,0.002214432,0.002803802,0.004926682,0,
00:08.5,0.00220871,0.002792358,0.004926682,0,
00:08.5,0.002231598,0.002792358,0.004926682,0,
00:08.5,0.002220154,0.00279808,0.004932404,0,
00:08.5,0.002214432,0.002803802,0.004938126,0,
00:08.5,0.002220154,0.002803802,0.004926682,0,
00:08.5,0.00220871,0.002803802,0.004909515,0,
00:08.5,0.002191544,0.002786636,0.004943848,0,
00:08.5,0.002168655,0.002780914,0.00494957,0,
00:08.5,0.002197266,0.00279808,0.004943848,0,
00:08.5,0.00223732,0.00279808,0.004943848,0,
00:08.5,0.002180099,0.002815247,0.004943848,0,
00:08.5,0.002082825,0.002786636,0.004943848,0,
00:08.5,0.002197266,0.002780914,0.004938126,0,
00:08.6,0.002260208,0.002809525,0.004943848,0,
00:08.6,0.002283096,0.002815247,0.004920959,0,
00:08.6,0.00226593,0.002815247,0.004898071,0,
00:08.6,0.002260208,0.002803802,0.004943848,0,
00:08.6,0.002243042,0.002803802,0.004961014,0,
00:08.6,0.002220154,0.002792358,0.004943848,0,
00:08.6,0.00220871,0.002792358,0.004938126,0,
00:08.6,0.00223732,0.002826691,0.004961014,0,
00:08.6,0.002225876,0.002815247,0.004955292,0,
00:08.6,0.002220154,0.00279808,0.004961014,0,
00:08.6,0.002214432,0.002809525,0.004955292,0,
00:08.6,0.00220871,0.002809525,0.00494957,0,
00:08.6,0.00220871,0.00279808,0.004938126,0,
00:08.6,0.002231598,0.002820969,0.004943848,0,
00:08.6,0.002225876,0.002815247,0.004955292,0,
00:08.6,0.002220154,0.002803802,0.004966736,0,
00:08.6,0.002220154,0.002815247,0.004932404,0,
00:08.6,0.002214432,0.002815247,0.004926682,0,
00:08.6,0.002214432,0.002803802,0.004943848,0,
00:08.6,0.002185822,0.002792358,0.004943848,0,
00:08.6,0.002157211,0.002792358,0.004966736,0,
00:08.6,0.002197266,0.002809525,0.004966736,0,
00:08.6,0.002220154,0.002803802,0.004955292,0,
00:08.6,0.00223732,0.002792358,0.004961014,0,
00:08.6,0.002197266,0.002826691,0.004966736,0,
00:08.7,0.002162933,0.002803802,0.004966736,0,
00:08.7,0.002220154,0.002809525,0.004972458,0,
00:08.7,0.002271652,0.002815247,0.00494957,0,
00:08.7,0.002300262,0.002832413,0.004955292,0,
00:08.7,0.002225876,0.002826691,0.004943848,0,
00:08.7,0.002225876,0.002815247,0.004938126,0,
00:08.7,0.002225876,0.002815247,0.004955292,0,
00:08.7,0.002185822,0.002815247,0.00494957,0,
00:08.7,0.002225876,0.002815247,0.004972458,0,
00:08.7,0.002243042,0.00279808,0.00494957,0,
00:08.7,0.002225876,0.002809525,0.004932404,0,
00:08.7,0.002220154,0.002809525,0.004972458,0,
00:08.7,0.002231598,0.002820969,0.004972458,0,
00:08.7,0.00223732,0.002820969,0.004961014,0,
00:08.7,0.002225876,0.002820969,0.004961014,0,
00:08.7,0.002220154,0.002815247,0.004972458,0,
00:08.7,0.002220154,0.002815247,0.00497818,0,
00:08.7,0.002225876,0.002815247,0.004972458,0,
00:08.7,0.002231598,0.002815247,0.004989624,0,
00:08.7,0.002225876,0.002820969,0.00497818,0,
00:08.7,0.002220154,0.002815247,0.004961014,0,
00:08.7,0.002231598,0.002815247,0.004943848,0,
00:08.7,0.002225876,0.002815247,0.004955292,0,
00:08.7,0.002185822,0.002815247,0.004955292,0,
00:08.7,0.002140045,0.002815247,0.004961014,0,
00:08.8,0.002248764,0.002815247,0.00494957,0,
00:08.8,0.002197266,0.002815247,0.00497818,0,
00:08.8,0.002180099,0.002809525,0.004966736,0,
00:08.8,0.00220871,0.002815247,0.004961014,0,
00:08.8,0.002174377,0.002815247,0.00497818,0,
00:08.8,0.002271652,0.002832413,0.004966736,0,
00:08.8,0.00229454,0.002826691,0.004983902,0,
00:08.8,0.002254486,0.002820969,0.004972458,0,
00:08.8,0.002214432,0.002803802,0.004955292,0,
00:08.8,0.002231598,0.002843857,0.004961014,0,
00:08.8,0.002231598,0.002855301,0.004966736,0,
00:08.8,0.002243042,0.002826691,0.004995346,0,
00:08.8,0.002260208,0.002832413,0.004972458,0,
00:08.8,0.00223732,0.002820969,0.00497818,0,
00:08.8,0.002220154,0.002815247,0.004983902,0,
00:08.8,0.002225876,0.002826691,0.004972458,0,
00:08.8,0.002225876,0.002820969,0.004983902,0,
00:08.8,0.002220154,0.002826691,0.004989624,0,
00:08.8,0.002225876,0.002820969,0.004983902,0,
00:08.8,0.002225876,0.002832413,0.004955292,0,
00:08.8,0.002220154,0.002826691,0.004966736,0,
00:08.8,0.002243042,0.002838135,0.004983902,0,
00:08.8,0.002214432,0.002832413,0.005012512,0,
00:08.8,0.002140045,0.002809525,0.00497818,0,
00:08.8,0.002220154,0.002826691,0.00497818,0,
00:08.9,0.002254486,0.002838135,0.00497818,0,
00:08.9,0.00223732,0.002832413,0.004966736,0,
00:08.9,0.002185822,0.002820969,0.004961014,0,
00:08.9,0.002157211,0.002815247,0.00497818,0,
00:08.9,0.002254486,0.002826691,0.00497818,0,
00:08.9,0.002300262,0.002843857,0.00497818,0,
00:08.9,0.002248764,0.002838135,0.004983902,0,
00:08.9,0.002248764,0.002832413,0.004989624,0,
00:08.9,0.002260208,0.002838135,0.004983902,0,
00:08.9,0.002277374,0.002843857,0.004989624,0,
00:08.9,0.002271652,0.002838135,0.00497818,0,
00:08.9,0.002220154,0.002832413,0.00500679,0,
00:08.9,0.002220154,0.002838135,0.004983902,0,
00:08.9,0.002231598,0.002838135,0.004972458,0,
00:08.9,0.002225876,0.002832413,0.004995346,0,
00:08.9,0.00223732,0.002832413,0.004983902,0,
00:08.9,0.00223732,0.002826691,0.004983902,0,
00:08.9,0.002225876,0.002849579,0.004995346,0,
00:08.9,0.002243042,0.002843857,0.005018234,0,
00:08.9,0.002243042,0.002832413,0.004972458,0,
00:08.9,0.002225876,0.002826691,0.004983902,0,
00:08.9,0.002248764,0.002838135,0.004961014,0,
00:08.9,0.00223732,0.002843857,0.004966736,0,
00:08.9,0.002214432,0.002849579,0.00500679,0,
00:08.9,0.002174377,0.002849579,0.005029678,0,
00:09.0,0.002185822,0.002838135,0.004983902,0,
00:09.0,0.00226593,0.002843857,0.004995346,0,
00:09.0,0.002243042,0.002826691,0.005012512,0,
00:09.0,0.002248764,0.002832413,0.004995346,0,
00:09.0,0.002202988,0.002849579,0.005001068,0,
00:09.0,0.002248764,0.002843857,0.004989624,0,
00:09.0,0.002231598,0.002832413,0.005001068,0,
00:09.0,0.002283096,0.002849579,0.005001068,0,
00:09.0,0.002277374,0.002849579,0.004983902,0,
00:09.0,0.002214432,0.002832413,0.00500679,0,
00:09.0,0.002243042,0.002838135,0.00500679,0,
00:09.0,0.002260208,0.002843857,0.004995346,0,
00:00:09,0.002260208,0.002849579,0.004995346,0,
00:09.0,0.002254486,0.002849579,0.005001068,0,
00:09.0,0.002260208,0.002849579,0.00500679,0,
00:09.0,0.002248764,0.002843857,0.004995346,0,
00:09.0,0.002225876,0.002838135,0.004983902,0,
00:09.0,0.002243042,0.002838135,0.004983902,0,
00:09.0,0.002260208,0.002861023,0.00500679,0,
00:09.0,0.002254486,0.002855301,0.005018234,0,
00:09.0,0.002243042,0.002849579,0.00500679,0,
00:09.0,0.00223732,0.002855301,0.004989624,0,
00:09.0,0.00223732,0.002861023,0.004966736,0,
00:09.0,0.002225876,0.002861023,0.004989624,0,
00:09.0,0.00220871,0.002849579,0.00500679,0,
00:09.1,0.00220871,0.002849579,0.005012512,0,
00:09.1,0.002254486,0.002855301,0.005023956,0,
00:09.1,0.002271652,0.002861023,0.004995346,0,
00:09.1,0.002254486,0.002849579,0.00497818,0,
00:09.1,0.002260208,0.002843857,0.005012512,0,
00:09.1,0.002220154,0.002843857,0.005012512,0,
00:09.1,0.002225876,0.002849579,0.0050354,0,
00:09.1,0.00223732,0.002861023,0.005012512,0,
00:09.1,0.002225876,0.002861023,0.004995346,0,
00:09.1,0.002283096,0.002849579,0.004995346,0,
00:09.1,0.002277374,0.002861023,0.004995346,0,
00:09.1,0.002283096,0.002872467,0.004995346,0,
00:09.1,0.002260208,0.002855301,0.005001068,0,
00:09.1,0.00223732,0.002855301,0.00500679,0,
00:09.1,0.002220154,0.002849579,0.005023956,0,
00:09.1,0.002248764,0.002861023,0.004989624,0,
00:09.1,0.002277374,0.002866745,0.005023956,0,
00:09.1,0.002271652,0.002849579,0.005041122,0,
00:09.1,0.002254486,0.002855301,0.005018234,0,
00:09.1,0.00223732,0.002843857,0.004983902,0,
00:09.1,0.00223732,0.002849579,0.005023956,0,
00:09.1,0.002248764,0.002866745,0.005018234,0,
00:09.1,0.002260208,0.002843857,0.00497818,0,
00:09.1,0.002271652,0.002855301,0.00500679,0,
00:09.1,0.002248764,0.002866745,0.005023956,0,
00:09.2,0.00223732,0.002866745,0.0050354,0,
00:09.2,0.002254486,0.002883911,0.004972458,0,
00:09.2,0.00226593,0.002872467,0.004943848,0,
00:09.2,0.00226593,0.002849579,0.005012512,0,
00:09.2,0.002231598,0.002861023,0.005018234,0,
00:09.2,0.002254486,0.002861023,0.005012512,0,
00:09.2,0.002243042,0.002866745,0.005023956,0,
00:09.2,0.002283096,0.002872467,0.005001068,0,
00:09.2,0.002248764,0.002861023,0.005001068,0,
00:09.2,0.002202988,0.002855301,0.005001068,0,
00:09.2,0.002248764,0.002866745,0.0050354,0,
00:09.2,0.002260208,0.002866745,0.005023956,0,
00:09.2,0.002271652,0.002861023,0.004995346,0,
00:09.2,0.002243042,0.002866745,0.004995346,0,
00:09.2,0.002231598,0.002861023,0.005018234,0,
00:09.2,0.00226593,0.002861023,0.005023956,0,
00:09.2,0.002271652,0.002861023,0.005001068,0,
00:09.2,0.002277374,0.002872467,0.005012512,0,
00:09.2,0.00223732,0.002855301,0.004983902,0,
00:09.2,0.002243042,0.002849579,0.004995346,0,
00:09.2,0.002311707,0.002889633,0.00500679,0,
00:09.2,0.002288818,0.002872467,0.005001068,0,
00:09.2,0.002283096,0.002861023,0.005058289,0,
00:09.2,0.002260208,0.002872467,0.005012512,0,
00:09.2,0.00223732,0.002872467,0.00497818,0,
00:09.3,0.002243042,0.002872467,0.005012512,0,
00:09.3,0.00226593,0.002878189,0.00500679,0,
00:09.3,0.002254486,0.002872467,0.005012512,0,
00:09.3,0.002277374,0.002855301,0.005023956,0,
00:09.3,0.002283096,0.002872467,0.005023956,0,
00:09.3,0.002248764,0.002872467,0.005023956,0,
00:09.3,0.002243042,0.002872467,0.00500679,0,
00:09.3,0.002271652,0.002872467,0.005023956,0,
00:09.3,0.00226593,0.002878189,0.005012512,0,
00:09.3,0.002260208,0.002878189,0.00500679,0,
00:09.3,0.002174377,0.002861023,0.005012512,0,
00:09.3,0.002122879,0.002861023,0.005029678,0,
00:09.3,0.00226593,0.002883911,0.005023956,0,
00:09.3,0.002328873,0.002878189,0.005012512,0,
00:09.3,0.002300262,0.002866745,0.005023956,0,
00:09.3,0.002288818,0.002866745,0.004995346,0,
00:09.3,0.002271652,0.002866745,0.004989624,0,
00:09.3,0.002254486,0.002878189,0.00500679,0,
00:09.3,0.00229454,0.002883911,0.005041122,0,
00:09.3,0.002288818,0.002889633,0.005029678,0,
00:09.3,0.002260208,0.002861023,0.004995346,0,
00:09.3,0.002277374,0.002883911,0.004989624,0,
00:09.3,0.002277374,0.002883911,0.005012512,0,
00:09.3,0.002260208,0.002866745,0.005018234,0,
00:09.3,0.002260208,0.002855301,0.005029678,0,
00:09.4,0.002254486,0.002872467,0.005029678,0,
00:09.4,0.00226593,0.002889633,0.005029678,0,
00:09.4,0.002271652,0.002889633,0.004983902,0,
00:09.4,0.002271652,0.002895355,0.004995346,0,
00:09.4,0.00226593,0.002889633,0.005023956,0,
00:09.4,0.00226593,0.002878189,0.005001068,0,
00:09.4,0.002248764,0.002878189,0.005012512,0,
00:09.4,0.002243042,0.002872467,0.005023956,0,
00:09.4,0.00226593,0.002878189,0.005012512,0,
00:09.4,0.002271652,0.002889633,0.005018234,0,
00:09.4,0.00223732,0.002889633,0.0050354,0,
00:09.4,0.002243042,0.002883911,0.004989624,0,
00:09.4,0.00229454,0.002872467,0.004995346,0,
00:09.4,0.00229454,0.002883911,0.004995346,0,
00:09.4,0.002248764,0.002883911,0.005023956,0,
00:09.4,0.002214432,0.002878189,0.005018234,0,
00:09.4,0.002254486,0.002883911,0.005029678,0,
00:09.4,0.002288818,0.002878189,0.005029678,0,
00:09.4,0.002254486,0.002855301,0.005001068,0,
00:09.4,0.002248764,0.002872467,0.005029678,0,
00:09.4,0.002277374,0.002889633,0.004995346,0,
00:09.4,0.00229454,0.002889633,0.004972458,0,
00:09.4,0.002271652,0.002889633,0.005018234,0,
00:09.4,0.002288818,0.002889633,0.0050354,0,
00:09.4,0.002288818,0.002889633,0.005001068,0,
00:09.5,0.002254486,0.002883911,0.005001068,0,
00:09.5,0.002288818,0.002883911,0.00500679,0,
00:09.5,0.00229454,0.002883911,0.005001068,0,
00:09.5,0.00226593,0.002883911,0.004995346,0,
00:09.5,0.002260208,0.002889633,0.00500679,0,
00:09.5,0.002260208,0.002883911,0.00500679,0,
00:09.5,0.002260208,0.002878189,0.00500679,0,
00:09.5,0.00226593,0.002883911,0.005023956,0,
00:09.5,0.002260208,0.002883911,0.005001068,0,
00:09.5,0.002243042,0.002901077,0.004995346,0,
00:09.5,0.002260208,0.002895355,0.004995346,0,
00:09.5,0.002277374,0.002901077,0.005018234,0,
00:09.5,0.002260208,0.002878189,0.005029678,0,
00:09.5,0.00226593,0.002889633,0.005023956,0,
00:09.5,0.002248764,0.002883911,0.005018234,0,
00:09.5,0.002214432,0.002878189,0.00500679,0,
00:09.5,0.00223732,0.002872467,0.00500679,0,
00:09.5,0.002311707,0.002883911,0.005001068,0,
00:09.5,0.00226593,0.002883911,0.005001068,0,
00:09.5,0.00226593,0.002878189,0.004995346,0,
00:09.5,0.002254486,0.002901077,0.004966736,0,
00:09.5,0.002271652,0.002889633,0.004983902,0,
00:09.5,0.00229454,0.002883911,0.005052567,0,
00:09.5,0.002300262,0.002895355,0.005046844,0,
00:09.5,0.002231598,0.002883911,0.005012512,0,
00:09.6,0.002231598,0.002883911,0.00497818,0,
00:09.6,0.002317429,0.002895355,0.005001068,0,
00:09.6,0.00229454,0.002883911,0.005012512,0,
00:09.6,0.002277374,0.002895355,0.00500679,0,
00:09.6,0.002271652,0.002895355,0.005001068,0,
00:09.6,0.002288818,0.002895355,0.005018234,0,
00:09.6,0.002271652,0.002872467,0.00500679,0,
00:09.6,0.002271652,0.002889633,0.005001068,0,
00:09.6,0.002271652,0.002889633,0.004989624,0,
00:09.6,0.002254486,0.002883911,0.005023956,0,
00:09.6,0.002231598,0.002878189,0.004989624,0,
00:09.6,0.002260208,0.002883911,0.004995346,0,
00:09.6,0.002300262,0.002901077,0.005001068,0,
00:09.6,0.002283096,0.002901077,0.005001068,0,
00:09.6,0.00229454,0.002906799,0.004995346,0,
00:09.6,0.002300262,0.002901077,0.004995346,0,
00:09.6,0.002248764,0.002878189,0.004989624,0,
00:09.6,0.00220871,0.002872467,0.00500679,0,
00:09.6,0.002248764,0.002889633,0.00500679,0,
00:09.6,0.002283096,0.002895355,0.004995346,0,
00:09.6,0.002243042,0.002895355,0.004995346,0,
00:09.6,0.002277374,0.002895355,0.005001068,0,
00:09.6,0.00226593,0.002889633,0.004966736,0,
00:09.6,0.002202988,0.002889633,0.005018234,0,
00:09.6,0.002220154,0.002901077,0.005018234,0,
00:09.7,0.002254486,0.002889633,0.004995346,0,
00:09.7,0.002323151,0.002883911,0.004983902,0,
00:09.7,0.002317429,0.002889633,0.005018234,0,
00:09.7,0.002305984,0.002895355,0.005012512,0,
00:09.7,0.002271652,0.002889633,0.004983902,0,
00:09.7,0.00223732,0.002895355,0.00497818,0,
00:09.7,0.002271652,0.002901077,0.00500679,0,
00:09.7,0.002300262,0.002906799,0.004989624,0,
00:09.7,0.00229454,0.002889633,0.004983902,0,
00:09.7,0.00229454,0.002895355,0.005001068,0,
00:09.7,0.002283096,0.002895355,0.004983902,0,
00:09.7,0.002288818,0.002895355,0.005001068,0,
00:09.7,0.00226593,0.002895355,0.00500679,0,
00:09.7,0.002254486,0.002889633,0.00500679,0,
00:09.7,0.002271652,0.002883911,0.005001068,0,
00:09.7,0.00226593,0.002889633,0.005012512,0,
00:09.7,0.00226593,0.002895355,0.00497818,0,
00:09.7,0.00226593,0.002895355,0.004966736,0,
00:09.7,0.002260208,0.002889633,0.004995346,0,
00:09.7,0.00226593,0.002878189,0.005018234,0,
00:09.7,0.002243042,0.002883911,0.00497818,0,
00:09.7,0.002260208,0.002895355,0.004989624,0,
00:09.7,0.002277374,0.002901077,0.004995346,0,
00:09.7,0.002288818,0.002901077,0.004995346,0,
00:09.7,0.002254486,0.002889633,0.004995346,0,
00:09.8,0.002248764,0.002889633,0.005001068,0,
00:09.8,0.002174377,0.002878189,0.004995346,0,
00:09.8,0.002288818,0.002889633,0.004989624,0,
00:09.8,0.002368927,0.002918243,0.004995346,0,
00:09.8,0.002317429,0.002895355,0.004972458,0,
00:09.8,0.00229454,0.002906799,0.004983902,0,
00:09.8,0.00226593,0.002901077,0.004989624,0,
00:09.8,0.002254486,0.002883911,0.004983902,0,
00:09.8,0.002254486,0.002889633,0.004983902,0,
00:09.8,0.002254486,0.002906799,0.005012512,0,
00:09.8,0.002243042,0.002901077,0.005018234,0,
00:09.8,0.002243042,0.002889633,0.004955292,0,
00:09.8,0.002288818,0.002895355,0.00497818,0,
00:09.8,0.002277374,0.002901077,0.004972458,0,
00:09.8,0.002243042,0.002889633,0.004983902,0,
00:09.8,0.002260208,0.002889633,0.00500679,0,
00:09.8,0.002277374,0.002889633,0.005001068,0,
00:09.8,0.002248764,0.002889633,0.005001068,0,
00:09.8,0.002288818,0.002901077,0.004995346,0,
00:09.8,0.002305984,0.002906799,0.004966736,0,
00:09.8,0.002248764,0.002883911,0.004938126,0,
00:09.8,0.00226593,0.002895355,0.00500679,0,
00:09.8,0.002288818,0.002889633,0.004983902,0,
00:09.8,0.002260208,0.002895355,0.00497818,0,
00:09.8,0.00223732,0.002906799,0.00497818,0,
00:09.9,0.002243042,0.002912521,0.004961014,0,
00:09.9,0.002254486,0.002889633,0.00500679,0,
00:09.9,0.002231598,0.002878189,0.005018234,0,
00:09.9,0.002248764,0.002889633,0.004989624,0,
00:09.9,0.002300262,0.002906799,0.00497818,0,
00:09.9,0.002288818,0.002918243,0.00494957,0,
00:09.9,0.002305984,0.002918243,0.004961014,0,
00:09.9,0.002277374,0.002906799,0.00494957,0,
00:09.9,0.002254486,0.002901077,0.004966736,0,
00:09.9,0.002305984,0.002895355,0.004983902,0,
00:09.9,0.002277374,0.002901077,0.004961014,0,
00:09.9,0.002248764,0.002906799,0.004955292,0,
00:09.9,0.002277374,0.002895355,0.004983902,0,
00:09.9,0.002248764,0.002883911,0.00500679,0,
00:09.9,0.002260208,0.002889633,0.00500679,0,
00:09.9,0.002317429,0.002901077,0.004972458,0,
00:09.9,0.00226593,0.002895355,0.004961014,0,
00:09.9,0.00223732,0.002901077,0.004966736,0,
00:09.9,0.002260208,0.002895355,0.004966736,0,
00:09.9,0.002254486,0.002883911,0.004972458,0,
00:09.9,0.002277374,0.002901077,0.004972458,0,
00:09.9,0.002283096,0.002906799,0.004983902,0,
00:09.9,0.002283096,0.002906799,0.004983902,0,
00:09.9,0.002288818,0.002901077,0.004972458,0,
00:09.9,0.002260208,0.002901077,0.00494957,0,
00:10.0,0.002260208,0.002901077,0.00494957,0,
00:10.0,0.002260208,0.002895355,0.004966736,0,
00:10.0,0.002243042,0.002889633,0.004943848,0,
00:10.0,0.002260208,0.002901077,0.004966736,0,
00:10.0,0.002288818,0.002912521,0.004989624,0,
00:10.0,0.002277374,0.002906799,0.004966736,0,
00:10.0,0.002271652,0.002895355,0.004961014,0,
00:10.0,0.002248764,0.002901077,0.004955292,0,
00:10.0,0.002248764,0.002895355,0.004938126,0,
00:10.0,0.00226593,0.002901077,0.004943848,0,
00:10.0,0.002260208,0.002901077,0.004955292,0,
00:10.0,0.00226593,0.002906799,0.00497818,0,
00:00:10,0.00226593,0.002895355,0.00497818,0,
00:10.0,0.002260208,0.002895355,0.004972458,0,
00:10.0,0.002271652,0.002912521,0.004961014,0,
00:10.0,0.002288818,0.002906799,0.00494957,0,
00:10.0,0.002271652,0.002906799,0.004966736,0,
00:10.0,0.002225876,0.002901077,0.004966736,0,
00:10.0,0.002248764,0.002901077,0.004943848,0,
00:10.0,0.002288818,0.002901077,0.004955292,0,
00:10.0,0.002243042,0.002901077,0.00497818,0,
00:10.0,0.002260208,0.002901077,0.00497818,0,
00:10.0,0.002248764,0.002906799,0.004915237,0,
00:10.0,0.002288818,0.002901077,0.004932404,0,
00:10.0,0.002300262,0.002901077,0.004938126,0,
00:10.1,0.00223732,0.002901077,0.00494957,0,
00:10.1,0.002248764,0.002895355,0.004938126,0,
00:10.1,0.002311707,0.002906799,0.004926682,0,
00:10.1,0.002283096,0.002901077,0.004955292,0,
00:10.1,0.00226593,0.002895355,0.004943848,0,
00:10.1,0.00226593,0.002895355,0.004938126,0,
00:10.1,0.002254486,0.002906799,0.004926682,0,
00:10.1,0.002225876,0.002912521,0.004955292,0,
00:10.1,0.002283096,0.002918243,0.00497818,0,
00:10.1,0.002288818,0.002901077,0.004961014,0,
00:10.1,0.002300262,0.002906799,0.004926682,0,
00:10.1,0.002288818,0.002895355,0.004932404,0,
00:10.1,0.002260208,0.002895355,0.004938126,0,
00:10.1,0.002254486,0.002901077,0.004943848,0,
00:10.1,0.002260208,0.002906799,0.004932404,0,
00:10.1,0.00223732,0.002895355,0.004926682,0,
00:10.1,0.00223732,0.002878189,0.004961014,0,
00:10.1,0.00223732,0.002918243,0.004943848,0,
00:10.1,0.002300262,0.002918243,0.004926682,0,
00:10.1,0.00229454,0.002912521,0.004909515,0,
00:10.1,0.00226593,0.002906799,0.004926682,0,
00:10.1,0.002248764,0.002906799,0.004938126,0,
00:10.1,0.002271652,0.002901077,0.004955292,0,
00:10.1,0.002248764,0.002901077,0.00494957,0,
00:10.1,0.002214432,0.002895355,0.004943848,0,
00:10.2,0.002277374,0.002906799,0.004932404,0,
00:10.2,0.002305984,0.002889633,0.004920959,0,
00:10.2,0.00226593,0.002883911,0.004915237,0,
00:10.2,0.002271652,0.002906799,0.004938126,0,
00:10.2,0.002243042,0.002901077,0.004955292,0,
00:10.2,0.00229454,0.002918243,0.004926682,0,
00:10.2,0.002277374,0.002906799,0.004903793,0,
00:10.2,0.002231598,0.002895355,0.004909515,0,
00:10.2,0.002185822,0.002889633,0.004943848,0,
00:10.2,0.002220154,0.002889633,0.004926682,0,
00:10.2,0.002288818,0.002912521,0.004909515,0,
00:10.2,0.002317429,0.002923965,0.004915237,0,
00:10.2,0.002260208,0.002906799,0.004943848,0,
00:10.2,0.00226593,0.002906799,0.004909515,0,
00:10.2,0.00229454,0.002912521,0.004926682,0,
00:10.2,0.002248764,0.002901077,0.004926682,0,
00:10.2,0.002271652,0.002901077,0.004920959,0,
00:10.2,0.00226593,0.002912521,0.004926682,0,
00:10.2,0.002260208,0.002906799,0.004920959,0,
00:10.2,0.002271652,0.002901077,0.004938126,0,
00:10.2,0.00226593,0.002906799,0.004932404,0,
00:10.2,0.002254486,0.002895355,0.004915237,0,
00:10.2,0.002277374,0.002906799,0.004903793,0,
00:10.2,0.002277374,0.002912521,0.004926682,0,
00:10.2,0.002283096,0.002906799,0.004909515,0,
00:10.3,0.002271652,0.002895355,0.004898071,0,
00:10.3,0.002254486,0.002901077,0.004886627,0,
00:10.3,0.002248764,0.002918243,0.004920959,0,
00:10.3,0.002248764,0.002906799,0.004932404,0,
00:10.3,0.002288818,0.002912521,0.004892349,0,
00:10.3,0.002283096,0.002912521,0.004909515,0,
00:10.3,0.00226593,0.002901077,0.004903793,0,
