Elapsed_Time,EMG1,EMG2,EMG3,BioRadio Event,Unnamed: 5
00:00:00,0.005504608,0.002998352,-0.00044632,0,
00:00.0,0.005504608,0.002998352,-0.00044632,0,
00:00.0,0.005498886,0.00299263,-0.000429153,0,
00:00.0,0.005498886,0.003015518,-0.000434875,0,
00:00.0,0.005504608,0.003015518,-0.000469208,0,
00:00.0,0.005504608,0.003004074,-0.000440598,0,
00:00.0,0.005498886,0.002998352,-0.000411987,0,
00:00.0,0.005498886,0.002986908,-0.000394821,0,
00:00.0,0.005504608,0.002998352,-0.000394821,0,
00:00.0,0.005475998,0.003004074,-0.000417709,0,
00:00.0,0.005487442,0.002998352,-0.000417709,0,
00:00.0,0.005487442,0.00299263,-0.000417709,0,
00:00.0,0.005487442,0.00299263,-0.000429153,0,
00:00.1,0.005493164,0.003004074,-0.000423431,0,
00:00.1,0.005493164,0.003009796,-0.000440598,0,
00:00.1,0.005504608,0.003015518,-0.000457764,0,
00:00.1,0.005498886,0.003026962,-0.00047493,0,
00:00.1,0.00548172,0.002998352,-0.00044632,0,
00:00.1,0.005470276,0.002981186,-0.000383377,0,
00:00.1,0.005475998,0.002975464,-0.000360489,0,
00:00.1,0.005475998,0.002986908,-0.000400543,0,
00:00.1,0.005475998,0.002998352,-0.000411987,0,
00:00.1,0.005475998,0.002998352,-0.000411987,0,
00:00.1,0.00548172,0.002998352,-0.000417709,0,
00:00.1,0.005475998,0.002998352,-0.000423431,0,
00:00.1,0.005475998,0.00299263,-0.000440598,0,
00:00.1,0.005475998,0.002998352,-0.000452042,0,
00:00.1,0.005475998,0.003004074,-0.000429153,0,
00:00.1,0.005493164,0.003026962,-0.000434875,0,
00:00.1,0.00548172,0.003032684,-0.000480652,0,
00:00.1,0.00548172,0.003004074,-0.000429153,0,
00:00.1,0.005464554,0.002975464,-0.000343323,0,
00:00.1,0.005464554,0.002975464,-0.000337601,0,
00:00.1,0.005475998,0.00299263,-0.000366211,0,
00:00.1,0.005487442,0.002998352,-0.000377655,0,
00:00.1,0.00545311,0.00299263,-0.000394821,0,
00:00.1,0.005447388,0.00299263,-0.000400543,0,
00:00.1,0.005464554,0.002998352,-0.000411987,0,
00:00.2,0.005475998,0.003004074,-0.00044632,0,
00:00.2,0.005470276,0.002998352,-0.000417709,0,
00:00.2,0.00545311,0.00299263,-0.000383377,0,
00:00.2,0.005458832,0.00299263,-0.000394821,0,
00:00.2,0.005458832,0.003004074,-0.000417709,0,
00:00.2,0.005470276,0.003009796,-0.000423431,0,
00:00.2,0.005464554,0.003004074,-0.000434875,0,
00:00.2,0.005464554,0.003015518,-0.000457764,0,
00:00.2,0.005464554,0.003004074,-0.000411987,0,
00:00.2,0.005458832,0.002998352,-0.000389099,0,
00:00.2,0.005458832,0.002998352,-0.000377655,0,
00:00.2,0.005464554,0.002998352,-0.000400543,0,
00:00.2,0.00545311,0.002998352,-0.000406265,0,
00:00.2,0.005458832,0.002998352,-0.000400543,0,
00:00.2,0.005458832,0.003004074,-0.000411987,0,
00:00.2,0.005475998,0.003009796,-0.000417709,0,
00:00.2,0.005464554,0.003004074,-0.000429153,0,
00:00.2,0.005470276,0.003004074,-0.000400543,0,
00:00.2,0.005458832,0.002998352,-0.000417709,0,
00:00.2,0.005441666,0.00299263,-0.000423431,0,
00:00.2,0.005464554,0.003004074,-0.000417709,0,
00:00.2,0.00548172,0.003004074,-0.000434875,0,
00:00.2,0.005441666,0.00299263,-0.000417709,0,
00:00.2,0.005458832,0.00299263,-0.000406265,0,
00:00.2,0.005464554,0.003009796,-0.000411987,0,
00:00.3,0.00545311,0.002998352,-0.000411987,0,
00:00.3,0.00545311,0.00299263,-0.000429153,0,
00:00.3,0.00545311,0.003004074,-0.000406265,0,
00:00.3,0.005458832,0.00299263,-0.000400543,0,
00:00.3,0.00545311,0.003009796,-0.000400543,0,
00:00.3,0.005458832,0.003015518,-0.000417709,0,
00:00.3,0.00545311,0.003004074,-0.000429153,0,
00:00.3,0.00545311,0.002998352,-0.000429153,0,
00:00.3,0.00545311,0.003009796,-0.000423431,0,
00:00.3,0.00545311,0.003015518,-0.000440598,0,
00:00.3,0.005464554,0.00302124,-0.000429153,0,
00:00.3,0.005458832,0.003009796,-0.000434875,0,
00:00.3,0.005441666,0.003004074,-0.000411987,0,
00:00.3,0.005458832,0.003004074,-0.000383377,0,
00:00.3,0.005447388,0.002998352,-0.000394821,0,
00:00.3,0.005441666,0.003004074,-0.000417709,0,
00:00.3,0.005441666,0.003004074,-0.000423431,0,
00:00.3,0.005447388,0.002998352,-0.000411987,0,
00:00.3,0.00545311,0.003004074,-0.000400543,0,
00:00.3,0.005441666,0.003004074,-0.000406265,0,
00:00.3,0.005458832,0.003015518,-0.000429153,0,
00:00.3,0.005464554,0.003004074,-0.000417709,0,
00:00.3,0.005430222,0.002998352,-0.000423431,0,
00:00.3,0.005441666,0.003009796,-0.000417709,0,
00:00.3,0.005441666,0.003004074,-0.000423431,0,
00:00.4,0.005435944,0.00299263,-0.000406265,0,
00:00.4,0.005441666,0.002998352,-0.000406265,0,
00:00.4,0.005458832,0.003009796,-0.000440598,0,
00:00.4,0.005447388,0.002998352,-0.000452042,0,
00:00.4,0.0054245,0.002998352,-0.000434875,0,
00:00.4,0.005435944,0.003004074,-0.000406265,0,
00:00.4,0.005441666,0.002998352,-0.000400543,0,
00:00.4,0.005441666,0.003009796,-0.000417709,0,
00:00.4,0.005435944,0.002998352,-0.000423431,0,
00:00.4,0.0054245,0.00299263,-0.000434875,0,
00:00.4,0.005441666,0.003015518,-0.000429153,0,
00:00.4,0.005447388,0.003015518,-0.000406265,0,
00:00.4,0.005441666,0.00299263,-0.000411987,0,
00:00.4,0.0054245,0.002998352,-0.000406265,0,
00:00.4,0.0054245,0.002998352,-0.000417709,0,
00:00.4,0.005435944,0.002998352,-0.000417709,0,
00:00.4,0.005435944,0.003004074,-0.000423431,0,
00:00.4,0.005441666,0.003009796,-0.000434875,0,
00:00.4,0.005435944,0.003004074,-0.000463486,0,
00:00.4,0.005435944,0.003004074,-0.000434875,0,
00:00.4,0.005447388,0.003009796,-0.000429153,0,
00:00.4,0.005435944,0.003004074,-0.000423431,0,
00:00.4,0.005413055,0.002986908,-0.000417709,0,
00:00.4,0.0054245,0.00299263,-0.000411987,0,
00:00.4,0.0054245,0.002998352,-0.000400543,0,
00:00.5,0.005430222,0.002998352,-0.000411987,0,
00:00.5,0.005430222,0.002998352,-0.000429153,0,
00:00.5,0.005430222,0.003004074,-0.000434875,0,
00:00.5,0.005430222,0.003009796,-0.00047493,0,
00:00.5,0.005435944,0.002998352,-0.000429153,0,
00:00.5,0.005464554,0.003009796,-0.000394821,0,
00:00.5,0.0054245,0.002998352,-0.000423431,0,
00:00.5,0.005418777,0.00299263,-0.000423431,0,
00:00.5,0.005430222,0.003004074,-0.000417709,0,
00:00.5,0.005430222,0.003004074,-0.000400543,0,
00:00.5,0.0054245,0.003004074,-0.000423431,0,
00:00.5,0.005430222,0.003004074,-0.000411987,0,
00:00.5,0.005430222,0.002998352,-0.00044632,0,
00:00.5,0.005430222,0.003004074,-0.000457764,0,
00:00.5,0.005430222,0.003004074,-0.000440598,0,
00:00.5,0.005441666,0.00302124,-0.000417709,0,
00:00.5,0.0054245,0.003009796,-0.000417709,0,
00:00.5,0.005401611,0.00299263,-0.000429153,0,
00:00.5,0.005430222,0.002986908,-0.000406265,0,
00:00.5,0.005430222,0.00299263,-0.000389099,0,
00:00.5,0.0054245,0.002998352,-0.000406265,0,
00:00.5,0.0054245,0.00299263,-0.000400543,0,
00:00.5,0.005413055,0.00299263,-0.000423431,0,
00:00.5,0.0054245,0.002998352,-0.000434875,0,
00:00.5,0.005430222,0.003004074,-0.000434875,0,
00:00.6,0.005430222,0.003004074,-0.000417709,0,
00:00.6,0.005430222,0.003004074,-0.000406265,0,
00:00.6,0.005413055,0.00299263,-0.000429153,0,
00:00.6,0.005430222,0.003004074,-0.000452042,0,
00:00.6,0.005418777,0.003004074,-0.000417709,0,
00:00.6,0.005413055,0.003009796,-0.000411987,0,
00:00.6,0.005407333,0.00299263,-0.000423431,0,
00:00.6,0.005407333,0.002986908,-0.000389099,0,
00:00.6,0.005418777,0.002998352,-0.000400543,0,
00:00.6,0.0054245,0.002998352,-0.000411987,0,
00:00.6,0.005413055,0.003009796,-0.000423431,0,
00:00.6,0.0054245,0.002998352,-0.00044632,0,
00:00.6,0.005401611,0.002986908,-0.000457764,0,
00:00.6,0.005401611,0.002998352,-0.000417709,0,
00:00.6,0.005407333,0.002998352,-0.000394821,0,
00:00.6,0.005401611,0.002998352,-0.000417709,0,
00:00.6,0.005401611,0.00299263,-0.000406265,0,
00:00.6,0.005395889,0.002986908,-0.000406265,0,
00:00.6,0.005418777,0.003004074,-0.000434875,0,
00:00.6,0.005407333,0.003004074,-0.00044632,0,
00:00.6,0.005407333,0.003009796,-0.000400543,0,
00:00.6,0.005401611,0.00299263,-0.000417709,0,
00:00.6,0.005395889,0.002986908,-0.000423431,0,
00:00.6,0.005401611,0.002998352,-0.000429153,0,
00:00.6,0.005413055,0.003004074,-0.000417709,0,
00:00.7,0.005401611,0.003004074,-0.000389099,0,
00:00.7,0.005390167,0.00299263,-0.000400543,0,
00:00.7,0.005390167,0.002986908,-0.000411987,0,
00:00.7,0.005395889,0.00299263,-0.000417709,0,
00:00.7,0.005395889,0.003004074,-0.000423431,0,
00:00.7,0.005390167,0.002998352,-0.000429153,0,
00:00.7,0.005395889,0.002998352,-0.000417709,0,
00:00.7,0.005390167,0.003009796,-0.000406265,0,
00:00.7,0.005390167,0.003004074,-0.000417709,0,
00:00.7,0.005401611,0.003009796,-0.000440598,0,
00:00.7,0.005413055,0.003015518,-0.000434875,0,
00:00.7,0.005373001,0.002986908,-0.000411987,0,
00:00.7,0.005378723,0.002986908,-0.000406265,0,
00:00.7,0.005378723,0.00299263,-0.000406265,0,
00:00.7,0.005395889,0.002998352,-0.000394821,0,
00:00.7,0.005384445,0.003004074,-0.000423431,0,
00:00.7,0.005378723,0.002998352,-0.000434875,0,
00:00.7,0.005378723,0.002998352,-0.000440598,0,
00:00.7,0.005384445,0.003015518,-0.000423431,0,
00:00.7,0.005401611,0.003015518,-0.000411987,0,
00:00.7,0.005384445,0.003026962,-0.000423431,0,
00:00.7,0.005378723,0.002998352,-0.000411987,0,
00:00.7,0.005378723,0.002981186,-0.000406265,0,
00:00.7,0.005378723,0.002998352,-0.000406265,0,
00:00.7,0.005367279,0.002981186,-0.000411987,0,
00:00.8,0.005373001,0.00299263,-0.000423431,0,
00:00.8,0.005384445,0.003009796,-0.000423431,0,
00:00.8,0.005378723,0.002998352,-0.000423431,0,
00:00.8,0.005378723,0.002998352,-0.000423431,0,
00:00.8,0.005373001,0.003015518,-0.000434875,0,
00:00.8,0.005378723,0.003015518,-0.00044632,0,
00:00.8,0.005378723,0.003004074,-0.000417709,0,
00:00.8,0.005373001,0.003004074,-0.000429153,0,
00:00.8,0.005367279,0.002986908,-0.000429153,0,
00:00.8,0.005367279,0.002986908,-0.000417709,0,
00:00.8,0.005367279,0.003009796,-0.000423431,0,
00:00.8,0.005378723,0.003009796,-0.000429153,0,
00:00.8,0.005378723,0.003009796,-0.000429153,0,
00:00.8,0.005361557,0.003004074,-0.00044632,0,
00:00.8,0.005373001,0.003015518,-0.000429153,0,
00:00.8,0.005401611,0.003026962,-0.000440598,0,
00:00.8,0.005384445,0.003015518,-0.000463486,0,
00:00.8,0.005327225,0.00299263,-0.000469208,0,
00:00.8,0.005350113,0.00299263,-0.000406265,0,
00:00.8,0.005384445,0.003009796,-0.000389099,0,
00:00.8,0.005367279,0.003009796,-0.000417709,0,
00:00.8,0.005361557,0.002998352,-0.000423431,0,
00:00.8,0.005361557,0.00299263,-0.000429153,0,
00:00.8,0.005367279,0.003004074,-0.000440598,0,
00:00.8,0.005378723,0.00302124,-0.000434875,0,
00:00.9,0.005367279,0.003015518,-0.000452042,0,
00:00.9,0.005367279,0.003009796,-0.000434875,0,
00:00.9,0.005361557,0.003004074,-0.000440598,0,
00:00.9,0.005361557,0.002998352,-0.000429153,0,
00:00.9,0.005373001,0.003015518,-0.000417709,0,
00:00.9,0.005367279,0.003004074,-0.000429153,0,
00:00.9,0.005367279,0.002998352,-0.000429153,0,
00:00.9,0.005355835,0.00299263,-0.000429153,0,
00:00.9,0.005355835,0.002998352,-0.000429153,0,
00:00.9,0.005361557,0.003009796,-0.000434875,0,
00:00.9,0.005367279,0.003004074,-0.000469208,0,
00:00.9,0.005355835,0.00299263,-0.00047493,0,
00:00.9,0.005367279,0.00302124,-0.00044632,0,
00:00.9,0.005350113,0.00302124,-0.000452042,0,
00:00.9,0.005361557,0.003004074,-0.000411987,0,
00:00.9,0.005367279,0.002998352,-0.000423431,0,
00:00.9,0.005373001,0.00299263,-0.00044632,0,
00:00.9,0.005344391,0.00299263,-0.000429153,0,
00:00.9,0.005350113,0.002998352,-0.000440598,0,
00:00.9,0.005355835,0.003004074,-0.000411987,0,
00:00.9,0.005355835,0.002998352,-0.000434875,0,
00:00.9,0.005350113,0.002998352,-0.00044632,0,
00:00.9,0.005367279,0.002998352,-0.000463486,0,
00:00.9,0.005355835,0.002998352,-0.000440598,0,
00:00.9,0.005350113,0.002998352,-0.000452042,0,
00:01.0,0.005344391,0.00299263,-0.000429153,0,
00:01.0,0.005350113,0.00299263,-0.000411987,0,
00:01.0,0.005350113,0.002998352,-0.000440598,0,
00:01.0,0.005350113,0.002986908,-0.000452042,0,
00:01.0,0.005344391,0.002986908,-0.000429153,0,
00:01.0,0.005350113,0.00299263,-0.000423431,0,
00:01.0,0.005344391,0.002986908,-0.00044632,0,
00:01.0,0.005350113,0.002986908,-0.00047493,0,
00:01.0,0.005350113,0.00299263,-0.000480652,0,
00:01.0,0.005361557,0.00299263,-0.000452042,0,
00:01.0,0.005332947,0.002981186,-0.000440598,0,
00:01.0,0.005338669,0.002981186,-0.000434875,0,
00:00:01,0.005344391,0.002981186,-0.000423431,0,
00:01.0,0.005338669,0.002975464,-0.000452042,0,
00:01.0,0.005338669,0.00299263,-0.00044632,0,
00:01.0,0.005350113,0.00299263,-0.000440598,0,
00:01.0,0.005344391,0.002986908,-0.00047493,0,
00:01.0,0.005338669,0.002981186,-0.000486374,0,
00:01.0,0.005344391,0.00299263,-0.000457764,0,
00:01.0,0.005344391,0.002981186,-0.000434875,0,
00:01.0,0.005344391,0.002981186,-0.000440598,0,
00:01.0,0.005344391,0.002981186,-0.000463486,0,
00:01.0,0.005332947,0.002969742,-0.000463486,0,
00:01.0,0.005327225,0.00296402,-0.000452042,0,
00:01.0,0.005350113,0.002986908,-0.000440598,0,
00:01.1,0.005344391,0.002986908,-0.000440598,0,
00:01.1,0.005344391,0.002981186,-0.000452042,0,
00:01.1,0.005355835,0.002981186,-0.00047493,0,
00:01.1,0.005332947,0.00296402,-0.000452042,0,
00:01.1,0.005338669,0.002981186,-0.000429153,0,
00:01.1,0.005344391,0.002981186,-0.00044632,0,
00:01.1,0.005338669,0.00299263,-0.000463486,0,
00:01.1,0.005332947,0.002986908,-0.000457764,0,
00:01.1,0.005332947,0.002975464,-0.000457764,0,
00:01.1,0.005332947,0.00296402,-0.000452042,0,
00:01.1,0.005327225,0.00296402,-0.000423431,0,
00:01.1,0.005338669,0.002981186,-0.000440598,0,
00:01.1,0.005338669,0.002981186,-0.000452042,0,
00:01.1,0.005338669,0.002981186,-0.00044632,0,
00:01.1,0.005338669,0.002969742,-0.000469208,0,
00:01.1,0.005338669,0.002975464,-0.000463486,0,
00:01.1,0.005338669,0.002975464,-0.000457764,0,
00:01.1,0.005332947,0.002981186,-0.000457764,0,
00:01.1,0.005338669,0.002975464,-0.000440598,0,
00:01.1,0.005332947,0.002975464,-0.000457764,0,
00:01.1,0.005338669,0.00299263,-0.000429153,0,
00:01.1,0.005338669,0.00299263,-0.000463486,0,
00:01.1,0.005350113,0.00299263,-0.000463486,0,
00:01.1,0.005344391,0.002975464,-0.000469208,0,
00:01.1,0.005344391,0.002986908,-0.00047493,0,
00:01.2,0.005338669,0.002969742,-0.000452042,0,
00:01.2,0.005332947,0.002975464,-0.000440598,0,
00:01.2,0.005350113,0.00299263,-0.00044632,0,
00:01.2,0.005344391,0.002986908,-0.000457764,0,
00:01.2,0.005315781,0.002969742,-0.000423431,0,
00:01.2,0.005315781,0.002969742,-0.000440598,0,
00:01.2,0.005321503,0.002969742,-0.000457764,0,
00:01.2,0.005332947,0.002969742,-0.00044632,0,
00:01.2,0.005327225,0.002975464,-0.000457764,0,
00:01.2,0.005321503,0.002975464,-0.00044632,0,
00:01.2,0.005327225,0.002986908,-0.000457764,0,
00:01.2,0.005327225,0.00299263,-0.000469208,0,
00:01.2,0.005321503,0.002986908,-0.00047493,0,
00:01.2,0.005321503,0.002969742,-0.000480652,0,
00:01.2,0.005327225,0.002975464,-0.000440598,0,
00:01.2,0.005327225,0.002975464,-0.000434875,0,
00:01.2,0.005321503,0.002981186,-0.00044632,0,
00:01.2,0.005315781,0.002975464,-0.000452042,0,
00:01.2,0.005315781,0.002981186,-0.000463486,0,
00:01.2,0.005315781,0.002981186,-0.000480652,0,
00:01.2,0.005315781,0.002969742,-0.000452042,0,
00:01.2,0.005327225,0.002981186,-0.000440598,0,
00:01.2,0.005310059,0.002975464,-0.000440598,0,
00:01.2,0.005315781,0.002969742,-0.000434875,0,
00:01.2,0.005304337,0.002969742,-0.000452042,0,
00:01.3,0.005310059,0.002981186,-0.00044632,0,
00:01.3,0.005321503,0.00299263,-0.000469208,0,
00:01.3,0.005321503,0.00299263,-0.000492096,0,
00:01.3,0.005310059,0.002975464,-0.000463486,0,
00:01.3,0.005310059,0.00296402,-0.000440598,0,
00:01.3,0.005304337,0.002969742,-0.000452042,0,
00:01.3,0.005304337,0.002975464,-0.000463486,0,
00:01.3,0.005304337,0.002975464,-0.000457764,0,
00:01.3,0.005304337,0.002981186,-0.000452042,0,
00:01.3,0.005315781,0.002986908,-0.000463486,0,
00:01.3,0.005304337,0.002981186,-0.000452042,0,
00:01.3,0.005298615,0.002975464,-0.00047493,0,
00:01.3,0.005321503,0.002975464,-0.000492096,0,
00:01.3,0.005298615,0.002986908,-0.000434875,0,
00:01.3,0.005298615,0.002986908,-0.000440598,0,
00:01.3,0.005292892,0.002975464,-0.000452042,0,
00:01.3,0.005304337,0.002969742,-0.000429153,0,
00:01.3,0.005292892,0.002969742,-0.000457764,0,
00:01.3,0.005281448,0.002981186,-0.000457764,0,
00:01.3,0.005281448,0.002975464,-0.000434875,0,
00:01.3,0.005292892,0.002981186,-0.000452042,0,
00:01.3,0.005292892,0.002986908,-0.00047493,0,
00:01.3,0.005298615,0.002981186,-0.000509262,0,
00:01.3,0.005304337,0.002981186,-0.000463486,0,
00:01.3,0.00528717,0.002969742,-0.000429153,0,
00:01.4,0.00528717,0.002969742,-0.000417709,0,
00:01.4,0.00528717,0.002975464,-0.000434875,0,
00:01.4,0.00528717,0.002975464,-0.000463486,0,
00:01.4,0.005281448,0.002975464,-0.000480652,0,
00:01.4,0.005292892,0.00299263,-0.000463486,0,
00:01.4,0.005292892,0.002981186,-0.00044632,0,
00:01.4,0.005281448,0.002975464,-0.000463486,0,
00:01.4,0.005292892,0.002986908,-0.000457764,0,
00:01.4,0.00528717,0.002975464,-0.00044632,0,
00:01.4,0.00528717,0.002975464,-0.000440598,0,
00:01.4,0.00528717,0.002981186,-0.00044632,0,
00:01.4,0.005298615,0.002998352,-0.000469208,0,
00:01.4,0.005292892,0.00299263,-0.00047493,0,
00:01.4,0.00528717,0.002981186,-0.00047493,0,
00:01.4,0.005298615,0.002981186,-0.00044632,0,
00:01.4,0.005275726,0.002986908,-0.000440598,0,
00:01.4,0.005281448,0.00299263,-0.000486374,0,
00:01.4,0.005281448,0.002981186,-0.000434875,0,
00:01.4,0.005281448,0.002975464,-0.000440598,0,
00:01.4,0.00528717,0.00299263,-0.000434875,0,
00:01.4,0.00528717,0.002986908,-0.000457764,0,
00:01.4,0.00528717,0.002986908,-0.000480652,0,
00:01.4,0.00528717,0.00299263,-0.000469208,0,
00:01.4,0.005292892,0.002998352,-0.000457764,0,
00:01.4,0.005310059,0.00299263,-0.000434875,0,
00:01.5,0.005275726,0.002986908,-0.000452042,0,
00:01.5,0.005281448,0.00299263,-0.000452042,0,
00:01.5,0.005281448,0.002986908,-0.000434875,0,
00:01.5,0.005270004,0.002986908,-0.000452042,0,
00:01.5,0.005292892,0.002986908,-0.000463486,0,
00:01.5,0.005281448,0.002981186,-0.000452042,0,
00:01.5,0.005270004,0.002981186,-0.000452042,0,
00:01.5,0.005275726,0.002986908,-0.000463486,0,
00:01.5,0.005281448,0.002986908,-0.000457764,0,
00:01.5,0.005281448,0.002998352,-0.00044632,0,
00:01.5,0.005281448,0.002998352,-0.000469208,0,
00:01.5,0.005275726,0.002975464,-0.000486374,0,
00:01.5,0.005270004,0.00296402,-0.000457764,0,
00:01.5,0.005281448,0.002986908,-0.00044632,0,
00:01.5,0.00528717,0.003009796,-0.000480652,0,
00:01.5,0.005281448,0.00299263,-0.00044632,0,
00:01.5,0.00528717,0.002998352,-0.000463486,0,
00:01.5,0.005275726,0.002975464,-0.000463486,0,
00:01.5,0.005275726,0.002981186,-0.00044632,0,
00:01.5,0.00528717,0.002981186,-0.000452042,0,
00:01.5,0.005281448,0.002986908,-0.000440598,0,
00:01.5,0.005281448,0.003004074,-0.000463486,0,
00:01.5,0.00528717,0.002986908,-0.000497818,0,
00:01.5,0.005252838,0.002969742,-0.000440598,0,
00:01.5,0.005270004,0.002986908,-0.00044632,0,
00:01.6,0.005281448,0.00299263,-0.00047493,0,
00:01.6,0.005270004,0.002981186,-0.000452042,0,
00:01.6,0.005275726,0.002981186,-0.000440598,0,
00:01.6,0.005270004,0.002981186,-0.000463486,0,
00:01.6,0.005270004,0.002975464,-0.000434875,0,
00:01.6,0.005275726,0.002981186,-0.00044632,0,
00:01.6,0.005270004,0.002981186,-0.000457764,0,
00:01.6,0.005270004,0.002981186,-0.000457764,0,
00:01.6,0.005270004,0.002986908,-0.00047493,0,
00:01.6,0.005275726,0.00299263,-0.000492096,0,
00:01.6,0.005281448,0.002998352,-0.000434875,0,
00:01.6,0.00525856,0.002975464,-0.000440598,0,
00:01.6,0.005264282,0.002975464,-0.000457764,0,
00:01.6,0.005264282,0.002975464,-0.00044632,0,
00:01.6,0.005270004,0.002975464,-0.000440598,0,
00:01.6,0.005270004,0.002986908,-0.000440598,0,
00:01.6,0.005264282,0.002986908,-0.000463486,0,
00:01.6,0.005281448,0.002986908,-0.000457764,0,
00:01.6,0.00528717,0.002981186,-0.00047493,0,
00:01.6,0.005252838,0.002986908,-0.000463486,0,
00:01.6,0.005270004,0.002981186,-0.000457764,0,
00:01.6,0.005264282,0.002986908,-0.000452042,0,
00:01.6,0.00525856,0.002981186,-0.000457764,0,
00:01.6,0.005264282,0.002981186,-0.00044632,0,
00:01.6,0.00528717,0.002975464,-0.000440598,0,
00:01.7,0.005275726,0.002981186,-0.000452042,0,
00:01.7,0.005270004,0.002981186,-0.000469208,0,
00:01.7,0.005247116,0.002986908,-0.000429153,0,
00:01.7,0.005247116,0.002969742,-0.000457764,0,
00:01.7,0.005252838,0.002975464,-0.000469208,0,
00:01.7,0.00525856,0.002981186,-0.00044632,0,
00:01.7,0.005252838,0.002981186,-0.000429153,0,
00:01.7,0.005252838,0.002981186,-0.00044632,0,
00:01.7,0.00525856,0.002981186,-0.000463486,0,
00:01.7,0.005275726,0.002986908,-0.000469208,0,
00:01.7,0.005252838,0.002969742,-0.000463486,0,
00:01.7,0.005264282,0.002975464,-0.000434875,0,
00:01.7,0.005247116,0.002981186,-0.00044632,0,
00:01.7,0.005264282,0.002969742,-0.000434875,0,
00:01.7,0.005252838,0.002975464,-0.000429153,0,
00:01.7,0.005247116,0.002975464,-0.000434875,0,
00:01.7,0.005241394,0.002958298,-0.000434875,0,
00:01.7,0.005241394,0.00296402,-0.000434875,0,
00:01.7,0.005247116,0.002975464,-0.00044632,0,
00:01.7,0.005247116,0.002981186,-0.00044632,0,
00:01.7,0.005252838,0.002981186,-0.000463486,0,
00:01.7,0.005247116,0.002981186,-0.000463486,0,
00:01.7,0.005252838,0.002975464,-0.00044632,0,
00:01.7,0.005247116,0.002975464,-0.000480652,0,
00:01.7,0.005241394,0.002969742,-0.00044632,0,
00:01.8,0.005241394,0.002981186,-0.000411987,0,
00:01.8,0.00525856,0.002969742,-0.000480652,0,
00:01.8,0.005241394,0.002986908,-0.000486374,0,
00:01.8,0.00522995,0.002975464,-0.000440598,0,
00:01.8,0.005235672,0.00296402,-0.000400543,0,
00:01.8,0.005247116,0.002969742,-0.000452042,0,
00:01.8,0.005275726,0.002975464,-0.000452042,0,
00:01.8,0.005252838,0.002981186,-0.000457764,0,
00:01.8,0.005235672,0.002986908,-0.00047493,0,
00:01.8,0.005235672,0.00299263,-0.000423431,0,
00:01.8,0.005224228,0.002981186,-0.000434875,0,
00:01.8,0.00522995,0.002981186,-0.000434875,0,
00:01.8,0.005224228,0.002975464,-0.000434875,0,
00:01.8,0.005224228,0.002975464,-0.000429153,0,
00:01.8,0.00522995,0.002975464,-0.000440598,0,
00:01.8,0.00522995,0.002981186,-0.000440598,0,
00:01.8,0.00522995,0.002981186,-0.000457764,0,
00:01.8,0.00522995,0.002969742,-0.000457764,0,
00:01.8,0.00522995,0.002975464,-0.000452042,0,
00:01.8,0.00522995,0.002975464,-0.00047493,0,
00:01.8,0.005218506,0.002975464,-0.000463486,0,
00:01.8,0.005212784,0.002981186,-0.000469208,0,
00:01.8,0.00522995,0.002981186,-0.00044632,0,
00:01.8,0.005224228,0.002975464,-0.00044632,0,
00:01.8,0.005224228,0.002986908,-0.000440598,0,
00:01.9,0.005224228,0.00299263,-0.000452042,0,
00:01.9,0.005218506,0.002981186,-0.000457764,0,
00:01.9,0.005218506,0.002981186,-0.000452042,0,
00:01.9,0.005218506,0.002975464,-0.000440598,0,
00:01.9,0.005218506,0.002981186,-0.000452042,0,
00:01.9,0.00522995,0.00299263,-0.00044632,0,
00:01.9,0.00522995,0.00299263,-0.000480652,0,
00:01.9,0.005247116,0.00299263,-0.000452042,0,
00:01.9,0.005218506,0.002975464,-0.000434875,0,
00:01.9,0.005207062,0.002981186,-0.000429153,0,
00:01.9,0.005207062,0.002981186,-0.000440598,0,
00:01.9,0.00520134,0.002975464,-0.000440598,0,
00:01.9,0.005218506,0.002975464,-0.000457764,0,
00:01.9,0.005212784,0.002975464,-0.000457764,0,
00:01.9,0.005235672,0.002986908,-0.000434875,0,
00:01.9,0.005218506,0.002986908,-0.000440598,0,
00:01.9,0.005224228,0.00299263,-0.00044632,0,
00:01.9,0.005212784,0.00299263,-0.000457764,0,
00:01.9,0.005218506,0.002998352,-0.000463486,0,
00:01.9,0.00522995,0.002998352,-0.00044632,0,
00:01.9,0.005218506,0.002975464,-0.00044632,0,
00:01.9,0.005212784,0.002969742,-0.000423431,0,
00:01.9,0.005212784,0.002969742,-0.00044632,0,
00:01.9,0.005218506,0.002986908,-0.000440598,0,
00:01.9,0.005218506,0.002981186,-0.000429153,0,
00:02.0,0.005218506,0.002986908,-0.000452042,0,
00:02.0,0.005212784,0.002981186,-0.000469208,0,
00:02.0,0.005218506,0.002986908,-0.000463486,0,
00:02.0,0.005212784,0.00299263,-0.000440598,0,
00:02.0,0.005218506,0.002998352,-0.000457764,0,
00:02.0,0.005218506,0.002986908,-0.000434875,0,
00:02.0,0.005212784,0.002981186,-0.00044632,0,
00:02.0,0.005212784,0.002981186,-0.00044632,0,
00:02.0,0.005212784,0.002975464,-0.000411987,0,
00:02.0,0.005218506,0.002975464,-0.000434875,0,
00:02.0,0.005218506,0.002975464,-0.00044632,0,
00:02.0,0.005212784,0.002975464,-0.00044632,0,
00:00:02,0.005212784,0.002981186,-0.000469208,0,
00:02.0,0.005224228,0.002981186,-0.000440598,0,
00:02.0,0.005235672,0.002975464,-0.000452042,0,
00:02.0,0.005212784,0.002986908,-0.000452042,0,
00:02.0,0.005207062,0.002975464,-0.00044632,0,
00:02.0,0.005207062,0.00296402,-0.000440598,0,
00:02.0,0.005235672,0.002986908,-0.000452042,0,
00:02.0,0.00520134,0.002975464,-0.000440598,0,
00:02.0,0.00520134,0.002975464,-0.000423431,0,
00:02.0,0.005207062,0.002975464,-0.000434875,0,
00:02.0,0.00520134,0.00296402,-0.000423431,0,
00:02.0,0.005207062,0.002975464,-0.000434875,0,
00:02.0,0.005207062,0.002975464,-0.000440598,0,
00:02.1,0.005207062,0.002969742,-0.00044632,0,
00:02.1,0.005212784,0.002986908,-0.00044632,0,
00:02.1,0.005207062,0.00299263,-0.000457764,0,
00:02.1,0.005212784,0.002981186,-0.000457764,0,
00:02.1,0.005207062,0.002986908,-0.000440598,0,
00:02.1,0.005207062,0.002986908,-0.000434875,0,
00:02.1,0.005212784,0.002981186,-0.000440598,0,
00:02.1,0.005212784,0.002981186,-0.000434875,0,
00:02.1,0.00520134,0.002986908,-0.000457764,0,
00:02.1,0.005218506,0.00299263,-0.00050354,0,
00:02.1,0.005218506,0.002986908,-0.00044632,0,
00:02.1,0.00520134,0.002958298,-0.000423431,0,
00:02.1,0.005184174,0.002975464,-0.000434875,0,
00:02.1,0.005195618,0.002981186,-0.00044632,0,
00:02.1,0.00520134,0.002969742,-0.000400543,0,
00:02.1,0.005189896,0.00296402,-0.000411987,0,
00:02.1,0.005195618,0.002975464,-0.000429153,0,
00:02.1,0.005195618,0.002975464,-0.000429153,0,
00:02.1,0.005195618,0.002981186,-0.000440598,0,
00:02.1,0.005195618,0.002981186,-0.000452042,0,
00:02.1,0.005195618,0.002975464,-0.00044632,0,
00:02.1,0.00520134,0.002975464,-0.000452042,0,
00:02.1,0.005189896,0.002975464,-0.000463486,0,
00:02.1,0.005195618,0.00299263,-0.000463486,0,
00:02.1,0.005207062,0.00299263,-0.000434875,0,
00:02.2,0.005195618,0.002969742,-0.000423431,0,
00:02.2,0.005189896,0.002969742,-0.000417709,0,
00:02.2,0.005189896,0.002975464,-0.000434875,0,
00:02.2,0.005189896,0.002975464,-0.000452042,0,
00:02.2,0.005195618,0.002981186,-0.000457764,0,
00:02.2,0.00520134,0.00299263,-0.000457764,0,
00:02.2,0.005189896,0.002986908,-0.000440598,0,
00:02.2,0.005195618,0.002981186,-0.000411987,0,
00:02.2,0.005189896,0.002975464,-0.000429153,0,
00:02.2,0.005189896,0.002981186,-0.00044632,0,
00:02.2,0.005189896,0.002981186,-0.00044632,0,
00:02.2,0.005184174,0.002975464,-0.000417709,0,
00:02.2,0.005189896,0.002981186,-0.00044632,0,
00:02.2,0.005212784,0.002981186,-0.000463486,0,
00:02.2,0.00520134,0.002986908,-0.00044632,0,
00:02.2,0.005212784,0.00299263,-0.000434875,0,
00:02.2,0.005172729,0.002975464,-0.000434875,0,
00:02.2,0.005172729,0.002975464,-0.000434875,0,
00:02.2,0.005178452,0.002969742,-0.000423431,0,
00:02.2,0.005189896,0.002986908,-0.000417709,0,
00:02.2,0.005189896,0.002981186,-0.000440598,0,
00:02.2,0.005184174,0.002975464,-0.000440598,0,
00:02.2,0.005172729,0.002981186,-0.00044632,0,
00:02.2,0.005178452,0.00299263,-0.000434875,0,
00:02.2,0.005178452,0.002981186,-0.000423431,0,
00:02.3,0.005178452,0.002969742,-0.000417709,0,
00:02.3,0.005167007,0.002969742,-0.000423431,0,
00:02.3,0.005172729,0.002975464,-0.000434875,0,
00:02.3,0.005178452,0.002981186,-0.000417709,0,
00:02.3,0.005172729,0.00299263,-0.00044632,0,
00:02.3,0.005161285,0.002975464,-0.000463486,0,
00:02.3,0.005178452,0.002969742,-0.000417709,0,
00:02.3,0.005178452,0.002981186,-0.000429153,0,
00:02.3,0.005172729,0.002975464,-0.000429153,0,
00:02.3,0.005178452,0.002975464,-0.000411987,0,
00:02.3,0.005172729,0.002975464,-0.000417709,0,
00:02.3,0.005161285,0.002981186,-0.000423431,0,
00:02.3,0.005167007,0.002981186,-0.000434875,0,
00:02.3,0.005161285,0.002981186,-0.00044632,0,
00:02.3,0.005184174,0.00299263,-0.000440598,0,
00:02.3,0.005178452,0.003004074,-0.000440598,0,
00:02.3,0.005167007,0.002986908,-0.00044632,0,
00:02.3,0.005161285,0.002975464,-0.000434875,0,
00:02.3,0.005184174,0.002981186,-0.000406265,0,
00:02.3,0.005195618,0.002981186,-0.000406265,0,
00:02.3,0.005161285,0.002981186,-0.000411987,0,
00:02.3,0.005161285,0.002981186,-0.000411987,0,
00:02.3,0.005155563,0.002969742,-0.000423431,0,
00:02.3,0.005155563,0.002975464,-0.000423431,0,
00:02.3,0.005161285,0.00299263,-0.000429153,0,
00:02.4,0.005167007,0.00299263,-0.00044632,0,
00:02.4,0.005172729,0.00299263,-0.00044632,0,
00:02.4,0.005172729,0.002975464,-0.000389099,0,
00:02.4,0.005167007,0.002986908,-0.000406265,0,
00:02.4,0.005155563,0.00299263,-0.000406265,0,
00:02.4,0.005161285,0.002986908,-0.000429153,0,
00:02.4,0.005155563,0.002986908,-0.000440598,0,
00:02.4,0.005155563,0.002981186,-0.000429153,0,
00:02.4,0.005155563,0.002975464,-0.000423431,0,
00:02.4,0.005144119,0.00299263,-0.000417709,0,
00:02.4,0.005155563,0.002986908,-0.000417709,0,
00:02.4,0.005155563,0.002986908,-0.000400543,0,
00:02.4,0.005155563,0.00299263,-0.000429153,0,
00:02.4,0.005149841,0.002981186,-0.000434875,0,
00:02.4,0.005144119,0.002981186,-0.000417709,0,
00:02.4,0.005149841,0.002981186,-0.000406265,0,
00:02.4,0.005144119,0.002986908,-0.000429153,0,
00:02.4,0.005144119,0.002981186,-0.000429153,0,
00:02.4,0.005167007,0.002986908,-0.000434875,0,
00:02.4,0.005149841,0.002998352,-0.000429153,0,
00:02.4,0.005144119,0.002986908,-0.000417709,0,
00:02.4,0.005149841,0.002975464,-0.000423431,0,
00:02.4,0.005149841,0.002998352,-0.000469208,0,
00:02.4,0.005126953,0.002998352,-0.000440598,0,
00:02.4,0.005138397,0.002975464,-0.000411987,0,
00:02.5,0.005144119,0.002981186,-0.000394821,0,
00:02.5,0.005138397,0.002975464,-0.000417709,0,
00:02.5,0.005132675,0.002975464,-0.000423431,0,
00:02.5,0.005138397,0.002981186,-0.000411987,0,
00:02.5,0.005149841,0.00299263,-0.000411987,0,
00:02.5,0.005132675,0.002998352,-0.000423431,0,
00:02.5,0.005138397,0.002981186,-0.00044632,0,
00:02.5,0.005138397,0.002998352,-0.000469208,0,
00:02.5,0.005132675,0.002998352,-0.000429153,0,
00:02.5,0.005132675,0.002975464,-0.000389099,0,
00:02.5,0.005132675,0.002969742,-0.000400543,0,
00:02.5,0.005132675,0.002981186,-0.000417709,0,
00:02.5,0.005132675,0.002981186,-0.000434875,0,
00:02.5,0.005132675,0.002981186,-0.000429153,0,
00:02.5,0.005132675,0.002981186,-0.000411987,0,
00:02.5,0.005132675,0.00299263,-0.000434875,0,
00:02.5,0.005126953,0.002998352,-0.000440598,0,
00:02.5,0.005138397,0.00299263,-0.000469208,0,
00:02.5,0.005138397,0.002998352,-0.000429153,0,
00:02.5,0.005132675,0.002986908,-0.000406265,0,
00:02.5,0.005115509,0.002986908,-0.000406265,0,
00:02.5,0.005121231,0.002981186,-0.000429153,0,
00:02.5,0.005121231,0.002981186,-0.000423431,0,
00:02.5,0.005126953,0.00299263,-0.000417709,0,
00:02.5,0.005126953,0.00299263,-0.000423431,0,
00:02.6,0.005121231,0.002986908,-0.000440598,0,
00:02.6,0.005126953,0.002981186,-0.000452042,0,
00:02.6,0.005149841,0.002986908,-0.00044632,0,
00:02.6,0.005126953,0.002986908,-0.000440598,0,
00:02.6,0.005104065,0.002981186,-0.000429153,0,
00:02.6,0.005098343,0.002975464,-0.000417709,0,
00:02.6,0.005115509,0.00299263,-0.000423431,0,
00:02.6,0.005121231,0.002986908,-0.000417709,0,
00:02.6,0.005115509,0.00299263,-0.000434875,0,
00:02.6,0.005104065,0.002986908,-0.000429153,0,
00:02.6,0.005104065,0.002986908,-0.000406265,0,
00:02.6,0.005104065,0.002981186,-0.000411987,0,
00:02.6,0.005109787,0.002975464,-0.000411987,0,
00:02.6,0.005104065,0.00299263,-0.000434875,0,
00:02.6,0.005109787,0.002986908,-0.00044632,0,
00:02.6,0.005109787,0.00299263,-0.000429153,0,
00:02.6,0.005104065,0.002986908,-0.000417709,0,
00:02.6,0.005109787,0.002986908,-0.000434875,0,
00:02.6,0.005104065,0.002981186,-0.000440598,0,
00:02.6,0.005092621,0.00299263,-0.000434875,0,
00:02.6,0.005098343,0.002986908,-0.000411987,0,
00:02.6,0.005098343,0.002986908,-0.000423431,0,
00:02.6,0.005098343,0.002986908,-0.000440598,0,
00:02.6,0.005098343,0.002986908,-0.000434875,0,
00:02.6,0.005098343,0.002986908,-0.000469208,0,
00:02.7,0.005098343,0.002998352,-0.000434875,0,
00:02.7,0.005086899,0.002986908,-0.000434875,0,
00:02.7,0.005098343,0.003004074,-0.000423431,0,
00:02.7,0.005104065,0.002998352,-0.000411987,0,
00:02.7,0.005086899,0.002975464,-0.000411987,0,
00:02.7,0.005086899,0.002981186,-0.000406265,0,
00:02.7,0.005086899,0.002986908,-0.000423431,0,
00:02.7,0.005092621,0.002981186,-0.000452042,0,
00:02.7,0.005081177,0.002986908,-0.000452042,0,
00:02.7,0.005092621,0.00299263,-0.000423431,0,
00:02.7,0.005109787,0.002986908,-0.000411987,0,
00:02.7,0.005075455,0.002986908,-0.000417709,0,
00:02.7,0.005069733,0.00299263,-0.000429153,0,
00:02.7,0.005086899,0.00299263,-0.000429153,0,
00:02.7,0.005081177,0.00299263,-0.000417709,0,
00:02.7,0.005081177,0.002986908,-0.000411987,0,
00:02.7,0.005081177,0.002981186,-0.000434875,0,
00:02.7,0.005075455,0.002981186,-0.000434875,0,
00:02.7,0.005075455,0.002986908,-0.000429153,0,
00:02.7,0.005081177,0.002998352,-0.000434875,0,
00:02.7,0.005081177,0.002998352,-0.000469208,0,
00:02.7,0.005081177,0.002998352,-0.000429153,0,
00:02.7,0.005075455,0.00299263,-0.000394821,0,
00:02.7,0.005069733,0.00299263,-0.000417709,0,
00:02.7,0.005075455,0.002986908,-0.000423431,0,
00:02.8,0.005075455,0.002986908,-0.000423431,0,
00:02.8,0.005069733,0.002981186,-0.000423431,0,
00:02.8,0.005081177,0.00299263,-0.000429153,0,
00:02.8,0.005064011,0.002986908,-0.000417709,0,
00:02.8,0.005069733,0.003004074,-0.000423431,0,
00:02.8,0.005075455,0.003009796,-0.000452042,0,
00:02.8,0.005069733,0.002986908,-0.000434875,0,
00:02.8,0.005069733,0.002981186,-0.000417709,0,
00:02.8,0.005075455,0.002986908,-0.000417709,0,
00:02.8,0.005069733,0.00299263,-0.000411987,0,
00:02.8,0.005069733,0.002986908,-0.000406265,0,
00:02.8,0.005058289,0.002975464,-0.000423431,0,
00:02.8,0.005064011,0.002986908,-0.000434875,0,
00:02.8,0.005075455,0.00299263,-0.000434875,0,
00:02.8,0.005086899,0.002998352,-0.00044632,0,
00:02.8,0.005086899,0.003004074,-0.000463486,0,
00:02.8,0.005058289,0.00299263,-0.000452042,0,
00:02.8,0.005058289,0.002981186,-0.000411987,0,
00:02.8,0.005069733,0.002986908,-0.000394821,0,
00:02.8,0.005058289,0.00299263,-0.000406265,0,
00:02.8,0.005058289,0.002981186,-0.000411987,0,
00:02.8,0.005058289,0.002986908,-0.000417709,0,
00:02.8,0.005064011,0.00299263,-0.000423431,0,
00:02.8,0.005058289,0.00299263,-0.000434875,0,
00:02.8,0.005064011,0.002998352,-0.000440598,0,
00:02.9,0.005058289,0.002998352,-0.000417709,0,
00:02.9,0.005064011,0.002986908,-0.000423431,0,
00:02.9,0.005064011,0.002986908,-0.000434875,0,
00:02.9,0.005052567,0.002986908,-0.000411987,0,
00:02.9,0.005052567,0.002986908,-0.000411987,0,
00:02.9,0.005064011,0.00299263,-0.000423431,0,
00:02.9,0.005052567,0.002986908,-0.000429153,0,
00:02.9,0.005058289,0.00299263,-0.000434875,0,
00:02.9,0.005069733,0.003004074,-0.00044632,0,
00:02.9,0.005069733,0.003004074,-0.000469208,0,
00:02.9,0.005041122,0.00299263,-0.000457764,0,
00:02.9,0.005041122,0.002986908,-0.000440598,0,
00:02.9,0.005069733,0.002975464,-0.000400543,0,
00:02.9,0.005064011,0.002975464,-0.000394821,0,
00:02.9,0.0050354,0.00299263,-0.000406265,0,
00:02.9,0.005046844,0.00299263,-0.000411987,0,
00:02.9,0.005052567,0.002986908,-0.000423431,0,
00:02.9,0.005058289,0.002998352,-0.00044632,0,
00:02.9,0.005052567,0.002998352,-0.000457764,0,
00:02.9,0.005046844,0.002998352,-0.000440598,0,
00:02.9,0.005041122,0.00299263,-0.000417709,0,
00:02.9,0.005052567,0.002975464,-0.000434875,0,
00:02.9,0.005052567,0.002986908,-0.000411987,0,
00:02.9,0.005058289,0.00299263,-0.000417709,0,
00:02.9,0.005046844,0.00299263,-0.000429153,0,
00:03.0,0.005041122,0.00299263,-0.000440598,0,
00:03.0,0.005046844,0.002986908,-0.000429153,0,
00:03.0,0.005052567,0.002986908,-0.000429153,0,
00:03.0,0.005046844,0.002986908,-0.000429153,0,
00:03.0,0.005058289,0.00299263,-0.000423431,0,
00:03.0,0.005041122,0.002986908,-0.000440598,0,
00:03.0,0.005041122,0.002986908,-0.000423431,0,
00:03.0,0.005041122,0.002981186,-0.000429153,0,
00:03.0,0.005041122,0.002986908,-0.000423431,0,
00:03.0,0.005029678,0.002986908,-0.000417709,0,
00:03.0,0.005046844,0.002981186,-0.000400543,0,
00:03.0,0.0050354,0.002981186,-0.000411987,0,
00:00:03,0.005041122,0.002986908,-0.000423431,0,
00:03.0,0.0050354,0.002986908,-0.000423431,0,
00:03.0,0.005041122,0.00299263,-0.000429153,0,
00:03.0,0.0050354,0.002998352,-0.000452042,0,
00:03.0,0.005046844,0.002986908,-0.000457764,0,
00:03.0,0.005058289,0.002986908,-0.000417709,0,
00:03.0,0.005023956,0.00296402,-0.000417709,0,
00:03.0,0.005041122,0.002981186,-0.000411987,0,
00:03.0,0.005023956,0.002981186,-0.000400543,0,
00:03.0,0.005029678,0.002981186,-0.000411987,0,
00:03.0,0.005029678,0.002986908,-0.000429153,0,
00:03.0,0.005029678,0.002986908,-0.000423431,0,
00:03.0,0.005029678,0.002981186,-0.000452042,0,
00:03.1,0.0050354,0.002986908,-0.000463486,0,
00:03.1,0.005041122,0.002998352,-0.000440598,0,
00:03.1,0.005029678,0.002986908,-0.000417709,0,
00:03.1,0.005023956,0.002981186,-0.000383377,0,
00:03.1,0.005023956,0.002981186,-0.000389099,0,
00:03.1,0.005029678,0.002981186,-0.000411987,0,
00:03.1,0.005023956,0.002981186,-0.000417709,0,
00:03.1,0.005029678,0.002986908,-0.000417709,0,
00:03.1,0.005029678,0.002986908,-0.000417709,0,
00:03.1,0.005029678,0.002986908,-0.000423431,0,
00:03.1,0.005023956,0.002986908,-0.000452042,0,
00:03.1,0.005023956,0.002986908,-0.000486374,0,
00:03.1,0.005041122,0.00299263,-0.000429153,0,
00:03.1,0.005029678,0.002998352,-0.000406265,0,
00:03.1,0.005018234,0.00299263,-0.000394821,0,
00:03.1,0.005018234,0.002975464,-0.000389099,0,
00:03.1,0.005023956,0.002981186,-0.000406265,0,
00:03.1,0.005018234,0.002981186,-0.000406265,0,
00:03.1,0.005018234,0.002981186,-0.000411987,0,
00:03.1,0.005018234,0.002986908,-0.000429153,0,
00:03.1,0.005023956,0.002986908,-0.000429153,0,
00:03.1,0.005023956,0.002986908,-0.000457764,0,
00:03.1,0.005046844,0.002998352,-0.000457764,0,
00:03.1,0.005023956,0.002986908,-0.000440598,0,
00:03.1,0.005029678,0.002981186,-0.000400543,0,
00:03.2,0.005001068,0.00296402,-0.000400543,0,
00:03.2,0.005012512,0.002969742,-0.000394821,0,
00:03.2,0.005012512,0.002975464,-0.000400543,0,
00:03.2,0.005018234,0.002975464,-0.000411987,0,
00:03.2,0.005018234,0.002981186,-0.000406265,0,
00:03.2,0.005018234,0.002975464,-0.000406265,0,
00:03.2,0.005012512,0.002981186,-0.000417709,0,
00:03.2,0.005018234,0.002981186,-0.000423431,0,
00:03.2,0.005012512,0.002986908,-0.000429153,0,
00:03.2,0.005023956,0.002998352,-0.000452042,0,
00:03.2,0.005018234,0.003004074,-0.000486374,0,
00:03.2,0.005023956,0.00299263,-0.00044632,0,
00:03.2,0.005012512,0.002981186,-0.000411987,0,
00:03.2,0.005001068,0.002958298,-0.000417709,0,
00:03.2,0.005012512,0.002975464,-0.000394821,0,
00:03.2,0.005018234,0.002981186,-0.000383377,0,
00:03.2,0.005012512,0.002975464,-0.000389099,0,
00:03.2,0.00500679,0.002975464,-0.000411987,0,
00:03.2,0.005012512,0.002975464,-0.000417709,0,
00:03.2,0.005018234,0.002981186,-0.000411987,0,
00:03.2,0.005012512,0.002981186,-0.000417709,0,
00:03.2,0.004995346,0.002981186,-0.000429153,0,
00:03.2,0.005001068,0.002986908,-0.000429153,0,
00:03.2,0.005012512,0.00299263,-0.000417709,0,
00:03.2,0.00500679,0.002986908,-0.000423431,0,
00:03.3,0.00500679,0.002975464,-0.000411987,0,
00:03.3,0.00500679,0.002975464,-0.000434875,0,
00:03.3,0.005001068,0.002969742,-0.000411987,0,
00:03.3,0.005001068,0.002969742,-0.000406265,0,
00:03.3,0.005012512,0.002975464,-0.000417709,0,
00:03.3,0.005012512,0.002981186,-0.000429153,0,
00:03.3,0.00500679,0.002981186,-0.000434875,0,
00:03.3,0.005001068,0.002969742,-0.000429153,0,
00:03.3,0.005001068,0.00296402,-0.000434875,0,
00:03.3,0.00500679,0.002986908,-0.000480652,0,
00:03.3,0.00500679,0.002986908,-0.000423431,0,
00:03.3,0.004995346,0.002981186,-0.000389099,0,
00:03.3,0.004995346,0.00296402,-0.000406265,0,
00:03.3,0.005029678,0.002975464,-0.000400543,0,
00:03.3,0.004995346,0.002975464,-0.000411987,0,
00:03.3,0.005001068,0.002975464,-0.000423431,0,
00:03.3,0.004995346,0.002975464,-0.000411987,0,
00:03.3,0.004989624,0.002981186,-0.000423431,0,
00:03.3,0.004989624,0.002986908,-0.000423431,0,
00:03.3,0.004989624,0.002981186,-0.000434875,0,
00:03.3,0.004995346,0.002975464,-0.000417709,0,
00:03.3,0.004989624,0.002975464,-0.000423431,0,
00:03.3,0.004995346,0.002975464,-0.000411987,0,
00:03.3,0.004983902,0.002958298,-0.000406265,0,
00:03.3,0.004989624,0.00296402,-0.000406265,0,
00:03.4,0.004989624,0.002969742,-0.000411987,0,
00:03.4,0.004995346,0.002975464,-0.000429153,0,
00:03.4,0.004989624,0.002975464,-0.000417709,0,
00:03.4,0.004989624,0.002975464,-0.000423431,0,
00:03.4,0.004989624,0.002969742,-0.000406265,0,
00:03.4,0.004989624,0.002975464,-0.000429153,0,
00:03.4,0.004989624,0.002969742,-0.000440598,0,
00:03.4,0.004989624,0.002975464,-0.000434875,0,
00:03.4,0.00497818,0.002969742,-0.000400543,0,
00:03.4,0.00497818,0.00296402,-0.000400543,0,
00:03.4,0.00497818,0.002969742,-0.000411987,0,
00:03.4,0.00497818,0.002969742,-0.000411987,0,
00:03.4,0.00497818,0.002969742,-0.000429153,0,
00:03.4,0.004972458,0.002975464,-0.000423431,0,
00:03.4,0.00497818,0.002975464,-0.000417709,0,
00:03.4,0.004983902,0.002969742,-0.000434875,0,
00:03.4,0.004972458,0.002981186,-0.000434875,0,
00:03.4,0.004989624,0.002975464,-0.000429153,0,
00:03.4,0.004983902,0.002969742,-0.000417709,0,
00:03.4,0.004961014,0.00296402,-0.000383377,0,
00:03.4,0.004966736,0.002975464,-0.000417709,0,
00:03.4,0.004966736,0.002981186,-0.000429153,0,
00:03.4,0.004961014,0.002969742,-0.000400543,0,
00:03.4,0.004961014,0.002975464,-0.000394821,0,
00:03.4,0.004966736,0.002975464,-0.000389099,0,
00:03.5,0.004961014,0.002969742,-0.000406265,0,
00:03.5,0.004972458,0.002981186,-0.000429153,0,
00:03.5,0.004961014,0.002975464,-0.000423431,0,
00:03.5,0.004955292,0.002986908,-0.000406265,0,
00:03.5,0.004955292,0.002981186,-0.000440598,0,
00:03.5,0.004955292,0.002969742,-0.000423431,0,
00:03.5,0.004955292,0.002975464,-0.000406265,0,
00:03.5,0.004972458,0.002975464,-0.000434875,0,
00:03.5,0.004955292,0.00299263,-0.000423431,0,
00:03.5,0.004961014,0.002981186,-0.000383377,0,
00:03.5,0.004943848,0.002975464,-0.000394821,0,
00:03.5,0.004961014,0.002975464,-0.000394821,0,
00:03.5,0.004955292,0.002975464,-0.000411987,0,
00:03.5,0.004955292,0.002986908,-0.000411987,0,
00:03.5,0.004955292,0.002981186,-0.000423431,0,
00:03.5,0.00494957,0.002981186,-0.000429153,0,
00:03.5,0.004955292,0.00299263,-0.000417709,0,
00:03.5,0.004955292,0.002981186,-0.000406265,0,
00:03.5,0.00494957,0.002969742,-0.000423431,0,
00:03.5,0.00494957,0.002975464,-0.000411987,0,
00:03.5,0.004955292,0.002981186,-0.000417709,0,
00:03.5,0.00494957,0.002981186,-0.000423431,0,
00:03.5,0.004938126,0.002975464,-0.000389099,0,
00:03.5,0.004955292,0.002981186,-0.000411987,0,
00:03.5,0.004943848,0.002981186,-0.000406265,0,
00:03.6,0.004938126,0.002975464,-0.000400543,0,
00:03.6,0.00494957,0.002981186,-0.000406265,0,
00:03.6,0.00494957,0.002986908,-0.000423431,0,
00:03.6,0.004938126,0.00296402,-0.000434875,0,
00:03.6,0.004943848,0.002986908,-0.000417709,0,
00:03.6,0.004943848,0.002986908,-0.00044632,0,
00:03.6,0.004932404,0.00296402,-0.000440598,0,
00:03.6,0.004938126,0.002975464,-0.000371933,0,
00:03.6,0.004932404,0.00299263,-0.000411987,0,
00:03.6,0.004943848,0.00299263,-0.00044632,0,
00:03.6,0.004966736,0.002986908,-0.000406265,0,
00:03.6,0.004926682,0.002969742,-0.000394821,0,
00:03.6,0.004932404,0.002969742,-0.000423431,0,
00:03.6,0.004932404,0.002969742,-0.000440598,0,
00:03.6,0.004938126,0.002981186,-0.000400543,0,
00:03.6,0.004943848,0.002981186,-0.000394821,0,
00:03.6,0.004932404,0.002975464,-0.000383377,0,
00:03.6,0.004938126,0.002986908,-0.000406265,0,
00:03.6,0.004938126,0.002981186,-0.000429153,0,
00:03.6,0.004938126,0.002981186,-0.000389099,0,
00:03.6,0.004932404,0.002981186,-0.000400543,0,
00:03.6,0.004932404,0.002986908,-0.000434875,0,
00:03.6,0.004938126,0.002998352,-0.000417709,0,
00:03.6,0.004938126,0.002981186,-0.000406265,0,
00:03.6,0.004932404,0.002975464,-0.000417709,0,
00:03.7,0.004926682,0.002981186,-0.000429153,0,
00:03.7,0.004938126,0.002986908,-0.000440598,0,
00:03.7,0.004938126,0.002981186,-0.000400543,0,
00:03.7,0.004926682,0.002981186,-0.000383377,0,
00:03.7,0.004926682,0.00299263,-0.000434875,0,
00:03.7,0.004955292,0.002975464,-0.000440598,0,
00:03.7,0.004926682,0.002975464,-0.000423431,0,
00:03.7,0.004932404,0.002981186,-0.000377655,0,
00:03.7,0.004955292,0.002986908,-0.000400543,0,
00:03.7,0.004926682,0.002975464,-0.000417709,0,
00:03.7,0.004926682,0.002981186,-0.000423431,0,
00:03.7,0.004915237,0.002975464,-0.000406265,0,
00:03.7,0.004920959,0.002981186,-0.000406265,0,
00:03.7,0.004920959,0.002981186,-0.000440598,0,
00:03.7,0.004915237,0.002981186,-0.000383377,0,
00:03.7,0.004909515,0.002981186,-0.000400543,0,
00:03.7,0.004909515,0.002975464,-0.000440598,0,
00:03.7,0.004920959,0.002981186,-0.000429153,0,
00:03.7,0.004915237,0.002986908,-0.000411987,0,
00:03.7,0.004915237,0.002981186,-0.000383377,0,
00:03.7,0.004920959,0.002975464,-0.000423431,0,
00:03.7,0.004920959,0.002986908,-0.000400543,0,
00:03.7,0.004915237,0.002981186,-0.000389099,0,
00:03.7,0.004926682,0.002981186,-0.000394821,0,
00:03.7,0.004920959,0.00299263,-0.000411987,0,
00:03.8,0.004898071,0.002986908,-0.000452042,0,
00:03.8,0.004943848,0.002981186,-0.000411987,0,
00:03.8,0.004926682,0.002975464,-0.000383377,0,
00:03.8,0.004898071,0.002975464,-0.000394821,0,
00:03.8,0.004909515,0.002969742,-0.000411987,0,
00:03.8,0.004909515,0.00299263,-0.000417709,0,
00:03.8,0.004915237,0.002986908,-0.000411987,0,
00:03.8,0.004909515,0.002969742,-0.000394821,0,
00:03.8,0.004903793,0.002986908,-0.000400543,0,
00:03.8,0.004915237,0.002975464,-0.000406265,0,
00:03.8,0.004903793,0.002969742,-0.000411987,0,
00:03.8,0.004903793,0.002969742,-0.000400543,0,
00:03.8,0.004903793,0.002969742,-0.000389099,0,
00:03.8,0.004903793,0.002969742,-0.000400543,0,
00:03.8,0.004909515,0.002981186,-0.000394821,0,
00:03.8,0.004909515,0.002986908,-0.000423431,0,
00:03.8,0.004909515,0.002986908,-0.000400543,0,
00:03.8,0.004903793,0.002975464,-0.000389099,0,
00:03.8,0.004909515,0.002981186,-0.000400543,0,
00:03.8,0.004909515,0.002969742,-0.000411987,0,
00:03.8,0.004903793,0.002975464,-0.000411987,0,
00:03.8,0.004909515,0.002981186,-0.000406265,0,
00:03.8,0.004898071,0.002981186,-0.000400543,0,
00:03.8,0.004909515,0.002998352,-0.000423431,0,
00:03.8,0.004915237,0.00299263,-0.000423431,0,
00:03.9,0.004909515,0.00296402,-0.000394821,0,
00:03.9,0.004920959,0.002969742,-0.000394821,0,
00:03.9,0.004909515,0.002975464,-0.000383377,0,
00:03.9,0.004903793,0.002975464,-0.000389099,0,
00:03.9,0.004898071,0.002975464,-0.000394821,0,
00:03.9,0.004903793,0.002969742,-0.000440598,0,
00:03.9,0.004898071,0.002975464,-0.000406265,0,
00:03.9,0.004898071,0.002969742,-0.000400543,0,
00:03.9,0.004903793,0.002981186,-0.000394821,0,
00:03.9,0.004903793,0.002981186,-0.000411987,0,
00:03.9,0.004892349,0.002969742,-0.000371933,0,
00:03.9,0.004898071,0.002969742,-0.000394821,0,
00:03.9,0.004903793,0.002981186,-0.000429153,0,
00:03.9,0.004892349,0.002958298,-0.000400543,0,
00:03.9,0.004892349,0.00296402,-0.000400543,0,
00:03.9,0.004903793,0.002975464,-0.000411987,0,
00:03.9,0.004886627,0.002969742,-0.000389099,0,
00:03.9,0.004875183,0.00296402,-0.000389099,0,
00:03.9,0.004898071,0.002975464,-0.000394821,0,
00:03.9,0.004892349,0.002969742,-0.000400543,0,
00:03.9,0.004892349,0.002969742,-0.000400543,0,
00:03.9,0.004886627,0.00296402,-0.000406265,0,
00:03.9,0.004880905,0.00296402,-0.000394821,0,
00:03.9,0.004892349,0.00296402,-0.000406265,0,
00:03.9,0.004892349,0.002975464,-0.000406265,0,
00:04.0,0.004892349,0.002975464,-0.000411987,0,
00:04.0,0.004886627,0.002975464,-0.000417709,0,
00:04.0,0.004886627,0.002975464,-0.000400543,0,
00:04.0,0.004886627,0.002975464,-0.000389099,0,
00:04.0,0.004875183,0.00296402,-0.000394821,0,
00:04.0,0.004892349,0.002969742,-0.000400543,0,
00:04.0,0.004898071,0.002969742,-0.000394821,0,
00:04.0,0.004858017,0.002958298,-0.000394821,0,
00:04.0,0.004869461,0.002969742,-0.000400543,0,
00:04.0,0.004886627,0.002981186,-0.000383377,0,
00:04.0,0.004880905,0.002975464,-0.000400543,0,
00:04.0,0.004880905,0.002969742,-0.000400543,0,
00:00:04,0.004875183,0.00296402,-0.000389099,0,
00:04.0,0.004869461,0.002969742,-0.000400543,0,
00:04.0,0.004875183,0.002975464,-0.000417709,0,
00:04.0,0.004875183,0.00296402,-0.000383377,0,
00:04.0,0.004875183,0.002969742,-0.000389099,0,
00:04.0,0.004875183,0.002975464,-0.000411987,0,
00:04.0,0.004886627,0.002975464,-0.000423431,0,
00:04.0,0.004875183,0.002981186,-0.000411987,0,
00:04.0,0.004892349,0.002969742,-0.000429153,0,
00:04.0,0.004875183,0.00296402,-0.000383377,0,
00:04.0,0.004863739,0.00296402,-0.000366211,0,
00:04.0,0.004863739,0.00296402,-0.000377655,0,
00:04.0,0.004863739,0.002969742,-0.000383377,0,
00:04.1,0.004863739,0.002969742,-0.000400543,0,
00:04.1,0.004863739,0.002969742,-0.000394821,0,
00:04.1,0.004863739,0.002975464,-0.000394821,0,
00:04.1,0.004858017,0.002975464,-0.000406265,0,
00:04.1,0.004875183,0.002986908,-0.000429153,0,
00:04.1,0.004863739,0.002981186,-0.000417709,0,
00:04.1,0.004869461,0.002969742,-0.000417709,0,
00:04.1,0.004863739,0.00296402,-0.000411987,0,
00:04.1,0.004852295,0.002958298,-0.000389099,0,
00:04.1,0.004858017,0.002958298,-0.000371933,0,
00:04.1,0.004880905,0.00296402,-0.000394821,0,
00:04.1,0.004846573,0.00296402,-0.000452042,0,
00:04.1,0.004846573,0.002981186,-0.000394821,0,
00:04.1,0.004858017,0.002969742,-0.000377655,0,
00:04.1,0.004858017,0.002969742,-0.000400543,0,
00:04.1,0.004846573,0.002969742,-0.000406265,0,
00:04.1,0.004863739,0.002986908,-0.000406265,0,
00:04.1,0.004852295,0.002975464,-0.000394821,0,
00:04.1,0.004835129,0.002958298,-0.000371933,0,
00:04.1,0.004846573,0.002969742,-0.000383377,0,
00:04.1,0.004846573,0.002969742,-0.000394821,0,
00:04.1,0.004846573,0.002969742,-0.000400543,0,
00:04.1,0.004852295,0.002981186,-0.000406265,0,
00:04.1,0.004858017,0.002986908,-0.000417709,0,
00:04.1,0.004852295,0.002975464,-0.000423431,0,
00:04.2,0.004846573,0.00296402,-0.000417709,0,
00:04.2,0.004852295,0.002975464,-0.000406265,0,
00:04.2,0.004846573,0.002975464,-0.000417709,0,
00:04.2,0.004858017,0.002986908,-0.000394821,0,
00:04.2,0.004835129,0.00296402,-0.000400543,0,
00:04.2,0.004852295,0.002958298,-0.000371933,0,
00:04.2,0.004835129,0.00296402,-0.000383377,0,
00:04.2,0.004840851,0.002969742,-0.000383377,0,
00:04.2,0.004846573,0.002975464,-0.000394821,0,
00:04.2,0.004846573,0.002969742,-0.000406265,0,
00:04.2,0.004835129,0.002958298,-0.000406265,0,
00:04.2,0.004840851,0.002981186,-0.000423431,0,
00:04.2,0.004840851,0.002975464,-0.000389099,0,
00:04.2,0.004840851,0.002969742,-0.000389099,0,
00:04.2,0.004852295,0.002975464,-0.000406265,0,
00:04.2,0.004835129,0.002958298,-0.000400543,0,
00:04.2,0.004846573,0.002958298,-0.000383377,0,
00:04.2,0.004835129,0.00296402,-0.000389099,0,
00:04.2,0.004835129,0.002975464,-0.000394821,0,
00:04.2,0.004840851,0.002975464,-0.000423431,0,
00:04.2,0.004846573,0.002975464,-0.000400543,0,
00:04.2,0.004835129,0.002969742,-0.000400543,0,
00:04.2,0.004829407,0.002958298,-0.000383377,0,
00:04.2,0.004835129,0.002969742,-0.000423431,0,
00:04.2,0.004840851,0.002969742,-0.000400543,0,
00:04.3,0.004863739,0.002969742,-0.000394821,0,
00:04.3,0.004823685,0.00296402,-0.000394821,0,
00:04.3,0.004835129,0.002969742,-0.000383377,0,
00:04.3,0.004829407,0.00296402,-0.000371933,0,
00:04.3,0.004823685,0.002969742,-0.000411987,0,
00:04.3,0.004835129,0.002975464,-0.000406265,0,
00:04.3,0.004835129,0.002975464,-0.000400543,0,
00:04.3,0.004823685,0.002952576,-0.000389099,0,
00:04.3,0.004829407,0.00296402,-0.000383377,0,
00:04.3,0.004840851,0.002969742,-0.000389099,0,
00:04.3,0.004846573,0.002969742,-0.000394821,0,
00:04.3,0.004817963,0.002969742,-0.000394821,0,
00:04.3,0.004823685,0.002981186,-0.000400543,0,
00:04.3,0.004823685,0.002969742,-0.000383377,0,
00:04.3,0.004817963,0.002958298,-0.000383377,0,
00:04.3,0.004812241,0.002958298,-0.000400543,0,
00:04.3,0.004817963,0.00296402,-0.000394821,0,
00:04.3,0.004817963,0.002969742,-0.000400543,0,
00:04.3,0.004817963,0.002969742,-0.000389099,0,
00:04.3,0.004817963,0.002969742,-0.000411987,0,
00:04.3,0.004817963,0.00296402,-0.000406265,0,
00:04.3,0.004800797,0.00296402,-0.000360489,0,
00:04.3,0.004800797,0.002958298,-0.000383377,0,
00:04.3,0.004817963,0.002969742,-0.000377655,0,
00:04.3,0.004817963,0.002969742,-0.000389099,0,
00:04.4,0.004806519,0.002958298,-0.000417709,0,
00:04.4,0.004835129,0.002958298,-0.000383377,0,
00:04.4,0.004806519,0.00296402,-0.000377655,0,
00:04.4,0.004806519,0.002975464,-0.000406265,0,
00:04.4,0.004823685,0.002975464,-0.000406265,0,
00:04.4,0.004806519,0.00296402,-0.000400543,0,
00:04.4,0.004806519,0.002958298,-0.000394821,0,
00:04.4,0.004823685,0.002969742,-0.000394821,0,
00:04.4,0.004795074,0.00296402,-0.000383377,0,
00:04.4,0.004789352,0.002958298,-0.000389099,0,
00:04.4,0.004806519,0.00296402,-0.000411987,0,
00:04.4,0.004800797,0.00296402,-0.000423431,0,
00:04.4,0.004806519,0.002986908,-0.000389099,0,
00:04.4,0.004806519,0.002969742,-0.000389099,0,
00:04.4,0.004795074,0.002952576,-0.000377655,0,
00:04.4,0.004800797,0.00296402,-0.000383377,0,
00:04.4,0.004800797,0.002958298,-0.000400543,0,
00:04.4,0.004800797,0.00296402,-0.000371933,0,
00:04.4,0.004800797,0.002969742,-0.000377655,0,
00:04.4,0.004800797,0.00296402,-0.000394821,0,
00:04.4,0.004789352,0.00296402,-0.000411987,0,
00:04.4,0.004789352,0.002958298,-0.000400543,0,
00:04.4,0.004800797,0.00296402,-0.000406265,0,
00:04.4,0.004795074,0.002975464,-0.000377655,0,
00:04.4,0.004789352,0.002969742,-0.000383377,0,
00:04.5,0.00478363,0.002958298,-0.000400543,0,
00:04.5,0.004789352,0.00296402,-0.000389099,0,
00:04.5,0.004789352,0.002969742,-0.000389099,0,
00:04.5,0.004795074,0.002958298,-0.000389099,0,
00:04.5,0.00478363,0.002969742,-0.000389099,0,
00:04.5,0.004812241,0.002975464,-0.000400543,0,
00:04.5,0.004772186,0.002969742,-0.000411987,0,
00:04.5,0.004777908,0.00296402,-0.000383377,0,
00:04.5,0.00478363,0.002969742,-0.000389099,0,
00:04.5,0.004777908,0.002969742,-0.000389099,0,
00:04.5,0.00478363,0.00296402,-0.000377655,0,
00:04.5,0.00478363,0.00296402,-0.000389099,0,
00:04.5,0.00478363,0.002969742,-0.000383377,0,
00:04.5,0.004777908,0.002969742,-0.000389099,0,
00:04.5,0.00478363,0.002975464,-0.000406265,0,
00:04.5,0.004772186,0.002975464,-0.000417709,0,
00:04.5,0.004777908,0.002958298,-0.000406265,0,
00:04.5,0.00478363,0.002969742,-0.000377655,0,
00:04.5,0.004777908,0.002969742,-0.000389099,0,
00:04.5,0.004777908,0.002975464,-0.000377655,0,
00:04.5,0.004777908,0.002969742,-0.000389099,0,
00:04.5,0.004777908,0.002975464,-0.000400543,0,
00:04.5,0.00478363,0.002981186,-0.000423431,0,
00:04.5,0.00478363,0.002975464,-0.000389099,0,
00:04.5,0.004772186,0.002958298,-0.000389099,0,
00:04.6,0.004772186,0.002969742,-0.000377655,0,
00:04.6,0.004789352,0.002981186,-0.000417709,0,
00:04.6,0.004789352,0.002969742,-0.000411987,0,
00:04.6,0.004749298,0.00296402,-0.000366211,0,
00:04.6,0.004766464,0.00296402,-0.000389099,0,
00:04.6,0.00475502,0.00296402,-0.000389099,0,
00:04.6,0.004760742,0.00296402,-0.000389099,0,
00:04.6,0.00475502,0.00296402,-0.000394821,0,
00:04.6,0.004760742,0.002981186,-0.000383377,0,
00:04.6,0.004760742,0.002975464,-0.000406265,0,
00:04.6,0.004760742,0.002958298,-0.000400543,0,
00:04.6,0.004760742,0.002969742,-0.000389099,0,
00:04.6,0.004749298,0.002969742,-0.000411987,0,
00:04.6,0.004766464,0.002981186,-0.000411987,0,
00:04.6,0.004772186,0.00299263,-0.000423431,0,
00:04.6,0.00475502,0.00296402,-0.000400543,0,
00:04.6,0.004760742,0.002958298,-0.000377655,0,
00:04.6,0.004749298,0.00296402,-0.000383377,0,
00:04.6,0.004743576,0.002975464,-0.000400543,0,
00:04.6,0.004749298,0.002969742,-0.000423431,0,
00:04.6,0.004743576,0.00296402,-0.000383377,0,
00:04.6,0.004743576,0.002969742,-0.000400543,0,
00:04.6,0.004766464,0.002975464,-0.000400543,0,
00:04.6,0.004743576,0.00296402,-0.000389099,0,
00:04.6,0.004749298,0.002975464,-0.000406265,0,
00:04.7,0.00475502,0.002969742,-0.000406265,0,
00:04.7,0.004760742,0.002975464,-0.000411987,0,
00:04.7,0.004732132,0.002975464,-0.000377655,0,
00:04.7,0.004732132,0.002969742,-0.000417709,0,
00:04.7,0.004732132,0.002975464,-0.000434875,0,
00:04.7,0.004737854,0.002986908,-0.000411987,0,
00:04.7,0.004743576,0.002981186,-0.000394821,0,
00:04.7,0.004743576,0.00296402,-0.000394821,0,
00:04.7,0.004737854,0.00296402,-0.000377655,0,
00:04.7,0.004737854,0.002981186,-0.000394821,0,
00:04.7,0.004737854,0.002975464,-0.000406265,0,
00:04.7,0.004749298,0.002969742,-0.000400543,0,
00:04.7,0.004749298,0.002975464,-0.000417709,0,
00:04.7,0.004732132,0.002975464,-0.000417709,0,
00:04.7,0.00472641,0.002981186,-0.000406265,0,
00:04.7,0.004737854,0.002981186,-0.000406265,0,
00:04.7,0.004732132,0.002969742,-0.000383377,0,
00:04.7,0.004720688,0.002975464,-0.000383377,0,
00:04.7,0.00472641,0.002975464,-0.000394821,0,
00:04.7,0.00472641,0.00296402,-0.000406265,0,
00:04.7,0.004720688,0.00296402,-0.000417709,0,
00:04.7,0.004737854,0.002975464,-0.000434875,0,
00:04.7,0.004732132,0.002969742,-0.000434875,0,
00:04.7,0.004732132,0.002986908,-0.000423431,0,
00:04.7,0.004720688,0.002969742,-0.000389099,0,
00:04.8,0.004737854,0.00296402,-0.000411987,0,
00:04.8,0.004749298,0.002969742,-0.000394821,0,
00:04.8,0.004714966,0.00296402,-0.000383377,0,
00:04.8,0.004720688,0.002969742,-0.000389099,0,
00:04.8,0.004720688,0.002975464,-0.000389099,0,
00:04.8,0.004720688,0.002975464,-0.000417709,0,
00:04.8,0.004720688,0.002975464,-0.000389099,0,
00:04.8,0.004720688,0.002969742,-0.000394821,0,
00:04.8,0.004732132,0.002975464,-0.000394821,0,
00:04.8,0.004714966,0.002975464,-0.000434875,0,
00:04.8,0.004709244,0.002952576,-0.000394821,0,
00:04.8,0.004714966,0.002958298,-0.000389099,0,
00:04.8,0.004714966,0.00296402,-0.000377655,0,
00:04.8,0.004714966,0.00296402,-0.000394821,0,
00:04.8,0.004720688,0.002975464,-0.000417709,0,
00:04.8,0.004714966,0.002969742,-0.000389099,0,
00:04.8,0.004709244,0.00296402,-0.000383377,0,
00:04.8,0.004709244,0.002969742,-0.000400543,0,
00:04.8,0.004720688,0.002975464,-0.000394821,0,
00:04.8,0.00472641,0.002975464,-0.000400543,0,
00:04.8,0.004720688,0.002975464,-0.000423431,0,
00:04.8,0.00472641,0.002969742,-0.000383377,0,
00:04.8,0.004714966,0.002969742,-0.000389099,0,
00:04.8,0.004714966,0.002969742,-0.000406265,0,
00:04.8,0.004720688,0.002975464,-0.000383377,0,
00:04.9,0.004737854,0.002969742,-0.000406265,0,
00:04.9,0.004720688,0.00296402,-0.000366211,0,
00:04.9,0.004720688,0.00296402,-0.000394821,0,
00:04.9,0.004714966,0.00296402,-0.000389099,0,
00:04.9,0.004720688,0.002986908,-0.000383377,0,
00:04.9,0.004709244,0.002975464,-0.000400543,0,
00:04.9,0.004709244,0.00296402,-0.000394821,0,
00:04.9,0.004709244,0.00296402,-0.000400543,0,
00:04.9,0.004709244,0.002958298,-0.000383377,0,
00:04.9,0.004709244,0.00296402,-0.000383377,0,
00:04.9,0.004703522,0.002958298,-0.000394821,0,
00:04.9,0.004709244,0.00296402,-0.000371933,0,
00:04.9,0.004714966,0.002975464,-0.000377655,0,
00:04.9,0.004714966,0.002981186,-0.000377655,0,
00:04.9,0.004709244,0.00296402,-0.000389099,0,
00:04.9,0.004709244,0.00296402,-0.000394821,0,
00:04.9,0.004703522,0.002975464,-0.000383377,0,
00:04.9,0.004714966,0.002969742,-0.000377655,0,
00:04.9,0.004703522,0.002969742,-0.000377655,0,
00:04.9,0.004703522,0.00296402,-0.000366211,0,
00:04.9,0.004703522,0.002958298,-0.000394821,0,
00:04.9,0.004692078,0.002969742,-0.000394821,0,
00:04.9,0.004709244,0.002969742,-0.000389099,0,
00:04.9,0.00472641,0.002975464,-0.000400543,0,
00:04.9,0.004692078,0.00296402,-0.000394821,0,
00:05.0,0.004692078,0.002969742,-0.000394821,0,
00:05.0,0.004686356,0.00296402,-0.000377655,0,
00:05.0,0.004686356,0.002958298,-0.000394821,0,
00:05.0,0.004686356,0.00296402,-0.000377655,0,
00:05.0,0.004703522,0.002969742,-0.000400543,0,
00:05.0,0.004692078,0.002969742,-0.000389099,0,
00:05.0,0.004692078,0.002969742,-0.000377655,0,
00:05.0,0.004686356,0.002958298,-0.000360489,0,
00:05.0,0.004686356,0.002969742,-0.000371933,0,
00:05.0,0.004692078,0.002969742,-0.000383377,0,
00:05.0,0.004680634,0.002958298,-0.000389099,0,
00:05.0,0.004680634,0.002958298,-0.000389099,0,
00:00:05,0.004680634,0.00296402,-0.000389099,0,
00:05.0,0.004680634,0.002975464,-0.000371933,0,
00:05.0,0.004680634,0.00296402,-0.000371933,0,
00:05.0,0.004680634,0.002969742,-0.000383377,0,
00:05.0,0.004674911,0.00296402,-0.000377655,0,
00:05.0,0.004669189,0.002958298,-0.000383377,0,
00:05.0,0.004674911,0.002969742,-0.000394821,0,
00:05.0,0.004686356,0.002969742,-0.000389099,0,
00:05.0,0.004669189,0.00296402,-0.000389099,0,
00:05.0,0.004680634,0.00296402,-0.000394821,0,
00:05.0,0.004692078,0.002969742,-0.000383377,0,
00:05.0,0.004663467,0.00296402,-0.000377655,0,
00:05.0,0.004657745,0.00296402,-0.000371933,0,
00:05.1,0.004663467,0.002952576,-0.000371933,0,
00:05.1,0.004663467,0.002958298,-0.000366211,0,
00:05.1,0.004680634,0.002958298,-0.000377655,0,
00:05.1,0.004663467,0.00296402,-0.000371933,0,
00:05.1,0.004663467,0.00296402,-0.000406265,0,
00:05.1,0.004663467,0.002969742,-0.000394821,0,
00:05.1,0.004663467,0.00296402,-0.000366211,0,
00:05.1,0.004663467,0.002969742,-0.000389099,0,
00:05.1,0.004652023,0.002952576,-0.000389099,0,
00:05.1,0.004657745,0.002958298,-0.000360489,0,
00:05.1,0.004657745,0.00296402,-0.000366211,0,
00:05.1,0.004652023,0.002969742,-0.000377655,0,
00:05.1,0.004657745,0.002981186,-0.000400543,0,
00:05.1,0.004674911,0.002981186,-0.000406265,0,
00:05.1,0.004674911,0.00296402,-0.000389099,0,
00:05.1,0.004652023,0.002958298,-0.000377655,0,
00:05.1,0.004652023,0.002952576,-0.000371933,0,
00:05.1,0.004640579,0.002958298,-0.000360489,0,
00:05.1,0.004640579,0.002958298,-0.000354767,0,
00:05.1,0.004640579,0.00296402,-0.000383377,0,
00:05.1,0.004646301,0.00296402,-0.000371933,0,
00:05.1,0.004646301,0.002958298,-0.000371933,0,
00:05.1,0.004652023,0.002969742,-0.000394821,0,
00:05.1,0.004652023,0.002975464,-0.000377655,0,
00:05.1,0.004652023,0.00296402,-0.000377655,0,
00:05.2,0.004674911,0.00296402,-0.000377655,0,
00:05.2,0.004634857,0.002958298,-0.000383377,0,
00:05.2,0.004634857,0.002958298,-0.000371933,0,
00:05.2,0.004646301,0.002958298,-0.000366211,0,
00:05.2,0.004646301,0.002969742,-0.000383377,0,
00:05.2,0.004646301,0.002969742,-0.000389099,0,
00:05.2,0.004640579,0.002958298,-0.000377655,0,
00:05.2,0.004646301,0.00296402,-0.000354767,0,
00:05.2,0.004640579,0.002969742,-0.000394821,0,
00:05.2,0.004629135,0.002969742,-0.000411987,0,
00:05.2,0.004646301,0.002958298,-0.000394821,0,
00:05.2,0.004669189,0.00296402,-0.000354767,0,
00:05.2,0.004640579,0.00296402,-0.000349045,0,
00:05.2,0.004646301,0.002975464,-0.000377655,0,
00:05.2,0.004634857,0.00296402,-0.000377655,0,
00:05.2,0.004629135,0.00296402,-0.000377655,0,
00:05.2,0.004634857,0.002952576,-0.000371933,0,
00:05.2,0.004623413,0.002941132,-0.000394821,0,
00:05.2,0.004634857,0.00296402,-0.000377655,0,
00:05.2,0.004640579,0.002969742,-0.000366211,0,
00:05.2,0.004634857,0.00296402,-0.000360489,0,
00:05.2,0.004640579,0.00296402,-0.000366211,0,
00:05.2,0.004646301,0.002952576,-0.000354767,0,
00:05.2,0.004617691,0.00296402,-0.000377655,0,
00:05.2,0.004623413,0.002958298,-0.000383377,0,
00:05.3,0.004629135,0.002958298,-0.000377655,0,
00:05.3,0.004623413,0.00296402,-0.000389099,0,
00:05.3,0.004629135,0.002969742,-0.000371933,0,
00:05.3,0.004629135,0.002975464,-0.000383377,0,
00:05.3,0.004634857,0.002975464,-0.000383377,0,
00:05.3,0.004623413,0.002958298,-0.000377655,0,
00:05.3,0.004623413,0.002958298,-0.000366211,0,
00:05.3,0.004623413,0.00296402,-0.000366211,0,
00:05.3,0.004629135,0.002958298,-0.000366211,0,
00:05.3,0.004617691,0.002958298,-0.000383377,0,
00:05.3,0.004617691,0.002952576,-0.000371933,0,
00:05.3,0.004617691,0.002952576,-0.000389099,0,
00:05.3,0.004629135,0.002969742,-0.000360489,0,
00:05.3,0.004623413,0.00296402,-0.000366211,0,
00:05.3,0.004640579,0.002958298,-0.000389099,0,
00:05.3,0.004617691,0.00296402,-0.000377655,0,
00:05.3,0.004617691,0.00296402,-0.000371933,0,
00:05.3,0.004617691,0.002952576,-0.000366211,0,
00:05.3,0.004623413,0.002958298,-0.000383377,0,
00:05.3,0.004629135,0.00296402,-0.000383377,0,
00:05.3,0.004611969,0.002952576,-0.000383377,0,
00:05.3,0.004617691,0.002952576,-0.000366211,0,
00:05.3,0.004640579,0.002952576,-0.000371933,0,
00:05.3,0.004623413,0.002952576,-0.000371933,0,
00:05.3,0.004606247,0.002958298,-0.000377655,0,
00:05.4,0.004600525,0.00296402,-0.000383377,0,
00:05.4,0.004617691,0.00296402,-0.000371933,0,
00:05.4,0.004611969,0.002969742,-0.000383377,0,
00:05.4,0.004617691,0.002969742,-0.000383377,0,
00:05.4,0.004623413,0.002952576,-0.000400543,0,
00:05.4,0.004611969,0.002952576,-0.000366211,0,
00:05.4,0.004606247,0.002946854,-0.000377655,0,
00:05.4,0.004600525,0.002958298,-0.000377655,0,
00:05.4,0.004617691,0.002958298,-0.000377655,0,
00:05.4,0.004606247,0.00296402,-0.000400543,0,
00:05.4,0.004606247,0.002958298,-0.000400543,0,
00:05.4,0.004594803,0.002946854,-0.000360489,0,
00:05.4,0.004600525,0.002952576,-0.000360489,0,
00:05.4,0.004589081,0.002952576,-0.000366211,0,
00:05.4,0.004594803,0.002952576,-0.000371933,0,
00:05.4,0.004606247,0.00296402,-0.000383377,0,
00:05.4,0.004606247,0.00296402,-0.000400543,0,
00:05.4,0.004600525,0.00296402,-0.000366211,0,
00:05.4,0.004594803,0.002952576,-0.000366211,0,
00:05.4,0.004594803,0.002958298,-0.000389099,0,
00:05.4,0.004617691,0.002952576,-0.000366211,0,
00:05.4,0.004606247,0.002946854,-0.000360489,0,
00:05.4,0.004589081,0.002958298,-0.000349045,0,
00:05.4,0.004600525,0.002958298,-0.000371933,0,
00:05.4,0.004600525,0.002952576,-0.000389099,0,
00:05.5,0.004594803,0.002958298,-0.000383377,0,
00:05.5,0.004594803,0.002952576,-0.000377655,0,
00:05.5,0.004600525,0.00296402,-0.000389099,0,
00:05.5,0.004606247,0.002969742,-0.000383377,0,
00:05.5,0.004589081,0.002952576,-0.000389099,0,
00:05.5,0.004594803,0.002958298,-0.000366211,0,
00:05.5,0.004577637,0.002952576,-0.000366211,0,
00:05.5,0.004594803,0.002946854,-0.000343323,0,
00:05.5,0.004583359,0.002946854,-0.000337601,0,
00:05.5,0.004583359,0.002952576,-0.000366211,0,
00:05.5,0.004589081,0.002958298,-0.000371933,0,
00:05.5,0.004594803,0.002969742,-0.000389099,0,
00:05.5,0.004594803,0.002969742,-0.000429153,0,
00:05.5,0.004589081,0.002946854,-0.000411987,0,
00:05.5,0.004589081,0.002952576,-0.000343323,0,
00:05.5,0.004589081,0.002952576,-0.000366211,0,
00:05.5,0.004577637,0.002952576,-0.000349045,0,
00:05.5,0.004583359,0.002958298,-0.000360489,0,
00:05.5,0.004583359,0.002952576,-0.000377655,0,
00:05.5,0.004577637,0.002946854,-0.000371933,0,
00:05.5,0.004577637,0.002952576,-0.000343323,0,
00:05.5,0.004571915,0.002952576,-0.000371933,0,
00:05.5,0.004589081,0.00296402,-0.000406265,0,
00:05.5,0.004600525,0.002958298,-0.000371933,0,
00:05.5,0.004566193,0.002946854,-0.000360489,0,
00:05.6,0.004566193,0.002969742,-0.000366211,0,
00:05.6,0.004554749,0.002958298,-0.000366211,0,
00:05.6,0.004566193,0.002946854,-0.000360489,0,
00:05.6,0.004577637,0.002952576,-0.000354767,0,
00:05.6,0.004571915,0.002958298,-0.000360489,0,
00:05.6,0.004571915,0.002952576,-0.000366211,0,
00:05.6,0.004571915,0.002958298,-0.000377655,0,
00:05.6,0.004571915,0.002958298,-0.000383377,0,
00:05.6,0.004571915,0.00296402,-0.000394821,0,
00:05.6,0.004566193,0.00296402,-0.000394821,0,
00:05.6,0.004571915,0.002958298,-0.000366211,0,
00:05.6,0.004566193,0.002952576,-0.000389099,0,
00:05.6,0.004560471,0.002952576,-0.000326157,0,
00:05.6,0.004566193,0.002958298,-0.000320435,0,
00:05.6,0.004566193,0.002958298,-0.000349045,0,
00:05.6,0.004566193,0.002952576,-0.000360489,0,
00:05.6,0.004566193,0.002946854,-0.000360489,0,
00:05.6,0.004566193,0.002952576,-0.000366211,0,
00:05.6,0.004560471,0.002952576,-0.000366211,0,
00:05.6,0.004554749,0.002952576,-0.000389099,0,
00:05.6,0.004577637,0.002958298,-0.000383377,0,
00:05.6,0.004571915,0.002958298,-0.000366211,0,
00:05.6,0.004554749,0.002952576,-0.000343323,0,
00:05.6,0.004549026,0.002946854,-0.000349045,0,
00:05.6,0.004554749,0.002946854,-0.000360489,0,
00:05.7,0.004554749,0.002952576,-0.000337601,0,
00:05.7,0.004554749,0.002946854,-0.000343323,0,
00:05.7,0.004554749,0.002952576,-0.000349045,0,
00:05.7,0.004560471,0.002958298,-0.000360489,0,
00:05.7,0.004549026,0.002952576,-0.000377655,0,
00:05.7,0.004566193,0.002958298,-0.000400543,0,
00:05.7,0.004589081,0.002969742,-0.000400543,0,
00:05.7,0.004560471,0.002958298,-0.000383377,0,
00:05.7,0.004543304,0.002941132,-0.000331879,0,
00:05.7,0.004549026,0.002941132,-0.000297546,0,
00:05.7,0.004554749,0.002941132,-0.000320435,0,
00:05.7,0.004554749,0.002946854,-0.000337601,0,
00:05.7,0.004554749,0.002946854,-0.000354767,0,
00:05.7,0.004549026,0.002952576,-0.000354767,0,
00:05.7,0.004549026,0.002952576,-0.000349045,0,
00:05.7,0.004549026,0.002946854,-0.000354767,0,
00:05.7,0.004549026,0.002946854,-0.000354767,0,
00:05.7,0.004549026,0.002946854,-0.000366211,0,
00:05.7,0.004560471,0.002958298,-0.000343323,0,
00:05.7,0.004554749,0.002958298,-0.000343323,0,
00:05.7,0.004549026,0.002941132,-0.000343323,0,
00:05.7,0.004543304,0.00293541,-0.000343323,0,
00:05.7,0.004549026,0.002952576,-0.000343323,0,
00:05.7,0.004549026,0.002952576,-0.000343323,0,
00:05.7,0.004543304,0.002946854,-0.000360489,0,
00:05.8,0.004543304,0.002941132,-0.000366211,0,
00:05.8,0.004549026,0.002946854,-0.000360489,0,
00:05.8,0.004549026,0.002958298,-0.000349045,0,
00:05.8,0.004537582,0.002941132,-0.000337601,0,
00:05.8,0.004549026,0.002941132,-0.000326157,0,
00:05.8,0.004549026,0.002946854,-0.000337601,0,
00:05.8,0.004543304,0.002946854,-0.000343323,0,
00:05.8,0.004543304,0.002941132,-0.000331879,0,
00:05.8,0.004549026,0.002946854,-0.000349045,0,
00:05.8,0.004543304,0.002952576,-0.000326157,0,
00:05.8,0.004560471,0.002952576,-0.000354767,0,
00:05.8,0.004560471,0.002946854,-0.000366211,0,
00:05.8,0.004537582,0.00293541,-0.000303268,0,
00:05.8,0.00453186,0.002941132,-0.00030899,0,
00:05.8,0.004537582,0.002941132,-0.000320435,0,
00:05.8,0.004543304,0.00293541,-0.000331879,0,
00:05.8,0.004537582,0.00293541,-0.000314713,0,
00:05.8,0.004537582,0.002946854,-0.000331879,0,
00:05.8,0.004543304,0.002952576,-0.000326157,0,
00:05.8,0.004537582,0.002946854,-0.000320435,0,
00:05.8,0.004537582,0.002946854,-0.000326157,0,
00:05.8,0.004537582,0.002946854,-0.000314713,0,
00:05.8,0.00453186,0.002946854,-0.000337601,0,
00:05.8,0.00453186,0.002958298,-0.000343323,0,
00:05.8,0.00453186,0.00293541,-0.000320435,0,
00:05.9,0.00453186,0.002929688,-0.000303268,0,
00:05.9,0.004526138,0.002941132,-0.000320435,0,
00:05.9,0.004526138,0.002946854,-0.000337601,0,
00:05.9,0.004537582,0.002946854,-0.000314713,0,
00:05.9,0.004526138,0.002941132,-0.000320435,0,
00:05.9,0.00453186,0.002941132,-0.000343323,0,
00:05.9,0.00453186,0.00293541,-0.000326157,0,
00:05.9,0.004514694,0.002941132,-0.000297546,0,
00:05.9,0.004514694,0.002941132,-0.000320435,0,
00:05.9,0.004526138,0.002941132,-0.000337601,0,
00:05.9,0.004526138,0.002946854,-0.000354767,0,
00:05.9,0.004520416,0.002946854,-0.000343323,0,
00:05.9,0.004520416,0.002952576,-0.000314713,0,
00:05.9,0.004537582,0.002946854,-0.000291824,0,
00:05.9,0.004508972,0.002941132,-0.000331879,0,
00:05.9,0.004508972,0.002946854,-0.000331879,0,
00:05.9,0.004508972,0.002941132,-0.000320435,0,
00:05.9,0.004514694,0.002941132,-0.000320435,0,
00:05.9,0.004514694,0.002952576,-0.000331879,0,
00:05.9,0.004508972,0.002946854,-0.000326157,0,
00:05.9,0.004514694,0.00293541,-0.000314713,0,
00:05.9,0.004514694,0.002946854,-0.000314713,0,
00:05.9,0.00450325,0.002941132,-0.000314713,0,
00:05.9,0.00450325,0.002941132,-0.000314713,0,
00:05.9,0.00450325,0.002946854,-0.000320435,0,
00:06.0,0.004508972,0.002952576,-0.000337601,0,
00:06.0,0.004514694,0.00296402,-0.000326157,0,
00:06.0,0.004520416,0.002952576,-0.000320435,0,
00:06.0,0.004508972,0.002929688,-0.000326157,0,
00:06.0,0.004491806,0.00293541,-0.000286102,0,
00:06.0,0.004497528,0.002941132,-0.000303268,0,
00:06.0,0.004514694,0.002952576,-0.000314713,0,
00:06.0,0.004514694,0.002958298,-0.000297546,0,
00:06.0,0.00450325,0.002941132,-0.000314713,0,
00:06.0,0.00450325,0.002946854,-0.000349045,0,
00:06.0,0.004514694,0.002952576,-0.000314713,0,
00:06.0,0.004520416,0.002941132,-0.000303268,0,
00:00:06,0.004486084,0.002946854,-0.000314713,0,
00:06.0,0.004491806,0.002946854,-0.000320435,0,
00:06.0,0.004497528,0.002946854,-0.000291824,0,
00:06.0,0.004497528,0.002941132,-0.000297546,0,
00:06.0,0.00450325,0.002946854,-0.000303268,0,
00:06.0,0.004508972,0.002946854,-0.000326157,0,
00:06.0,0.00450325,0.002946854,-0.000320435,0,
00:06.0,0.004508972,0.002958298,-0.000331879,0,
00:06.0,0.00450325,0.002952576,-0.00030899,0,
00:06.0,0.004486084,0.00293541,-0.000314713,0,
00:06.0,0.004491806,0.00293541,-0.000286102,0,
00:06.0,0.004497528,0.002941132,-0.000291824,0,
00:06.0,0.004491806,0.002946854,-0.000291824,0,
00:06.1,0.004491806,0.00293541,-0.000286102,0,
00:06.1,0.004491806,0.00293541,-0.000286102,0,
00:06.1,0.004508972,0.002946854,-0.000291824,0,
00:06.1,0.004497528,0.002952576,-0.00030899,0,
00:06.1,0.004486084,0.002946854,-0.000331879,0,
00:06.1,0.004491806,0.002941132,-0.00030899,0,
00:06.1,0.004491806,0.002941132,-0.000297546,0,
00:06.1,0.004497528,0.002941132,-0.000286102,0,
00:06.1,0.004491806,0.002946854,-0.000297546,0,
00:06.1,0.004491806,0.002941132,-0.000291824,0,
00:06.1,0.004486084,0.00293541,-0.000291824,0,
00:06.1,0.004491806,0.002952576,-0.000291824,0,
00:06.1,0.004497528,0.002952576,-0.000320435,0,
00:06.1,0.004491806,0.002946854,-0.000331879,0,
00:06.1,0.004491806,0.002941132,-0.000297546,0,
00:06.1,0.004491806,0.00293541,-0.000291824,0,
00:06.1,0.004480362,0.002946854,-0.000297546,0,
00:06.1,0.004486084,0.002941132,-0.00025177,0,
00:06.1,0.004486084,0.002941132,-0.000286102,0,
00:06.1,0.004480362,0.002946854,-0.000303268,0,
00:06.1,0.00447464,0.002941132,-0.00028038,0,
00:06.1,0.004486084,0.002941132,-0.000286102,0,
00:06.1,0.004491806,0.002946854,-0.000297546,0,
00:06.1,0.004480362,0.002946854,-0.000274658,0,
00:06.1,0.004480362,0.002946854,-0.000286102,0,
00:06.2,0.004480362,0.002941132,-0.00028038,0,
00:06.2,0.004497528,0.002941132,-0.000291824,0,
00:06.2,0.00447464,0.002946854,-0.000297546,0,
00:06.2,0.004486084,0.002946854,-0.000274658,0,
00:06.2,0.004468918,0.002929688,-0.000257492,0,
00:06.2,0.004468918,0.00293541,-0.000274658,0,
00:06.2,0.004468918,0.00293541,-0.00028038,0,
00:06.2,0.00447464,0.002941132,-0.000268936,0,
00:06.2,0.004480362,0.002946854,-0.00028038,0,
00:06.2,0.00447464,0.002941132,-0.000314713,0,
00:06.2,0.00447464,0.002952576,-0.00030899,0,
00:06.2,0.00447464,0.00296402,-0.000291824,0,
00:06.2,0.00447464,0.002952576,-0.000268936,0,
00:06.2,0.004463196,0.002941132,-0.000268936,0,
00:06.2,0.004463196,0.002941132,-0.000257492,0,
00:06.2,0.004468918,0.002941132,-0.000257492,0,
00:06.2,0.004468918,0.002941132,-0.000263214,0,
00:06.2,0.004468918,0.00293541,-0.00028038,0,
00:06.2,0.004468918,0.002946854,-0.00028038,0,
00:06.2,0.004480362,0.002952576,-0.000291824,0,
00:06.2,0.004463196,0.002941132,-0.000291824,0,
00:06.2,0.004463196,0.002941132,-0.000257492,0,
00:06.2,0.004457474,0.00293541,-0.000246048,0,
00:06.2,0.004468918,0.002941132,-0.000274658,0,
00:06.2,0.004468918,0.002941132,-0.00025177,0,
00:06.3,0.004457474,0.002946854,-0.000257492,0,
00:06.3,0.004480362,0.002941132,-0.000268936,0,
00:06.3,0.004457474,0.002941132,-0.000240326,0,
00:06.3,0.004463196,0.002941132,-0.00025177,0,
00:06.3,0.004468918,0.002946854,-0.000263214,0,
00:06.3,0.004468918,0.002952576,-0.000268936,0,
00:06.3,0.004468918,0.002952576,-0.000274658,0,
00:06.3,0.004463196,0.00293541,-0.000263214,0,
00:06.3,0.004457474,0.002929688,-0.000263214,0,
00:06.3,0.004457474,0.002941132,-0.000257492,0,
00:06.3,0.004457474,0.002929688,-0.000234604,0,
00:06.3,0.004463196,0.00293541,-0.000240326,0,
00:06.3,0.004457474,0.00293541,-0.000263214,0,
00:06.3,0.004463196,0.00293541,-0.000268936,0,
00:06.3,0.004463196,0.002941132,-0.000257492,0,
00:06.3,0.004451752,0.002941132,-0.000268936,0,
00:06.3,0.004463196,0.002941132,-0.000268936,0,
00:06.3,0.004468918,0.002941132,-0.00025177,0,
00:06.3,0.004457474,0.002946854,-0.000246048,0,
00:06.3,0.004457474,0.002946854,-0.00025177,0,
00:06.3,0.004451752,0.002946854,-0.00025177,0,
00:06.3,0.004463196,0.002929688,-0.000228882,0,
00:06.3,0.004451752,0.00293541,-0.000228882,0,
00:06.3,0.004451752,0.002941132,-0.000240326,0,
00:06.3,0.004457474,0.00293541,-0.000246048,0,
00:06.4,0.004457474,0.002941132,-0.000246048,0,
00:06.4,0.004468918,0.002946854,-0.00025177,0,
00:06.4,0.00444603,0.002941132,-0.000257492,0,
00:06.4,0.004463196,0.002952576,-0.000268936,0,
00:06.4,0.004480362,0.002952576,-0.000286102,0,
00:06.4,0.004457474,0.002941132,-0.000234604,0,
00:06.4,0.004451752,0.002941132,-0.000211716,0,
00:06.4,0.00444603,0.002941132,-0.00022316,0,
00:06.4,0.00444603,0.00293541,-0.000240326,0,
00:06.4,0.004451752,0.002941132,-0.00022316,0,
00:06.4,0.004451752,0.00293541,-0.000246048,0,
00:06.4,0.004463196,0.002941132,-0.00025177,0,
00:06.4,0.00444603,0.002941132,-0.00025177,0,
00:06.4,0.004451752,0.002946854,-0.000228882,0,
00:06.4,0.004457474,0.002941132,-0.000228882,0,
00:06.4,0.004440308,0.00293541,-0.000234604,0,
00:06.4,0.004457474,0.002946854,-0.000217438,0,
00:06.4,0.004457474,0.002946854,-0.00022316,0,
00:06.4,0.004457474,0.002941132,-0.000234604,0,
00:06.4,0.004457474,0.002941132,-0.00025177,0,
00:06.4,0.00444603,0.002941132,-0.00025177,0,
00:06.4,0.00444603,0.00293541,-0.00022316,0,
00:06.4,0.00444603,0.002946854,-0.000228882,0,
00:06.4,0.004457474,0.002958298,-0.00025177,0,
00:06.4,0.004451752,0.002946854,-0.000240326,0,
00:06.5,0.00444603,0.00293541,-0.000228882,0,
00:06.5,0.004440308,0.002941132,-0.00022316,0,
00:06.5,0.004440308,0.00293541,-0.00025177,0,
00:06.5,0.004451752,0.002941132,-0.000228882,0,
00:06.5,0.004440308,0.002941132,-0.000217438,0,
00:06.5,0.00444603,0.002946854,-0.000217438,0,
00:06.5,0.004451752,0.002952576,-0.000217438,0,
00:06.5,0.00444603,0.002941132,-0.00022316,0,
00:06.5,0.00444603,0.002941132,-0.000228882,0,
00:06.5,0.004463196,0.002946854,-0.00025177,0,
00:06.5,0.004451752,0.002941132,-0.000240326,0,
00:06.5,0.004434586,0.002941132,-0.000234604,0,
00:06.5,0.004434586,0.002941132,-0.000234604,0,
00:06.5,0.004434586,0.00293541,-0.000257492,0,
00:06.5,0.004440308,0.002946854,-0.000257492,0,
00:06.5,0.00444603,0.002946854,-0.000234604,0,
00:06.5,0.00444603,0.002952576,-0.000228882,0,
00:06.5,0.004434586,0.002946854,-0.00022316,0,
00:06.5,0.004434586,0.002941132,-0.000240326,0,
00:06.5,0.004440308,0.002941132,-0.000217438,0,
00:06.5,0.004434586,0.00293541,-0.000211716,0,
00:06.5,0.004428864,0.00293541,-0.000217438,0,
00:06.5,0.004434586,0.00293541,-0.000228882,0,
00:06.5,0.004417419,0.002929688,-0.000246048,0,
00:06.5,0.004423141,0.002941132,-0.000228882,0,
00:06.6,0.004423141,0.002941132,-0.000246048,0,
00:06.6,0.004417419,0.002941132,-0.000234604,0,
00:06.6,0.004428864,0.00293541,-0.000234604,0,
00:06.6,0.004428864,0.00293541,-0.000240326,0,
00:06.6,0.004417419,0.002929688,-0.000228882,0,
00:06.6,0.004417419,0.00293541,-0.000228882,0,
00:06.6,0.004428864,0.002946854,-0.000240326,0,
00:06.6,0.004428864,0.002946854,-0.000246048,0,
00:06.6,0.004423141,0.002941132,-0.000246048,0,
00:06.6,0.004440308,0.002941132,-0.000263214,0,
00:06.6,0.004411697,0.002941132,-0.000246048,0,
00:06.6,0.004405975,0.002941132,-0.000246048,0,
00:06.6,0.004411697,0.002923965,-0.000217438,0,
00:06.6,0.004411697,0.002941132,-0.000211716,0,
00:06.6,0.004411697,0.002941132,-0.000228882,0,
00:06.6,0.004405975,0.002923965,-0.000228882,0,
00:06.6,0.004411697,0.002941132,-0.000263214,0,
00:06.6,0.004417419,0.002946854,-0.00025177,0,
00:06.6,0.004417419,0.002941132,-0.000217438,0,
00:06.6,0.004400253,0.00293541,-0.00022316,0,
00:06.6,0.004411697,0.002941132,-0.000234604,0,
00:06.6,0.004411697,0.00293541,-0.000240326,0,
00:06.6,0.004405975,0.002941132,-0.000234604,0,
00:06.6,0.004411697,0.002946854,-0.000228882,0,
00:06.6,0.004394531,0.002929688,-0.000257492,0,
00:06.7,0.004400253,0.00293541,-0.00025177,0,
00:06.7,0.004405975,0.002946854,-0.000228882,0,
00:06.7,0.004400253,0.002946854,-0.000240326,0,
00:06.7,0.004405975,0.002941132,-0.000240326,0,
00:06.7,0.004400253,0.002929688,-0.000240326,0,
00:06.7,0.004383087,0.002929688,-0.000217438,0,
00:06.7,0.004405975,0.002946854,-0.000211716,0,
00:06.7,0.004423141,0.002952576,-0.000228882,0,
00:06.7,0.004394531,0.002941132,-0.000234604,0,
00:06.7,0.004388809,0.00293541,-0.000246048,0,
00:06.7,0.004394531,0.002941132,-0.00025177,0,
00:06.7,0.004400253,0.002946854,-0.000257492,0,
00:06.7,0.004400253,0.002946854,-0.000234604,0,
00:06.7,0.004394531,0.002941132,-0.000228882,0,
00:06.7,0.004388809,0.002929688,-0.000234604,0,
00:06.7,0.004388809,0.00293541,-0.000234604,0,
00:06.7,0.004388809,0.002941132,-0.000240326,0,
00:06.7,0.004400253,0.002941132,-0.000263214,0,
00:06.7,0.004400253,0.002941132,-0.000246048,0,
00:06.7,0.004383087,0.00293541,-0.000240326,0,
00:06.7,0.004394531,0.002946854,-0.000234604,0,
00:06.7,0.004377365,0.00293541,-0.000234604,0,
00:06.7,0.004400253,0.00293541,-0.000228882,0,
00:06.7,0.004388809,0.002929688,-0.000246048,0,
00:06.7,0.004383087,0.002929688,-0.000257492,0,
00:06.8,0.004388809,0.00293541,-0.000228882,0,
00:06.8,0.004394531,0.002941132,-0.000246048,0,
00:06.8,0.004377365,0.002941132,-0.000234604,0,
00:06.8,0.004377365,0.00293541,-0.000234604,0,
00:06.8,0.004383087,0.002929688,-0.000246048,0,
00:06.8,0.004377365,0.00293541,-0.000234604,0,
00:06.8,0.004383087,0.002941132,-0.000240326,0,
00:06.8,0.004383087,0.002941132,-0.000240326,0,
00:06.8,0.004377365,0.002929688,-0.000246048,0,
00:06.8,0.004377365,0.002941132,-0.000268936,0,
00:06.8,0.004394531,0.00293541,-0.000268936,0,
00:06.8,0.004400253,0.002929688,-0.000240326,0,
00:06.8,0.004371643,0.00293541,-0.000257492,0,
00:06.8,0.004377365,0.00293541,-0.000257492,0,
00:06.8,0.004377365,0.002929688,-0.000246048,0,
00:06.8,0.004377365,0.002929688,-0.000234604,0,
00:06.8,0.004377365,0.002929688,-0.000234604,0,
00:06.8,0.004388809,0.002946854,-0.000257492,0,
00:06.8,0.004377365,0.002946854,-0.00025177,0,
00:06.8,0.004365921,0.002929688,-0.000246048,0,
00:06.8,0.004377365,0.002918243,-0.00022316,0,
00:06.8,0.004365921,0.00293541,-0.000234604,0,
00:06.8,0.004383087,0.00293541,-0.000234604,0,
00:06.8,0.004377365,0.002929688,-0.000240326,0,
00:06.8,0.004377365,0.002929688,-0.000257492,0,
00:06.9,0.004377365,0.00293541,-0.00025177,0,
00:06.9,0.004377365,0.00293541,-0.000240326,0,
00:06.9,0.004371643,0.00293541,-0.000240326,0,
00:06.9,0.004365921,0.002929688,-0.00025177,0,
00:06.9,0.004365921,0.002923965,-0.000263214,0,
00:06.9,0.004371643,0.00293541,-0.00025177,0,
00:06.9,0.004371643,0.002929688,-0.000240326,0,
00:06.9,0.004377365,0.002929688,-0.000240326,0,
00:06.9,0.004365921,0.00293541,-0.000246048,0,
00:06.9,0.004365921,0.00293541,-0.000228882,0,
00:06.9,0.004360199,0.002929688,-0.00025177,0,
00:06.9,0.004371643,0.002941132,-0.000257492,0,
00:06.9,0.004371643,0.002946854,-0.000263214,0,
00:06.9,0.004365921,0.002918243,-0.000257492,0,
00:06.9,0.004365921,0.002912521,-0.000257492,0,
00:06.9,0.004348755,0.002929688,-0.000246048,0,
00:06.9,0.004365921,0.00293541,-0.000217438,0,
00:06.9,0.004383087,0.002929688,-0.000211716,0,
00:06.9,0.004360199,0.002923965,-0.000217438,0,
00:06.9,0.004348755,0.002929688,-0.000240326,0,
00:06.9,0.004365921,0.00293541,-0.00025177,0,
00:06.9,0.004354477,0.002923965,-0.000234604,0,
00:06.9,0.004360199,0.00293541,-0.000240326,0,
00:06.9,0.004360199,0.002929688,-0.000228882,0,
00:06.9,0.004360199,0.002929688,-0.000240326,0,
00:07.0,0.004365921,0.002941132,-0.000234604,0,
00:07.0,0.004371643,0.002941132,-0.000234604,0,
00:07.0,0.004360199,0.002923965,-0.000246048,0,
00:07.0,0.004360199,0.002923965,-0.000240326,0,
00:07.0,0.004354477,0.002923965,-0.000234604,0,
00:07.0,0.004354477,0.00293541,-0.000234604,0,
00:07.0,0.004354477,0.00293541,-0.000240326,0,
00:07.0,0.004360199,0.002941132,-0.000246048,0,
00:07.0,0.004354477,0.002941132,-0.000257492,0,
00:07.0,0.004348755,0.002929688,-0.000240326,0,
00:07.0,0.004343033,0.002923965,-0.000234604,0,
00:07.0,0.004348755,0.00293541,-0.00022316,0,
00:00:07,0.004360199,0.002929688,-0.000240326,0,
00:07.0,0.004354477,0.002929688,-0.000228882,0,
00:07.0,0.004348755,0.002929688,-0.000246048,0,
00:07.0,0.004354477,0.00293541,-0.000234604,0,
00:07.0,0.004354477,0.002929688,-0.000246048,0,
00:07.0,0.004371643,0.002929688,-0.000240326,0,
00:07.0,0.004343033,0.002929688,-0.000268936,0,
00:07.0,0.004337311,0.00293541,-0.00025177,0,
00:07.0,0.004348755,0.002941132,-0.000274658,0,
00:07.0,0.004360199,0.002923965,-0.000228882,0,
00:07.0,0.004354477,0.002923965,-0.00022316,0,
00:07.0,0.004354477,0.002929688,-0.000234604,0,
00:07.0,0.004354477,0.002923965,-0.000234604,0,
00:07.1,0.004365921,0.002929688,-0.000234604,0,
00:07.1,0.004360199,0.00293541,-0.000234604,0,
00:07.1,0.004343033,0.002941132,-0.000240326,0,
00:07.1,0.004343033,0.00293541,-0.000268936,0,
00:07.1,0.004343033,0.00293541,-0.000246048,0,
00:07.1,0.004348755,0.002923965,-0.00022316,0,
00:07.1,0.004348755,0.00293541,-0.000246048,0,
00:07.1,0.004354477,0.002923965,-0.000246048,0,
00:07.1,0.004348755,0.002918243,-0.000268936,0,
00:07.1,0.004331589,0.002923965,-0.000246048,0,
00:07.1,0.004331589,0.002918243,-0.00022316,0,
00:07.1,0.004343033,0.002923965,-0.00022316,0,
00:07.1,0.004348755,0.002929688,-0.000228882,0,
00:07.1,0.004337311,0.002929688,-0.000246048,0,
00:07.1,0.004331589,0.002918243,-0.00025177,0,
00:07.1,0.004337311,0.002918243,-0.000246048,0,
00:07.1,0.004331589,0.002912521,-0.000228882,0,
00:07.1,0.004320145,0.002918243,-0.000246048,0,
00:07.1,0.004343033,0.002923965,-0.00025177,0,
00:07.1,0.004337311,0.002923965,-0.000246048,0,
00:07.1,0.004331589,0.002912521,-0.000234604,0,
00:07.1,0.004343033,0.002918243,-0.000228882,0,
00:07.1,0.004348755,0.002929688,-0.000240326,0,
00:07.1,0.004320145,0.002923965,-0.000257492,0,
00:07.1,0.004320145,0.002912521,-0.00025177,0,
00:07.2,0.004325867,0.002918243,-0.000246048,0,
00:07.2,0.004331589,0.002918243,-0.000240326,0,
00:07.2,0.004337311,0.002918243,-0.000240326,0,
00:07.2,0.004331589,0.002918243,-0.00025177,0,
00:07.2,0.004337311,0.002923965,-0.000257492,0,
00:07.2,0.004320145,0.002912521,-0.000240326,0,
00:07.2,0.004314423,0.002912521,-0.00025177,0,
00:07.2,0.004320145,0.002906799,-0.000228882,0,
00:07.2,0.004325867,0.002912521,-0.000228882,0,
00:07.2,0.004314423,0.002901077,-0.000246048,0,
00:07.2,0.004314423,0.002906799,-0.000246048,0,
00:07.2,0.004320145,0.002906799,-0.000234604,0,
00:07.2,0.004320145,0.002912521,-0.000234604,0,
00:07.2,0.004325867,0.002912521,-0.000268936,0,
00:07.2,0.004331589,0.002918243,-0.000286102,0,
00:07.2,0.004314423,0.002912521,-0.00025177,0,
00:07.2,0.004320145,0.002901077,-0.000257492,0,
00:07.2,0.004308701,0.002906799,-0.000234604,0,
00:07.2,0.004308701,0.002912521,-0.000240326,0,
00:07.2,0.004314423,0.002906799,-0.000234604,0,
00:07.2,0.004314423,0.002912521,-0.000240326,0,
00:07.2,0.004325867,0.002901077,-0.000228882,0,
00:07.2,0.004308701,0.002901077,-0.000257492,0,
00:07.2,0.004320145,0.002918243,-0.00025177,0,
00:07.2,0.004285812,0.002895355,-0.000217438,0,
00:07.3,0.004297256,0.002906799,-0.000217438,0,
00:07.3,0.004302979,0.002912521,-0.000228882,0,
00:07.3,0.004302979,0.002912521,-0.000228882,0,
00:07.3,0.004297256,0.002912521,-0.000240326,0,
00:07.3,0.004291534,0.002901077,-0.000263214,0,
00:07.3,0.004297256,0.002906799,-0.000274658,0,
00:07.3,0.004302979,0.002912521,-0.000240326,0,
00:07.3,0.004297256,0.002912521,-0.000211716,0,
00:07.3,0.004297256,0.002906799,-0.000246048,0,
00:07.3,0.004297256,0.002901077,-0.000263214,0,
00:07.3,0.004285812,0.002906799,-0.000228882,0,
00:07.3,0.00428009,0.002912521,-0.000257492,0,
00:07.3,0.00428009,0.002901077,-0.000263214,0,
00:07.3,0.004297256,0.002901077,-0.00022316,0,
00:07.3,0.004297256,0.002912521,-0.000234604,0,
00:07.3,0.004291534,0.002906799,-0.00022316,0,
00:07.3,0.004291534,0.002901077,-0.000246048,0,
00:07.3,0.004291534,0.002901077,-0.00028038,0,
00:07.3,0.004291534,0.002906799,-0.000211716,0,
00:07.3,0.004268646,0.002906799,-0.00022316,0,
00:07.3,0.00428009,0.002912521,-0.00022316,0,
00:07.3,0.004274368,0.002906799,-0.000234604,0,
00:07.3,0.00428009,0.002912521,-0.000205994,0,
00:07.3,0.004274368,0.002912521,-0.000246048,0,
00:07.3,0.004274368,0.002912521,-0.000246048,0,
00:07.4,0.00428009,0.002912521,-0.000228882,0,
00:07.4,0.004285812,0.002912521,-0.000217438,0,
00:07.4,0.00428009,0.002906799,-0.000217438,0,
00:07.4,0.004285812,0.002912521,-0.000234604,0,
00:07.4,0.00428009,0.002918243,-0.000228882,0,
00:07.4,0.00428009,0.002918243,-0.000263214,0,
00:07.4,0.004274368,0.002906799,-0.000228882,0,
00:07.4,0.00428009,0.002918243,-0.000211716,0,
00:07.4,0.004268646,0.002906799,-0.000246048,0,
00:07.4,0.004268646,0.002912521,-0.00025177,0,
00:07.4,0.004268646,0.002906799,-0.00025177,0,
00:07.4,0.004262924,0.002912521,-0.000217438,0,
00:07.4,0.004262924,0.002918243,-0.000246048,0,
00:07.4,0.00428009,0.002906799,-0.00022316,0,
00:07.4,0.00428009,0.002906799,-0.000240326,0,
00:07.4,0.004274368,0.002912521,-0.000246048,0,
00:07.4,0.004268646,0.002918243,-0.000217438,0,
00:07.4,0.004257202,0.002906799,-0.000234604,0,
00:07.4,0.004262924,0.002895355,-0.000246048,0,
00:07.4,0.004262924,0.002912521,-0.000217438,0,
00:07.4,0.004262924,0.002918243,-0.000217438,0,
00:07.4,0.004268646,0.002918243,-0.000228882,0,
00:07.4,0.004262924,0.002923965,-0.000257492,0,
00:07.4,0.004268646,0.002923965,-0.00025177,0,
00:07.4,0.004262924,0.002912521,-0.000246048,0,
00:07.5,0.004257202,0.002906799,-0.000217438,0,
00:07.5,0.004257202,0.002906799,-0.000211716,0,
00:07.5,0.004257202,0.002912521,-0.000217438,0,
00:07.5,0.004257202,0.002912521,-0.00022316,0,
00:07.5,0.004257202,0.002918243,-0.00025177,0,
00:07.5,0.004268646,0.002912521,-0.000234604,0,
00:07.5,0.00425148,0.002912521,-0.000211716,0,
00:07.5,0.004240036,0.002918243,-0.000240326,0,
00:07.5,0.004262924,0.002918243,-0.000257492,0,
00:07.5,0.004262924,0.002912521,-0.000228882,0,
00:07.5,0.004245758,0.002906799,-0.000217438,0,
00:07.5,0.004245758,0.002912521,-0.00022316,0,
00:07.5,0.004245758,0.002912521,-0.000234604,0,
00:07.5,0.004245758,0.002906799,-0.000228882,0,
00:07.5,0.004262924,0.002906799,-0.000228882,0,
00:07.5,0.004268646,0.002906799,-0.00022316,0,
00:07.5,0.004245758,0.002918243,-0.000217438,0,
00:07.5,0.004245758,0.002912521,-0.000257492,0,
00:07.5,0.00425148,0.002906799,-0.000257492,0,
00:07.5,0.004262924,0.002912521,-0.000228882,0,
00:07.5,0.004240036,0.002912521,-0.000211716,0,
00:07.5,0.004245758,0.002912521,-0.00019455,0,
00:07.5,0.00425148,0.002912521,-0.000200272,0,
00:07.5,0.004245758,0.002912521,-0.000217438,0,
00:07.5,0.004245758,0.002918243,-0.000228882,0,
00:07.6,0.004245758,0.002912521,-0.000228882,0,
00:07.6,0.004245758,0.002923965,-0.000228882,0,
00:07.6,0.00425148,0.002918243,-0.000240326,0,
00:07.6,0.004245758,0.002906799,-0.000257492,0,
00:07.6,0.004245758,0.002912521,-0.00019455,0,
00:07.6,0.00425148,0.002912521,-0.00019455,0,
00:07.6,0.004240036,0.002912521,-0.000211716,0,
00:07.6,0.004245758,0.002912521,-0.000217438,0,
00:07.6,0.00425148,0.002906799,-0.000217438,0,
00:07.6,0.00425148,0.002901077,-0.00022316,0,
00:07.6,0.004234314,0.002912521,-0.000228882,0,
00:07.6,0.004240036,0.002906799,-0.000234604,0,
00:07.6,0.00425148,0.002918243,-0.000228882,0,
00:07.6,0.00425148,0.002912521,-0.00025177,0,
00:07.6,0.004257202,0.002912521,-0.000211716,0,
00:07.6,0.004257202,0.002912521,-0.000205994,0,
00:07.6,0.004228592,0.002906799,-0.000200272,0,
00:07.6,0.004228592,0.002901077,-0.000211716,0,
00:07.6,0.004234314,0.002901077,-0.00022316,0,
00:07.6,0.004234314,0.002901077,-0.000211716,0,
00:07.6,0.004234314,0.002906799,-0.000205994,0,
00:07.6,0.004234314,0.002906799,-0.00022316,0,
00:07.6,0.004240036,0.002906799,-0.00025177,0,
00:07.6,0.004234314,0.002889633,-0.000234604,0,
00:07.6,0.004240036,0.002906799,-0.000205994,0,
00:07.7,0.004234314,0.002912521,-0.000205994,0,
00:07.7,0.004234314,0.002901077,-0.000200272,0,
00:07.7,0.004228592,0.002901077,-0.00019455,0,
00:07.7,0.004234314,0.002895355,-0.000200272,0,
00:07.7,0.004234314,0.002901077,-0.000211716,0,
00:07.7,0.004234314,0.002901077,-0.000217438,0,
00:07.7,0.004234314,0.002901077,-0.00022316,0,
00:07.7,0.004245758,0.002901077,-0.00022316,0,
00:07.7,0.004205704,0.002895355,-0.000217438,0,
00:07.7,0.00422287,0.002895355,-0.000234604,0,
00:07.7,0.004234314,0.002901077,-0.000228882,0,
00:07.7,0.004234314,0.002912521,-0.000200272,0,
00:07.7,0.004234314,0.002906799,-0.000200272,0,
00:07.7,0.004228592,0.002912521,-0.000211716,0,
00:07.7,0.00422287,0.002901077,-0.00022316,0,
00:07.7,0.00422287,0.002895355,-0.000205994,0,
00:07.7,0.00422287,0.002901077,-0.000217438,0,
00:07.7,0.004228592,0.002906799,-0.00022316,0,
00:07.7,0.004240036,0.002912521,-0.000228882,0,
00:07.7,0.004240036,0.002918243,-0.00025177,0,
00:07.7,0.004217148,0.002918243,-0.000211716,0,
00:07.7,0.00422287,0.002889633,-0.000211716,0,
00:07.7,0.004211426,0.002889633,-0.000188828,0,
00:07.7,0.004205704,0.002889633,-0.000211716,0,
00:07.7,0.004217148,0.002901077,-0.000200272,0,
00:07.8,0.00422287,0.002906799,-0.000205994,0,
00:07.8,0.004211426,0.002895355,-0.000205994,0,
00:07.8,0.004211426,0.002901077,-0.000211716,0,
00:07.8,0.004217148,0.002901077,-0.000234604,0,
00:07.8,0.004217148,0.002901077,-0.000228882,0,
00:07.8,0.004234314,0.002906799,-0.000211716,0,
00:07.8,0.004217148,0.002895355,-0.000205994,0,
00:07.8,0.004205704,0.002895355,-0.000205994,0,
00:07.8,0.004205704,0.002895355,-0.000211716,0,
00:07.8,0.004217148,0.002895355,-0.00019455,0,
00:07.8,0.004211426,0.002901077,-0.000211716,0,
00:07.8,0.004211426,0.002895355,-0.000200272,0,
00:07.8,0.004217148,0.002901077,-0.000205994,0,
00:07.8,0.004217148,0.002906799,-0.000217438,0,
00:07.8,0.004217148,0.002901077,-0.00022316,0,
00:07.8,0.004211426,0.002912521,-0.000211716,0,
00:07.8,0.004211426,0.002912521,-0.00019455,0,
00:07.8,0.004211426,0.002895355,-0.00019455,0,
00:07.8,0.004211426,0.002895355,-0.000211716,0,
00:07.8,0.004211426,0.002901077,-0.00019455,0,
00:07.8,0.004211426,0.002901077,-0.00019455,0,
00:07.8,0.004211426,0.002901077,-0.000183105,0,
00:07.8,0.004211426,0.002895355,-0.000188828,0,
00:07.8,0.004211426,0.002895355,-0.000211716,0,
00:07.8,0.004217148,0.002901077,-0.000211716,0,
00:07.9,0.00422287,0.002901077,-0.00025177,0,
00:07.9,0.004234314,0.002906799,-0.000200272,0,
00:07.9,0.004205704,0.002901077,-0.000200272,0,
00:07.9,0.004211426,0.002895355,-0.000188828,0,
00:07.9,0.004199982,0.002883911,-0.000183105,0,
00:07.9,0.004211426,0.002889633,-0.000183105,0,
00:07.9,0.004217148,0.002901077,-0.000188828,0,
00:07.9,0.004205704,0.002889633,-0.000183105,0,
00:07.9,0.004211426,0.002883911,-0.000200272,0,
00:07.9,0.004205704,0.002895355,-0.000200272,0,
00:07.9,0.004188538,0.002889633,-0.000200272,0,
00:07.9,0.004211426,0.002889633,-0.000200272,0,
00:07.9,0.004211426,0.002901077,-0.000188828,0,
00:07.9,0.004205704,0.002895355,-0.000200272,0,
00:07.9,0.004205704,0.002883911,-0.000200272,0,
00:07.9,0.004199982,0.002889633,-0.000177383,0,
00:07.9,0.004199982,0.002889633,-0.000177383,0,
00:07.9,0.004199982,0.002883911,-0.000200272,0,
00:07.9,0.004199982,0.002883911,-0.000205994,0,
00:07.9,0.004199982,0.002895355,-0.000205994,0,
00:07.9,0.004199982,0.002889633,-0.000234604,0,
00:07.9,0.004205704,0.002901077,-0.000200272,0,
00:07.9,0.004211426,0.002883911,-0.000188828,0,
00:07.9,0.004205704,0.002878189,-0.000200272,0,
00:07.9,0.00422287,0.002889633,-0.000177383,0,
00:08.0,0.00419426,0.002883911,-0.000183105,0,
00:08.0,0.004182816,0.002878189,-0.000188828,0,
00:08.0,0.00419426,0.002883911,-0.000200272,0,
00:08.0,0.004199982,0.002889633,-0.000217438,0,
00:08.0,0.00419426,0.002883911,-0.000217438,0,
00:08.0,0.00419426,0.002883911,-0.00019455,0,
00:08.0,0.004199982,0.002883911,-0.000205994,0,
00:08.0,0.004199982,0.002895355,-0.000211716,0,
00:08.0,0.004188538,0.002901077,-0.000234604,0,
00:08.0,0.004188538,0.002889633,-0.000200272,0,
00:08.0,0.004199982,0.002889633,-0.00019455,0,
00:08.0,0.004199982,0.002883911,-0.000188828,0,
00:00:08,0.004188538,0.002878189,-0.000200272,0,
00:08.0,0.00419426,0.002883911,-0.000205994,0,
00:08.0,0.00419426,0.002889633,-0.000205994,0,
00:08.0,0.004199982,0.002895355,-0.000217438,0,
00:08.0,0.004205704,0.002901077,-0.000240326,0,
00:08.0,0.004188538,0.002889633,-0.000228882,0,
00:08.0,0.00419426,0.002883911,-0.000200272,0,
00:08.0,0.004182816,0.002878189,-0.000160217,0,
00:08.0,0.004199982,0.002878189,-0.000171661,0,
00:08.0,0.00419426,0.002883911,-0.00019455,0,
00:08.0,0.004188538,0.002889633,-0.000188828,0,
00:08.0,0.004182816,0.002872467,-0.00019455,0,
00:08.0,0.00419426,0.002883911,-0.000211716,0,
00:08.1,0.004205704,0.002895355,-0.000211716,0,
00:08.1,0.004182816,0.002901077,-0.00022316,0,
00:08.1,0.004182816,0.002872467,-0.000211716,0,
00:08.1,0.004188538,0.002883911,-0.000205994,0,
00:08.1,0.00419426,0.002889633,-0.000211716,0,
00:08.1,0.004177094,0.002889633,-0.000205994,0,
00:08.1,0.004177094,0.002889633,-0.00019455,0,
00:08.1,0.004177094,0.002883911,-0.000183105,0,
00:08.1,0.004188538,0.002883911,-0.000205994,0,
00:08.1,0.00419426,0.002895355,-0.000234604,0,
00:08.1,0.004188538,0.002895355,-0.000228882,0,
00:08.1,0.004188538,0.002889633,-0.000211716,0,
00:08.1,0.004182816,0.002889633,-0.000200272,0,
00:08.1,0.004182816,0.002883911,-0.000205994,0,
00:08.1,0.004171371,0.002883911,-0.000200272,0,
00:08.1,0.004182816,0.002883911,-0.000188828,0,
00:08.1,0.00419426,0.002883911,-0.000188828,0,
00:08.1,0.004177094,0.002883911,-0.000200272,0,
00:08.1,0.004177094,0.002889633,-0.000228882,0,
00:08.1,0.004182816,0.002889633,-0.000200272,0,
00:08.1,0.004177094,0.002883911,-0.000205994,0,
00:08.1,0.004188538,0.002889633,-0.000211716,0,
00:08.1,0.004199982,0.002895355,-0.000246048,0,
00:08.1,0.00419426,0.002901077,-0.000217438,0,
00:08.1,0.004154205,0.002878189,-0.000183105,0,
00:08.2,0.004171371,0.002883911,-0.00019455,0,
00:08.2,0.004171371,0.002889633,-0.000211716,0,
00:08.2,0.004182816,0.002883911,-0.000200272,0,
00:08.2,0.004182816,0.002895355,-0.000211716,0,
00:08.2,0.004177094,0.002889633,-0.000205994,0,
00:08.2,0.004177094,0.002889633,-0.00022316,0,
00:08.2,0.004177094,0.002878189,-0.000217438,0,
00:08.2,0.004177094,0.002883911,-0.000217438,0,
00:08.2,0.004188538,0.002895355,-0.000183105,0,
00:08.2,0.004171371,0.002889633,-0.000228882,0,
00:08.2,0.004182816,0.002895355,-0.00022316,0,
00:08.2,0.004177094,0.002883911,-0.000188828,0,
00:08.2,0.004177094,0.002883911,-0.00022316,0,
00:08.2,0.004182816,0.002901077,-0.000205994,0,
00:08.2,0.004165649,0.002883911,-0.000200272,0,
00:08.2,0.004188538,0.002883911,-0.000217438,0,
00:08.2,0.004177094,0.002889633,-0.000217438,0,
00:08.2,0.004165649,0.002895355,-0.000211716,0,
00:08.2,0.004165649,0.002895355,-0.000228882,0,
00:08.2,0.004159927,0.002878189,-0.00022316,0,
00:08.2,0.004171371,0.002883911,-0.000205994,0,
00:08.2,0.004165649,0.002878189,-0.000177383,0,
00:08.2,0.004171371,0.002878189,-0.000205994,0,
00:08.2,0.004165649,0.002878189,-0.000211716,0,
00:08.2,0.004165649,0.002895355,-0.000211716,0,
00:08.3,0.004171371,0.002889633,-0.000217438,0,
00:08.3,0.004177094,0.002883911,-0.000211716,0,
00:08.3,0.004165649,0.002883911,-0.000205994,0,
00:08.3,0.004171371,0.002883911,-0.000217438,0,
00:08.3,0.004171371,0.002895355,-0.000234604,0,
00:08.3,0.004177094,0.002906799,-0.000211716,0,
00:08.3,0.004177094,0.002901077,-0.000211716,0,
00:08.3,0.004148483,0.002866745,-0.000188828,0,
00:08.3,0.004165649,0.002878189,-0.000211716,0,
00:08.3,0.004171371,0.002889633,-0.000217438,0,
00:08.3,0.004171371,0.002901077,-0.000205994,0,
00:08.3,0.004159927,0.002889633,-0.000211716,0,
00:08.3,0.004165649,0.002883911,-0.000217438,0,
00:08.3,0.004165649,0.002878189,-0.000205994,0,
00:08.3,0.004165649,0.002883911,-0.000200272,0,
00:08.3,0.004182816,0.002889633,-0.000200272,0,
00:08.3,0.004171371,0.002895355,-0.000211716,0,
00:08.3,0.004148483,0.002883911,-0.00022316,0,
00:08.3,0.004159927,0.002878189,-0.000217438,0,
00:08.3,0.004165649,0.002883911,-0.000205994,0,
00:08.3,0.004165649,0.002889633,-0.00019455,0,
00:08.3,0.004165649,0.002889633,-0.000188828,0,
00:08.3,0.004171371,0.002895355,-0.000217438,0,
00:08.3,0.004171371,0.002895355,-0.000257492,0,
00:08.3,0.004159927,0.002872467,-0.000200272,0,
00:08.4,0.004159927,0.002895355,-0.00022316,0,
00:08.4,0.004165649,0.002895355,-0.000205994,0,
00:08.4,0.004154205,0.002878189,-0.00019455,0,
00:08.4,0.004159927,0.002878189,-0.000205994,0,
00:08.4,0.004165649,0.002878189,-0.000217438,0,
00:08.4,0.004165649,0.002883911,-0.000211716,0,
00:08.4,0.004154205,0.002883911,-0.000217438,0,
00:08.4,0.004154205,0.002878189,-0.000200272,0,
00:08.4,0.004154205,0.002878189,-0.00019455,0,
00:08.4,0.004159927,0.002883911,-0.000205994,0,
00:08.4,0.004159927,0.002883911,-0.000217438,0,
00:08.4,0.004154205,0.002889633,-0.000234604,0,
00:08.4,0.004148483,0.002883911,-0.000188828,0,
00:08.4,0.004148483,0.002878189,-0.000211716,0,
00:08.4,0.004154205,0.002883911,-0.000200272,0,
00:08.4,0.004171371,0.002889633,-0.000211716,0,
00:08.4,0.004154205,0.002889633,-0.000205994,0,
00:08.4,0.004142761,0.002878189,-0.000205994,0,
00:08.4,0.004148483,0.002883911,-0.000217438,0,
00:08.4,0.004148483,0.002878189,-0.000234604,0,
00:08.4,0.004142761,0.002883911,-0.000211716,0,
00:08.4,0.004137039,0.002872467,-0.00019455,0,
00:08.4,0.004148483,0.002883911,-0.000211716,0,
00:08.4,0.004154205,0.002883911,-0.000200272,0,
00:08.4,0.004142761,0.002883911,-0.000211716,0,
00:08.5,0.004137039,0.002889633,-0.000234604,0,
00:08.5,0.004142761,0.002889633,-0.000205994,0,
00:08.5,0.004131317,0.002878189,-0.00022316,0,
00:08.5,0.004148483,0.002878189,-0.000228882,0,
00:08.5,0.004137039,0.002889633,-0.00022316,0,
00:08.5,0.004137039,0.002883911,-0.000211716,0,
00:08.5,0.004137039,0.002878189,-0.000211716,0,
00:08.5,0.004131317,0.002872467,-0.000205994,0,
00:08.5,0.004131317,0.002878189,-0.00019455,0,
00:08.5,0.004131317,0.002872467,-0.00019455,0,
00:08.5,0.004125595,0.002878189,-0.000205994,0,
00:08.5,0.004131317,0.002878189,-0.000205994,0,
00:08.5,0.004137039,0.002878189,-0.000240326,0,
00:08.5,0.004131317,0.002878189,-0.000228882,0,
00:08.5,0.004119873,0.002878189,-0.000246048,0,
00:08.5,0.004148483,0.002883911,-0.000257492,0,
00:08.5,0.004148483,0.002883911,-0.000171661,0,
00:08.5,0.004119873,0.002866745,-0.000160217,0,
00:08.5,0.004125595,0.002872467,-0.000188828,0,
00:08.5,0.004125595,0.002878189,-0.000200272,0,
00:08.5,0.004125595,0.002878189,-0.000200272,0,
00:08.5,0.004125595,0.002872467,-0.000200272,0,
00:08.5,0.004119873,0.002866745,-0.000205994,0,
00:08.5,0.004119873,0.002872467,-0.000211716,0,
00:08.5,0.004119873,0.002872467,-0.000228882,0,
00:08.6,0.004131317,0.002878189,-0.000211716,0,
00:08.6,0.004119873,0.002889633,-0.00022316,0,
00:08.6,0.004114151,0.002878189,-0.000217438,0,
00:08.6,0.004125595,0.002872467,-0.000211716,0,
00:08.6,0.004114151,0.002872467,-0.00019455,0,
00:08.6,0.004114151,0.002866745,-0.000211716,0,
00:08.6,0.004114151,0.002878189,-0.000200272,0,
00:08.6,0.004114151,0.002872467,-0.00019455,0,
00:08.6,0.004114151,0.002866745,-0.000205994,0,
00:08.6,0.004114151,0.002872467,-0.000200272,0,
00:08.6,0.004114151,0.002872467,-0.000205994,0,
00:08.6,0.004114151,0.002872467,-0.000205994,0,
00:08.6,0.004114151,0.002878189,-0.000240326,0,
00:08.6,0.004108429,0.002883911,-0.000263214,0,
00:08.6,0.004114151,0.002878189,-0.00025177,0,
00:08.6,0.004096985,0.002878189,-0.000246048,0,
00:08.6,0.004125595,0.002883911,-0.000183105,0,
00:08.6,0.004119873,0.002883911,-0.000217438,0,
00:08.6,0.004114151,0.002866745,-0.000188828,0,
00:08.6,0.004096985,0.002861023,-0.000171661,0,
00:08.6,0.004102707,0.002872467,-0.000183105,0,
00:08.6,0.004108429,0.002878189,-0.00019455,0,
00:08.6,0.004108429,0.002878189,-0.000205994,0,
00:08.6,0.004102707,0.002872467,-0.000211716,0,
00:08.6,0.004114151,0.002878189,-0.000205994,0,
00:08.7,0.004108429,0.002883911,-0.000200272,0,
00:08.7,0.004102707,0.002883911,-0.000211716,0,
00:08.7,0.004102707,0.002878189,-0.000228882,0,
00:08.7,0.004096985,0.002878189,-0.00022316,0,
00:08.7,0.004131317,0.002883911,-0.000217438,0,
00:08.7,0.004096985,0.002883911,-0.000205994,0,
00:08.7,0.004091263,0.002866745,-0.000211716,0,
00:08.7,0.004091263,0.002872467,-0.000205994,0,
00:08.7,0.004091263,0.002878189,-0.000234604,0,
00:08.7,0.004102707,0.002883911,-0.000234604,0,
00:08.7,0.004102707,0.002872467,-0.000183105,0,
00:08.7,0.004096985,0.002872467,-0.000188828,0,
00:08.7,0.004108429,0.002878189,-0.000188828,0,
00:08.7,0.004102707,0.002878189,-0.00019455,0,
00:08.7,0.004085541,0.002866745,-0.000200272,0,
00:08.7,0.004079819,0.002866745,-0.000205994,0,
00:08.7,0.004102707,0.002878189,-0.000200272,0,
00:08.7,0.004096985,0.002878189,-0.000200272,0,
00:08.7,0.004096985,0.002883911,-0.000217438,0,
00:08.7,0.004091263,0.002878189,-0.000205994,0,
00:08.7,0.004096985,0.002878189,-0.000200272,0,
00:08.7,0.004102707,0.002883911,-0.000205994,0,
00:08.7,0.004096985,0.002872467,-0.000217438,0,
00:08.7,0.004102707,0.002872467,-0.000217438,0,
00:08.7,0.004091263,0.002878189,-0.000217438,0,
00:08.8,0.004091263,0.002872467,-0.000217438,0,
00:08.8,0.004096985,0.002872467,-0.00022316,0,
00:08.8,0.004091263,0.002872467,-0.000188828,0,
00:08.8,0.004091263,0.002878189,-0.00019455,0,
00:08.8,0.004085541,0.002872467,-0.000211716,0,
00:08.8,0.004108429,0.002866745,-0.00019455,0,
00:08.8,0.004108429,0.002872467,-0.000177383,0,
00:08.8,0.004085541,0.002872467,-0.000183105,0,
00:08.8,0.004091263,0.002872467,-0.00019455,0,
00:08.8,0.004091263,0.002872467,-0.000200272,0,
00:08.8,0.004091263,0.002878189,-0.00019455,0,
00:08.8,0.004091263,0.002883911,-0.000200272,0,
00:08.8,0.004091263,0.002872467,-0.000205994,0,
00:08.8,0.004085541,0.002878189,-0.000205994,0,
00:08.8,0.004085541,0.002878189,-0.000188828,0,
00:08.8,0.004085541,0.002878189,-0.000200272,0,
00:08.8,0.004085541,0.002883911,-0.000211716,0,
00:08.8,0.004096985,0.002872467,-0.00019455,0,
00:08.8,0.004079819,0.002866745,-0.000200272,0,
00:08.8,0.004068375,0.002866745,-0.000200272,0,
00:08.8,0.004079819,0.002878189,-0.00019455,0,
00:08.8,0.004074097,0.002872467,-0.000183105,0,
00:08.8,0.004074097,0.002872467,-0.000205994,0,
00:08.8,0.004074097,0.002872467,-0.000211716,0,
00:08.8,0.004085541,0.002878189,-0.000205994,0,
00:08.9,0.004079819,0.002878189,-0.000188828,0,
00:08.9,0.004068375,0.002866745,-0.000183105,0,
00:08.9,0.004074097,0.002872467,-0.000183105,0,
00:08.9,0.004074097,0.002878189,-0.00019455,0,
00:08.9,0.004074097,0.002872467,-0.000211716,0,
00:08.9,0.004091263,0.002866745,-0.00022316,0,
00:08.9,0.004062653,0.002872467,-0.000171661,0,
00:08.9,0.004068375,0.002866745,-0.00019455,0,
00:08.9,0.004068375,0.002872467,-0.000200272,0,
00:08.9,0.004074097,0.002878189,-0.000205994,0,
00:08.9,0.004074097,0.002872467,-0.00019455,0,
00:08.9,0.004079819,0.002889633,-0.00019455,0,
00:08.9,0.004068375,0.002878189,-0.000200272,0,
00:08.9,0.004056931,0.002866745,-0.000217438,0,
00:08.9,0.004056931,0.002861023,-0.000205994,0,
00:08.9,0.004085541,0.002866745,-0.000171661,0,
00:08.9,0.004056931,0.002866745,-0.000183105,0,
00:08.9,0.004062653,0.002872467,-0.000200272,0,
00:08.9,0.004062653,0.002866745,-0.00019455,0,
00:08.9,0.004062653,0.002866745,-0.000188828,0,
00:08.9,0.004056931,0.002861023,-0.000188828,0,
00:08.9,0.004056931,0.002872467,-0.00019455,0,
00:08.9,0.004062653,0.002872467,-0.000205994,0,
00:08.9,0.004051208,0.002861023,-0.000205994,0,
00:08.9,0.004062653,0.002866745,-0.000217438,0,
00:09.0,0.004056931,0.002872467,-0.00019455,0,
00:09.0,0.004056931,0.002866745,-0.00019455,0,
00:09.0,0.004056931,0.002866745,-0.000177383,0,
00:09.0,0.004051208,0.002855301,-0.000183105,0,
00:09.0,0.004062653,0.002866745,-0.000200272,0,
00:09.0,0.004056931,0.002872467,-0.000200272,0,
00:09.0,0.004056931,0.002861023,-0.000205994,0,
00:09.0,0.004051208,0.002866745,-0.000228882,0,
00:09.0,0.004045486,0.002866745,-0.000268936,0,
00:09.0,0.004079819,0.002866745,-0.000165939,0,
00:09.0,0.004079819,0.002861023,-0.00019455,0,
00:09.0,0.004039764,0.002855301,-0.000188828,0,
00:00:09,0.004045486,0.002861023,-0.00019455,0,
00:09.0,0.004045486,0.002861023,-0.000171661,0,
00:09.0,0.004045486,0.002861023,-0.000183105,0,
00:09.0,0.004051208,0.002861023,-0.00019455,0,
00:09.0,0.004062653,0.002866745,-0.000200272,0,
00:09.0,0.004056931,0.002861023,-0.000211716,0,
00:09.0,0.004051208,0.002861023,-0.000211716,0,
00:09.0,0.004056931,0.002861023,-0.000188828,0,
00:09.0,0.004056931,0.002866745,-0.000183105,0,
00:09.0,0.004056931,0.002861023,-0.000188828,0,
00:09.0,0.004056931,0.002855301,-0.000200272,0,
00:09.0,0.004051208,0.002861023,-0.000217438,0,
00:09.0,0.004051208,0.002861023,-0.00019455,0,
00:09.1,0.004056931,0.002866745,-0.000200272,0,
00:09.1,0.004062653,0.002872467,-0.000200272,0,
00:09.1,0.004051208,0.002866745,-0.000234604,0,
00:09.1,0.004051208,0.002866745,-0.000228882,0,
00:09.1,0.004045486,0.002855301,-0.000183105,0,
00:09.1,0.004051208,0.002861023,-0.000200272,0,
00:09.1,0.004056931,0.002855301,-0.000165939,0,
00:09.1,0.004051208,0.002849579,-0.000183105,0,
00:09.1,0.004056931,0.002855301,-0.000183105,0,
00:09.1,0.004051208,0.002855301,-0.000183105,0,
00:09.1,0.004056931,0.002861023,-0.000200272,0,
00:09.1,0.004068375,0.002866745,-0.000217438,0,
00:09.1,0.004051208,0.002872467,-0.000228882,0,
00:09.1,0.004056931,0.002866745,-0.000211716,0,
00:09.1,0.004051208,0.002849579,-0.000205994,0,
00:09.1,0.004039764,0.002855301,-0.000165939,0,
00:09.1,0.004045486,0.002855301,-0.000165939,0,
00:09.1,0.004039764,0.002849579,-0.000183105,0,
00:09.1,0.004039764,0.002855301,-0.000183105,0,
00:09.1,0.004039764,0.002855301,-0.000183105,0,
00:09.1,0.004039764,0.002855301,-0.000211716,0,
00:09.1,0.004045486,0.002866745,-0.000228882,0,
00:09.1,0.004045486,0.002872467,-0.000217438,0,
00:09.1,0.004051208,0.002855301,-0.000205994,0,
00:09.1,0.004034042,0.002855301,-0.000177383,0,
00:09.2,0.004034042,0.002855301,-0.000160217,0,
00:09.2,0.004034042,0.002855301,-0.000160217,0,
00:09.2,0.00402832,0.002849579,-0.000183105,0,
00:09.2,0.004034042,0.002855301,-0.000188828,0,
00:09.2,0.00402832,0.002849579,-0.000188828,0,
00:09.2,0.004034042,0.002855301,-0.000188828,0,
00:09.2,0.004039764,0.002855301,-0.000200272,0,
00:09.2,0.004034042,0.002861023,-0.000211716,0,
00:09.2,0.004034042,0.002855301,-0.000217438,0,
00:09.2,0.004034042,0.002849579,-0.000183105,0,
00:09.2,0.00402832,0.002849579,-0.000177383,0,
00:09.2,0.004034042,0.002849579,-0.000171661,0,
00:09.2,0.004039764,0.002849579,-0.000188828,0,
00:09.2,0.004022598,0.002843857,-0.000188828,0,
00:09.2,0.004011154,0.002843857,-0.00019455,0,
00:09.2,0.004034042,0.002849579,-0.000200272,0,
00:09.2,0.004068375,0.002861023,-0.000257492,0,
00:09.2,0.004022598,0.002866745,-0.00022316,0,
00:09.2,0.004022598,0.002861023,-0.000165939,0,
00:09.2,0.004022598,0.002849579,-0.000177383,0,
00:09.2,0.004022598,0.002849579,-0.000165939,0,
00:09.2,0.00402832,0.002838135,-0.000183105,0,
00:09.2,0.00402832,0.002849579,-0.000177383,0,
00:09.2,0.004022598,0.002838135,-0.000205994,0,
00:09.2,0.004022598,0.002843857,-0.000177383,0,
00:09.3,0.00402832,0.002849579,-0.000171661,0,
00:09.3,0.004034042,0.002855301,-0.000188828,0,
00:09.3,0.004011154,0.002849579,-0.000200272,0,
00:09.3,0.004022598,0.002855301,-0.00019455,0,
00:09.3,0.004022598,0.002843857,-0.000183105,0,
00:09.3,0.004022598,0.002849579,-0.000183105,0,
00:09.3,0.004016876,0.002849579,-0.000188828,0,
00:09.3,0.004016876,0.002849579,-0.000188828,0,
00:09.3,0.004011154,0.002843857,-0.000183105,0,
00:09.3,0.004022598,0.002849579,-0.00019455,0,
00:09.3,0.004034042,0.002861023,-0.00022316,0,
00:09.3,0.004011154,0.002849579,-0.000205994,0,
00:09.3,0.004022598,0.002849579,-0.000183105,0,
00:09.3,0.004022598,0.002849579,-0.000183105,0,
00:09.3,0.004022598,0.002849579,-0.000183105,0,
00:09.3,0.004022598,0.002843857,-0.000183105,0,
00:09.3,0.00399971,0.002855301,-0.000188828,0,
00:09.3,0.004011154,0.002849579,-0.000177383,0,
00:09.3,0.004016876,0.002855301,-0.000188828,0,
00:09.3,0.004011154,0.002849579,-0.000205994,0,
00:09.3,0.004011154,0.002843857,-0.000200272,0,
00:09.3,0.004016876,0.002855301,-0.000188828,0,
00:09.3,0.004016876,0.002849579,-0.000200272,0,
00:09.3,0.004011154,0.002843857,-0.000177383,0,
00:09.3,0.004005432,0.002855301,-0.000188828,0,
00:09.4,0.004011154,0.002855301,-0.000205994,0,
00:09.4,0.004011154,0.002855301,-0.000211716,0,
00:09.4,0.00399971,0.002855301,-0.000205994,0,
00:09.4,0.004011154,0.002855301,-0.00019455,0,
00:09.4,0.004011154,0.002855301,-0.000177383,0,
00:09.4,0.00399971,0.002838135,-0.000183105,0,
00:09.4,0.004005432,0.002843857,-0.000188828,0,
00:09.4,0.004011154,0.002843857,-0.00019455,0,
00:09.4,0.003993988,0.002849579,-0.000246048,0,
00:09.4,0.004005432,0.002861023,-0.000205994,0,
00:09.4,0.004011154,0.002861023,-0.000183105,0,
00:09.4,0.004005432,0.002843857,-0.000183105,0,
00:09.4,0.004016876,0.002843857,-0.000211716,0,
00:09.4,0.00399971,0.002843857,-0.000200272,0,
00:09.4,0.003988266,0.002849579,-0.000183105,0,
00:09.4,0.003993988,0.002849579,-0.000188828,0,
00:09.4,0.00399971,0.002849579,-0.00019455,0,
00:09.4,0.004005432,0.002843857,-0.000188828,0,
00:09.4,0.003988266,0.002849579,-0.000205994,0,
00:09.4,0.003993988,0.002861023,-0.000211716,0,
00:09.4,0.003988266,0.002843857,-0.00022316,0,
00:09.4,0.003988266,0.002838135,-0.000183105,0,
00:09.4,0.003988266,0.002838135,-0.000183105,0,
00:09.4,0.003988266,0.002849579,-0.000188828,0,
00:09.4,0.003982544,0.002849579,-0.000211716,0,
00:09.5,0.003988266,0.002849579,-0.00019455,0,
00:09.5,0.003993988,0.002849579,-0.00019455,0,
00:09.5,0.003988266,0.002849579,-0.000228882,0,
00:09.5,0.003993988,0.002861023,-0.000205994,0,
00:09.5,0.003988266,0.002843857,-0.000171661,0,
00:09.5,0.003976822,0.002832413,-0.000183105,0,
00:09.5,0.003993988,0.002855301,-0.00019455,0,
00:09.5,0.003993988,0.002838135,-0.000183105,0,
00:09.5,0.00399971,0.002838135,-0.000183105,0,
00:09.5,0.003965378,0.002849579,-0.00019455,0,
00:09.5,0.003982544,0.002855301,-0.00019455,0,
00:09.5,0.003982544,0.002849579,-0.000177383,0,
00:09.5,0.003982544,0.002843857,-0.000177383,0,
00:09.5,0.003982544,0.002843857,-0.00019455,0,
00:09.5,0.003988266,0.002843857,-0.00019455,0,
00:09.5,0.003965378,0.002843857,-0.000183105,0,
00:09.5,0.0039711,0.002843857,-0.00019455,0,
00:09.5,0.003976822,0.002849579,-0.000200272,0,
00:09.5,0.003976822,0.002855301,-0.000188828,0,
00:09.5,0.0039711,0.002843857,-0.000205994,0,
00:09.5,0.003965378,0.002843857,-0.000183105,0,
00:09.5,0.003976822,0.002849579,-0.000171661,0,
00:09.5,0.0039711,0.002843857,-0.000200272,0,
00:09.5,0.0039711,0.002843857,-0.000188828,0,
00:09.5,0.003965378,0.002832413,-0.00019455,0,
00:09.6,0.003976822,0.002843857,-0.00019455,0,
00:09.6,0.003976822,0.002838135,-0.000211716,0,
00:09.6,0.003976822,0.002849579,-0.000200272,0,
00:09.6,0.003953934,0.002838135,-0.000171661,0,
00:09.6,0.003965378,0.002832413,-0.000171661,0,
00:09.6,0.003976822,0.002855301,-0.000188828,0,
00:09.6,0.003976822,0.002849579,-0.000171661,0,
00:09.6,0.003982544,0.002832413,-0.000200272,0,
00:09.6,0.003982544,0.002849579,-0.000211716,0,
00:09.6,0.0039711,0.002855301,-0.000183105,0,
00:09.6,0.003959656,0.002843857,-0.00019455,0,
00:09.6,0.003959656,0.002843857,-0.000188828,0,
00:09.6,0.003959656,0.002843857,-0.000165939,0,
00:09.6,0.003965378,0.002832413,-0.000177383,0,
00:09.6,0.003959656,0.002838135,-0.000188828,0,
00:09.6,0.003959656,0.002849579,-0.000183105,0,
00:09.6,0.003959656,0.002849579,-0.000188828,0,
00:09.6,0.003959656,0.002832413,-0.000188828,0,
00:09.6,0.003965378,0.002843857,-0.000188828,0,
00:09.6,0.003959656,0.002843857,-0.00019455,0,
00:09.6,0.003959656,0.002843857,-0.000200272,0,
00:09.6,0.003965378,0.002843857,-0.000183105,0,
00:09.6,0.003965378,0.002843857,-0.000183105,0,
00:09.6,0.003959656,0.002838135,-0.000205994,0,
00:09.6,0.003959656,0.002832413,-0.00019455,0,
00:09.7,0.003959656,0.002855301,-0.000183105,0,
00:09.7,0.003959656,0.002855301,-0.000188828,0,
00:09.7,0.003948212,0.002826691,-0.000217438,0,
00:09.7,0.003953934,0.002838135,-0.000183105,0,
00:09.7,0.003959656,0.002849579,-0.000160217,0,
00:09.7,0.003959656,0.002843857,-0.000177383,0,
00:09.7,0.003953934,0.002843857,-0.000183105,0,
00:09.7,0.003953934,0.002838135,-0.000171661,0,
00:09.7,0.003953934,0.002843857,-0.000177383,0,
00:09.7,0.003959656,0.002843857,-0.000177383,0,
00:09.7,0.003953934,0.002843857,-0.000183105,0,
00:09.7,0.003953934,0.002843857,-0.000177383,0,
00:09.7,0.003965378,0.002843857,-0.000183105,0,
00:09.7,0.003953934,0.002838135,-0.000183105,0,
00:09.7,0.003953934,0.002838135,-0.000183105,0,
00:09.7,0.003948212,0.002838135,-0.000171661,0,
00:09.7,0.00394249,0.002843857,-0.000171661,0,
00:09.7,0.003959656,0.002843857,-0.00019455,0,
00:09.7,0.003959656,0.002843857,-0.00019455,0,
00:09.7,0.003948212,0.002838135,-0.000177383,0,
00:09.7,0.003953934,0.002838135,-0.000177383,0,
00:09.7,0.003953934,0.002838135,-0.000177383,0,
00:09.7,0.003948212,0.002843857,-0.000188828,0,
00:09.7,0.003948212,0.002832413,-0.000200272,0,
00:09.7,0.003948212,0.002838135,-0.00019455,0,
00:09.8,0.003965378,0.002855301,-0.000171661,0,
00:09.8,0.003936768,0.002832413,-0.000171661,0,
00:09.8,0.00394249,0.002826691,-0.000188828,0,
00:09.8,0.00394249,0.002832413,-0.000177383,0,
00:09.8,0.00394249,0.002832413,-0.000177383,0,
00:09.8,0.00394249,0.002843857,-0.000177383,0,
00:09.8,0.003948212,0.002843857,-0.000183105,0,
00:09.8,0.003948212,0.002843857,-0.000183105,0,
00:09.8,0.00394249,0.002838135,-0.000165939,0,
00:09.8,0.003936768,0.002843857,-0.000183105,0,
00:09.8,0.003936768,0.002843857,-0.000200272,0,
00:09.8,0.003936768,0.002843857,-0.000183105,0,
00:09.8,0.003936768,0.002838135,-0.000183105,0,
00:09.8,0.003925323,0.002832413,-0.000177383,0,
00:09.8,0.003919601,0.002838135,-0.000183105,0,
00:09.8,0.003931046,0.002843857,-0.000177383,0,
00:09.8,0.003936768,0.002843857,-0.000183105,0,
00:09.8,0.003931046,0.002838135,-0.00019455,0,
00:09.8,0.003936768,0.002838135,-0.00019455,0,
00:09.8,0.003936768,0.002838135,-0.000171661,0,
00:09.8,0.003936768,0.002843857,-0.000188828,0,
00:09.8,0.003931046,0.002843857,-0.000211716,0,
00:09.8,0.003931046,0.002832413,-0.000154495,0,
00:09.8,0.003925323,0.002820969,-0.000154495,0,
00:09.8,0.003925323,0.002832413,-0.000165939,0,
00:09.9,0.003925323,0.002838135,-0.000171661,0,
00:09.9,0.003925323,0.002832413,-0.000183105,0,
00:09.9,0.003925323,0.002838135,-0.000183105,0,
00:09.9,0.003925323,0.002832413,-0.000183105,0,
00:09.9,0.003931046,0.002843857,-0.000200272,0,
00:09.9,0.003936768,0.002849579,-0.00022316,0,
00:09.9,0.003931046,0.002832413,-0.00019455,0,
00:09.9,0.003925323,0.002826691,-0.000165939,0,
00:09.9,0.003948212,0.002832413,-0.000160217,0,
00:09.9,0.003902435,0.002826691,-0.000165939,0,
00:09.9,0.003908157,0.002832413,-0.000171661,0,
00:09.9,0.003913879,0.002832413,-0.000177383,0,
00:09.9,0.003908157,0.002832413,-0.000188828,0,
00:09.9,0.003908157,0.002843857,-0.000200272,0,
00:09.9,0.003913879,0.002826691,-0.000188828,0,
00:09.9,0.003931046,0.002832413,-0.000200272,0,
00:09.9,0.003919601,0.002838135,-0.000183105,0,
00:09.9,0.003913879,0.002826691,-0.000148773,0,
00:09.9,0.003908157,0.002820969,-0.000160217,0,
00:09.9,0.003913879,0.002826691,-0.000160217,0,
00:09.9,0.003908157,0.002832413,-0.000165939,0,
00:09.9,0.003908157,0.002832413,-0.000177383,0,
00:09.9,0.003913879,0.002838135,-0.000177383,0,
00:09.9,0.003908157,0.002838135,-0.000188828,0,
00:09.9,0.003908157,0.002832413,-0.000205994,0,
00:10.0,0.003913879,0.002843857,-0.000177383,0,
00:10.0,0.003902435,0.002832413,-0.000171661,0,
00:10.0,0.003913879,0.002826691,-0.000171661,0,
00:10.0,0.003925323,0.002832413,-0.000165939,0,
00:10.0,0.003896713,0.002826691,-0.000160217,0,
00:10.0,0.003890991,0.002820969,-0.000160217,0,
00:10.0,0.003896713,0.002826691,-0.000165939,0,
00:10.0,0.003896713,0.002820969,-0.000165939,0,
00:10.0,0.003896713,0.002826691,-0.000165939,0,
00:10.0,0.003896713,0.002838135,-0.000171661,0,
00:10.0,0.003913879,0.002843857,-0.000177383,0,
00:10.0,0.003902435,0.002838135,-0.000200272,0,
00:00:10,0.003902435,0.002826691,-0.00022316,0,
00:10.0,0.003919601,0.002832413,-0.000165939,0,
00:10.0,0.003885269,0.002820969,-0.000171661,0,
00:10.0,0.003896713,0.002838135,-0.000154495,0,
00:10.0,0.003896713,0.002826691,-0.000160217,0,
00:10.0,0.003890991,0.002815247,-0.000143051,0,
00:10.0,0.003896713,0.002820969,-0.000148773,0,
00:10.0,0.003896713,0.002826691,-0.000160217,0,
00:10.0,0.003896713,0.002832413,-0.000165939,0,
00:10.0,0.003896713,0.002826691,-0.000171661,0,
00:10.0,0.003896713,0.002838135,-0.000188828,0,
00:10.0,0.003902435,0.002838135,-0.000200272,0,
00:10.0,0.003896713,0.002826691,-0.000188828,0,
00:10.1,0.003896713,0.002826691,-0.000177383,0,
00:10.1,0.003896713,0.002820969,-0.000205994,0,
00:10.1,0.003879547,0.002820969,-0.000205994,0,
