Elapsed_Time,EMG1,EMG2,EMG3,BioRadio Event,Unnamed: 5
00:00:00,-0.000183105,-0.000297546,0.012891769,0,
00:00.0,-0.00019455,-0.000291824,0.012897491,0,
00:00.0,-0.000165939,-0.000274658,0.012903214,0,
00:00.0,-0.000177383,-0.000263214,0.012908936,0,
00:00.0,-0.000177383,-0.000257492,0.012903214,0,
00:00.0,-0.000165939,-0.000263214,0.012903214,0,
00:00.0,-0.000165939,-0.000274658,0.012908936,0,
00:00.0,-0.000171661,-0.000286102,0.012914658,0,
00:00.0,-0.000165939,-0.000263214,0.01292038,0,
00:00.0,-0.000177383,-0.000268936,0.01292038,0,
00:00.0,-0.000183105,-0.000286102,0.012926102,0,
00:00.0,-0.00019455,-0.000291824,0.012931824,0,
00:00.0,-0.000177383,-0.000286102,0.012937546,0,
00:00.1,-0.000177383,-0.000274658,0.012943268,0,
00:00.1,-0.000165939,-0.000274658,0.012937546,0,
00:00.1,-0.000171661,-0.000286102,0.012937546,0,
00:00.1,-0.000177383,-0.00028038,0.012943268,0,
00:00.1,-0.000183105,-0.000286102,0.012943268,0,
00:00.1,-0.00019455,-0.000314713,0.012954712,0,
00:00.1,-0.000188828,-0.00030899,0.012954712,0,
00:00.1,-0.000171661,-0.000268936,0.012960434,0,
00:00.1,-0.000165939,-0.000257492,0.012966156,0,
00:00.1,-0.000171661,-0.000274658,0.012971878,0,
00:00.1,-0.000171661,-0.000274658,0.0129776,0,
00:00.1,-0.000177383,-0.000291824,0.0129776,0,
00:00.1,-0.000183105,-0.000291824,0.012971878,0,
00:00.1,-0.000183105,-0.000303268,0.012983322,0,
00:00.1,-0.00019455,-0.000303268,0.012994766,0,
00:00.1,-0.000205994,-0.00028038,0.012989044,0,
00:00.1,-0.000165939,-0.000274658,0.012989044,0,
00:00.1,-0.000171661,-0.000291824,0.012994766,0,
00:00.1,-0.000171661,-0.00030899,0.013000488,0,
00:00.1,-0.000171661,-0.000314713,0.01300621,0,
00:00.1,-0.000171661,-0.000286102,0.013017654,0,
00:00.1,-0.000171661,-0.000274658,0.013017654,0,
00:00.1,-0.000160217,-0.00028038,0.013017654,0,
00:00.1,-0.000177383,-0.000297546,0.013023376,0,
00:00.1,-0.000188828,-0.000303268,0.013029099,0,
00:00.2,-0.000171661,-0.000297546,0.013034821,0,
00:00.2,-0.000165939,-0.000303268,0.013034821,0,
00:00.2,-0.000171661,-0.00030899,0.013040543,0,
00:00.2,-0.000165939,-0.000297546,0.013046265,0,
00:00.2,-0.000165939,-0.00028038,0.013057709,0,
00:00.2,-0.000171661,-0.00028038,0.013057709,0,
00:00.2,-0.000177383,-0.000297546,0.013063431,0,
00:00.2,-0.000171661,-0.000314713,0.013063431,0,
00:00.2,-0.000177383,-0.000326157,0.013069153,0,
00:00.2,-0.000177383,-0.00030899,0.013074875,0,
00:00.2,-0.000183105,-0.000291824,0.013080597,0,
00:00.2,-0.000183105,-0.000297546,0.013086319,0,
00:00.2,-0.000171661,-0.000320435,0.013086319,0,
00:00.2,-0.000171661,-0.000331879,0.013097763,0,
00:00.2,-0.000183105,-0.000314713,0.013103485,0,
00:00.2,-0.000165939,-0.00030899,0.013109207,0,
00:00.2,-0.000171661,-0.000314713,0.013097763,0,
00:00.2,-0.000177383,-0.000314713,0.013103485,0,
00:00.2,-0.000171661,-0.00030899,0.013114929,0,
00:00.2,-0.000177383,-0.000314713,0.013120651,0,
00:00.2,-0.000160217,-0.000314713,0.013132095,0,
00:00.2,-0.000171661,-0.000331879,0.013132095,0,
00:00.2,-0.000177383,-0.000343323,0.013132095,0,
00:00.2,-0.000165939,-0.000326157,0.013137817,0,
00:00.2,-0.000165939,-0.000297546,0.013149261,0,
00:00.3,-0.000160217,-0.00030899,0.013154984,0,
00:00.3,-0.000171661,-0.000331879,0.013154984,0,
00:00.3,-0.000188828,-0.000349045,0.013160706,0,
00:00.3,-0.000171661,-0.000343323,0.013166428,0,
00:00.3,-0.000160217,-0.000303268,0.01317215,0,
00:00.3,-0.000165939,-0.000303268,0.013177872,0,
00:00.3,-0.000160217,-0.000314713,0.013183594,0,
00:00.3,-0.000160217,-0.000320435,0.013183594,0,
00:00.3,-0.000165939,-0.000331879,0.013189316,0,
00:00.3,-0.000165939,-0.000343323,0.01320076,0,
00:00.3,-0.000171661,-0.000343323,0.013206482,0,
00:00.3,-0.000171661,-0.000331879,0.013206482,0,
00:00.3,-0.000160217,-0.000331879,0.013212204,0,
00:00.3,-0.000160217,-0.000343323,0.013217926,0,
00:00.3,-0.000165939,-0.000343323,0.01322937,0,
00:00.3,-0.000160217,-0.000337601,0.01322937,0,
00:00.3,-0.000160217,-0.000343323,0.01322937,0,
00:00.3,-0.000165939,-0.000343323,0.013235092,0,
00:00.3,-0.000160217,-0.000343323,0.013240814,0,
00:00.3,-0.000160217,-0.000354767,0.013252258,0,
00:00.3,-0.000165939,-0.000360489,0.013252258,0,
00:00.3,-0.000171661,-0.000343323,0.01325798,0,
00:00.3,-0.000177383,-0.000343323,0.013263702,0,
00:00.3,-0.000154495,-0.000354767,0.013275146,0,
00:00.3,-0.000143051,-0.000366211,0.013280869,0,
00:00.4,-0.000154495,-0.000354767,0.013269424,0,
00:00.4,-0.000143051,-0.000343323,0.013280869,0,
00:00.4,-0.000148773,-0.000343323,0.013286591,0,
00:00.4,-0.000148773,-0.000343323,0.013292313,0,
00:00.4,-0.000154495,-0.000360489,0.013303757,0,
00:00.4,-0.000160217,-0.000377655,0.013309479,0,
00:00.4,-0.000160217,-0.000371933,0.013315201,0,
00:00.4,-0.000148773,-0.000354767,0.013315201,0,
00:00.4,-0.000148773,-0.000349045,0.013315201,0,
00:00.4,-0.000148773,-0.000337601,0.013326645,0,
00:00.4,-0.000148773,-0.000354767,0.013332367,0,
00:00.4,-0.000154495,-0.000366211,0.013338089,0,
00:00.4,-0.000154495,-0.000377655,0.013343811,0,
00:00.4,-0.000154495,-0.000383377,0.013349533,0,
00:00.4,-0.000148773,-0.000377655,0.013355255,0,
00:00.4,-0.000154495,-0.000377655,0.013360977,0,
00:00.4,-0.000143051,-0.000366211,0.013366699,0,
00:00.4,-0.000137329,-0.000360489,0.013366699,0,
00:00.4,-0.000143051,-0.000371933,0.013378143,0,
00:00.4,-0.000143051,-0.000366211,0.013383865,0,
00:00.4,-0.000137329,-0.000366211,0.013389587,0,
00:00.4,-0.000137329,-0.000377655,0.013395309,0,
00:00.4,-0.000137329,-0.000371933,0.013395309,0,
00:00.4,-0.000137329,-0.000371933,0.013406754,0,
00:00.4,-0.000137329,-0.000371933,0.013406754,0,
00:00.5,-0.000137329,-0.000371933,0.013412476,0,
00:00.5,-0.000154495,-0.000394821,0.013418198,0,
00:00.5,-0.000143051,-0.000406265,0.013418198,0,
00:00.5,-0.000137329,-0.000394821,0.013429642,0,
00:00.5,-0.000125885,-0.000383377,0.013435364,0,
00:00.5,-0.000148773,-0.000394821,0.013441086,0,
00:00.5,-0.000148773,-0.000411987,0.013446808,0,
00:00.5,-0.000131607,-0.000411987,0.01345253,0,
00:00.5,-0.000125885,-0.000406265,0.013463974,0,
00:00.5,-0.000131607,-0.000383377,0.013463974,0,
00:00.5,-0.000108719,-0.000354767,0.013463974,0,
00:00.5,-0.000114441,-0.000377655,0.013463974,0,
00:00.5,-0.000125885,-0.000411987,0.013469696,0,
00:00.5,-0.000143051,-0.000434875,0.013475418,0,
00:00.5,-0.000143051,-0.000440598,0.013486862,0,
00:00.5,-0.000137329,-0.000406265,0.013492584,0,
00:00.5,-0.000108719,-0.000354767,0.013492584,0,
00:00.5,-0.000114441,-0.000371933,0.013498306,0,
00:00.5,-0.000125885,-0.000400543,0.013504028,0,
00:00.5,-0.000125885,-0.000400543,0.01350975,0,
00:00.5,-0.000120163,-0.000400543,0.013515472,0,
00:00.5,-0.000120163,-0.000411987,0.013521194,0,
00:00.5,-0.000125885,-0.000417709,0.013526917,0,
00:00.5,-0.000131607,-0.000411987,0.013532639,0,
00:00.5,-0.000120163,-0.000423431,0.013532639,0,
00:00.6,-0.000114441,-0.000417709,0.013544083,0,
00:00.6,-0.000120163,-0.000417709,0.013544083,0,
00:00.6,-0.000120163,-0.000434875,0.013549805,0,
00:00.6,-0.000131607,-0.00044632,0.013555527,0,
00:00.6,-0.000131607,-0.000429153,0.013561249,0,
00:00.6,-0.000125885,-0.000429153,0.013566971,0,
00:00.6,-0.000120163,-0.000429153,0.013572693,0,
00:00.6,-0.000114441,-0.000400543,0.013566971,0,
00:00.6,-0.000114441,-0.000400543,0.013578415,0,
00:00.6,-0.000137329,-0.000411987,0.013584137,0,
00:00.6,-0.000120163,-0.000411987,0.013589859,0,
00:00.6,-0.000114441,-0.000417709,0.013589859,0,
00:00.6,-0.000108719,-0.000429153,0.013595581,0,
00:00.6,-0.000114441,-0.000429153,0.013601303,0,
00:00.6,-0.000120163,-0.000429153,0.013607025,0,
00:00.6,-9.73E-05,-0.000429153,0.013607025,0,
00:00.6,-0.000102997,-0.000429153,0.013612747,0,
00:00.6,-0.000102997,-0.000423431,0.013612747,0,
00:00.6,-0.000108719,-0.000429153,0.013624191,0,
00:00.6,-0.000108719,-0.000434875,0.013629913,0,
00:00.6,-0.000108719,-0.000440598,0.013635635,0,
00:00.6,-0.000114441,-0.00044632,0.013635635,0,
00:00.6,-0.000114441,-0.000440598,0.013635635,0,
00:00.6,-0.000108719,-0.000434875,0.013641357,0,
00:00.6,-0.000108719,-0.000440598,0.013647079,0,
00:00.7,-0.000114441,-0.000452042,0.013652802,0,
00:00.7,-0.000114441,-0.000452042,0.013652802,0,
00:00.7,-0.000102997,-0.000434875,0.013658524,0,
00:00.7,-0.000114441,-0.000429153,0.013658524,0,
00:00.7,-0.000114441,-0.00044632,0.013669968,0,
00:00.7,-0.000108719,-0.000469208,0.013669968,0,
00:00.7,-0.000114441,-0.000457764,0.01367569,0,
00:00.7,-0.000108719,-0.000463486,0.013681412,0,
00:00.7,-0.000102997,-0.000434875,0.013681412,0,
00:00.7,-9.16E-05,-0.000411987,0.013687134,0,
00:00.7,-9.73E-05,-0.000429153,0.013692856,0,
00:00.7,-0.000108719,-0.000440598,0.013692856,0,
00:00.7,-0.000102997,-0.000434875,0.013698578,0,
00:00.7,-0.000108719,-0.000440598,0.0137043,0,
00:00.7,-0.000102997,-0.000457764,0.013710022,0,
00:00.7,-0.000102997,-0.00047493,0.0137043,0,
00:00.7,-0.000102997,-0.00047493,0.013710022,0,
00:00.7,-9.73E-05,-0.00044632,0.013715744,0,
00:00.7,-9.73E-05,-0.000434875,0.013715744,0,
00:00.7,-9.16E-05,-0.000434875,0.013721466,0,
00:00.7,-9.73E-05,-0.000457764,0.013727188,0,
00:00.7,-0.000102997,-0.000480652,0.01373291,0,
00:00.7,-0.000108719,-0.000469208,0.013738632,0,
00:00.7,-0.000108719,-0.000429153,0.013738632,0,
00:00.7,-0.000102997,-0.000440598,0.013744354,0,
00:00.8,-8.58E-05,-0.000452042,0.013744354,0,
00:00.8,-9.16E-05,-0.000457764,0.013744354,0,
00:00.8,-9.16E-05,-0.000457764,0.013750076,0,
00:00.8,-9.73E-05,-0.000457764,0.013750076,0,
00:00.8,-0.000102997,-0.000452042,0.013755798,0,
00:00.8,-0.000108719,-0.000440598,0.01376152,0,
00:00.8,-9.73E-05,-0.000463486,0.013767242,0,
00:00.8,-9.16E-05,-0.000480652,0.013767242,0,
00:00.8,-7.44E-05,-0.000457764,0.013767242,0,
00:00.8,-8.58E-05,-0.000452042,0.013778687,0,
00:00.8,-9.16E-05,-0.000469208,0.013784409,0,
00:00.8,-8.58E-05,-0.000457764,0.013778687,0,
00:00.8,-8.58E-05,-0.000457764,0.013778687,0,
00:00.8,-9.16E-05,-0.000469208,0.013784409,0,
00:00.8,-8.01E-05,-0.000469208,0.013790131,0,
00:00.8,-8.58E-05,-0.000463486,0.013795853,0,
00:00.8,-8.58E-05,-0.000452042,0.013795853,0,
00:00.8,-8.58E-05,-0.000452042,0.013801575,0,
00:00.8,-7.44E-05,-0.00044632,0.013807297,0,
00:00.8,-7.44E-05,-0.000452042,0.013818741,0,
00:00.8,-8.58E-05,-0.000469208,0.013818741,0,
00:00.8,-9.16E-05,-0.000486374,0.013813019,0,
00:00.8,-8.58E-05,-0.000469208,0.013818741,0,
00:00.8,-8.01E-05,-0.000452042,0.013818741,0,
00:00.8,-8.58E-05,-0.000457764,0.013824463,0,
00:00.9,-8.01E-05,-0.000469208,0.013830185,0,
00:00.9,-8.58E-05,-0.000492096,0.013830185,0,
00:00.9,-8.58E-05,-0.000480652,0.013830185,0,
00:00.9,-8.01E-05,-0.000452042,0.013835907,0,
00:00.9,-9.16E-05,-0.000457764,0.013841629,0,
00:00.9,-8.01E-05,-0.00047493,0.013841629,0,
00:00.9,-6.87E-05,-0.00047493,0.013847351,0,
00:00.9,-8.58E-05,-0.00050354,0.013847351,0,
00:00.9,-0.000120163,-0.000520706,0.013847351,0,
00:00.9,-9.16E-05,-0.000480652,0.013853073,0,
00:00.9,-5.15E-05,-0.000440598,0.013858795,0,
00:00.9,-6.87E-05,-0.000457764,0.013853073,0,
00:00.9,-7.44E-05,-0.00047493,0.013858795,0,
00:00.9,-7.44E-05,-0.000469208,0.013864517,0,
00:00.9,-7.44E-05,-0.00047493,0.013870239,0,
00:00.9,-9.16E-05,-0.000480652,0.013875961,0,
00:00.9,-8.01E-05,-0.00047493,0.013875961,0,
00:00.9,-6.87E-05,-0.00047493,0.013875961,0,
00:00.9,-6.87E-05,-0.00047493,0.013875961,0,
00:00.9,-6.87E-05,-0.000469208,0.013881683,0,
00:00.9,-7.44E-05,-0.000469208,0.013887405,0,
00:00.9,-7.44E-05,-0.000469208,0.013887405,0,
00:00.9,-7.44E-05,-0.00047493,0.013887405,0,
00:00.9,-7.44E-05,-0.000486374,0.013893127,0,
00:00.9,-7.44E-05,-0.000486374,0.013898849,0,
00:01.0,-7.44E-05,-0.000480652,0.013898849,0,
00:01.0,-8.01E-05,-0.000486374,0.013898849,0,
00:01.0,-8.58E-05,-0.000509262,0.013898849,0,
00:01.0,-9.16E-05,-0.00050354,0.013910294,0,
00:01.0,-8.01E-05,-0.000469208,0.013921738,0,
00:01.0,-9.16E-05,-0.000469208,0.013904572,0,
00:01.0,-8.58E-05,-0.000480652,0.013904572,0,
00:01.0,-5.72E-05,-0.00047493,0.013904572,0,
00:01.0,-6.29E-05,-0.000463486,0.013904572,0,
00:01.0,-6.29E-05,-0.000469208,0.013910294,0,
00:01.0,-6.87E-05,-0.00047493,0.013921738,0,
00:01.0,-6.29E-05,-0.00047493,0.013916016,0,
00:00:01,-5.72E-05,-0.000492096,0.013910294,0,
00:01.0,-6.87E-05,-0.000509262,0.013916016,0,
00:01.0,-6.87E-05,-0.000492096,0.01392746,0,
00:01.0,-6.87E-05,-0.000469208,0.01392746,0,
00:01.0,-6.87E-05,-0.000480652,0.01392746,0,
00:01.0,-7.44E-05,-0.000480652,0.01392746,0,
00:01.0,-6.29E-05,-0.000480652,0.013933182,0,
00:01.0,-6.87E-05,-0.000497818,0.013938904,0,
00:01.0,-6.29E-05,-0.000492096,0.013938904,0,
00:01.0,-6.29E-05,-0.000469208,0.013938904,0,
00:01.0,-6.29E-05,-0.000463486,0.013938904,0,
00:01.0,-6.87E-05,-0.000480652,0.013944626,0,
00:01.0,-8.01E-05,-0.000492096,0.013944626,0,
00:01.1,-6.87E-05,-0.000480652,0.013950348,0,
00:01.1,-5.72E-05,-0.00047493,0.013950348,0,
00:01.1,-6.29E-05,-0.000486374,0.013950348,0,
00:01.1,-6.29E-05,-0.000492096,0.01395607,0,
00:01.1,-6.29E-05,-0.000480652,0.013961792,0,
00:01.1,-8.58E-05,-0.00047493,0.01395607,0,
00:01.1,-8.01E-05,-0.00047493,0.01395607,0,
00:01.1,-6.87E-05,-0.00047493,0.01395607,0,
00:01.1,-4.58E-05,-0.000480652,0.01395607,0,
00:01.1,-6.29E-05,-0.00050354,0.013961792,0,
00:01.1,-6.29E-05,-0.00050354,0.013967514,0,
00:01.1,-5.72E-05,-0.000492096,0.013967514,0,
00:01.1,-6.87E-05,-0.000497818,0.013967514,0,
00:01.1,-6.29E-05,-0.000492096,0.013967514,0,
00:01.1,-5.72E-05,-0.00047493,0.013973236,0,
00:01.1,-6.29E-05,-0.00047493,0.013978958,0,
00:01.1,-5.72E-05,-0.000486374,0.013978958,0,
00:01.1,-5.15E-05,-0.000486374,0.013973236,0,
00:01.1,-6.87E-05,-0.000486374,0.013973236,0,
00:01.1,-7.44E-05,-0.000486374,0.013978958,0,
00:01.1,-5.72E-05,-0.00047493,0.01398468,0,
00:01.1,-5.72E-05,-0.000486374,0.01398468,0,
00:01.1,-5.15E-05,-0.000486374,0.01398468,0,
00:01.1,-5.72E-05,-0.00047493,0.01398468,0,
00:01.1,-6.29E-05,-0.000492096,0.013990402,0,
00:01.2,-8.01E-05,-0.000497818,0.014007568,0,
00:01.2,-7.44E-05,-0.000492096,0.013990402,0,
00:01.2,-4.58E-05,-0.000480652,0.013978958,0,
00:01.2,-5.15E-05,-0.000492096,0.01398468,0,
00:01.2,-5.72E-05,-0.000480652,0.013990402,0,
00:01.2,-6.29E-05,-0.000469208,0.013996124,0,
00:01.2,-6.29E-05,-0.000497818,0.013996124,0,
00:01.2,-6.29E-05,-0.000526428,0.013990402,0,
00:01.2,-6.87E-05,-0.000497818,0.013996124,0,
00:01.2,-5.15E-05,-0.000463486,0.014001846,0,
00:01.2,-5.15E-05,-0.00047493,0.014001846,0,
00:01.2,-6.29E-05,-0.000497818,0.014001846,0,
00:01.2,-6.87E-05,-0.000497818,0.014001846,0,
00:01.2,-5.72E-05,-0.00047493,0.014001846,0,
00:01.2,-5.15E-05,-0.000469208,0.014007568,0,
00:01.2,-5.15E-05,-0.000469208,0.01401329,0,
00:01.2,-5.15E-05,-0.000469208,0.01401329,0,
00:01.2,-5.72E-05,-0.000480652,0.014007568,0,
00:01.2,-6.29E-05,-0.00050354,0.01401329,0,
00:01.2,-6.29E-05,-0.000497818,0.014019012,0,
00:01.2,-5.15E-05,-0.000469208,0.014019012,0,
00:01.2,-5.15E-05,-0.000469208,0.014019012,0,
00:01.2,-6.29E-05,-0.00047493,0.014019012,0,
00:01.2,-5.72E-05,-0.000480652,0.014019012,0,
00:01.2,-7.44E-05,-0.00050354,0.014024734,0,
00:01.3,-7.44E-05,-0.000509262,0.014024734,0,
00:01.3,-6.29E-05,-0.000486374,0.014019012,0,
00:01.3,-5.72E-05,-0.00047493,0.014019012,0,
00:01.3,-6.29E-05,-0.00047493,0.014024734,0,
00:01.3,-5.15E-05,-0.000469208,0.014036179,0,
00:01.3,-3.43E-05,-0.000469208,0.014030457,0,
00:01.3,-5.15E-05,-0.000486374,0.014019012,0,
00:01.3,-5.72E-05,-0.000497818,0.014024734,0,
00:01.3,-5.72E-05,-0.000480652,0.014030457,0,
00:01.3,-5.72E-05,-0.000480652,0.014030457,0,
00:01.3,-6.29E-05,-0.000480652,0.014036179,0,
00:01.3,-5.15E-05,-0.000469208,0.014036179,0,
00:01.3,-5.15E-05,-0.00047493,0.014030457,0,
00:01.3,-4.58E-05,-0.000480652,0.014036179,0,
00:01.3,-6.87E-05,-0.000480652,0.014047623,0,
00:01.3,-6.29E-05,-0.000486374,0.014036179,0,
00:01.3,-4.58E-05,-0.000480652,0.014036179,0,
00:01.3,-5.15E-05,-0.00047493,0.014036179,0,
00:01.3,-5.15E-05,-0.000457764,0.014036179,0,
00:01.3,-5.72E-05,-0.000463486,0.014041901,0,
00:01.3,-5.72E-05,-0.000486374,0.014041901,0,
00:01.3,-6.29E-05,-0.000509262,0.014041901,0,
00:01.3,-5.72E-05,-0.00050354,0.014047623,0,
00:01.3,-4.58E-05,-0.000452042,0.014047623,0,
00:01.3,-5.15E-05,-0.00044632,0.014053345,0,
00:01.4,-4.58E-05,-0.000457764,0.014047623,0,
00:01.4,-4.01E-05,-0.000469208,0.014047623,0,
00:01.4,-5.15E-05,-0.000497818,0.014047623,0,
00:01.4,-6.87E-05,-0.000509262,0.014047623,0,
00:01.4,-6.29E-05,-0.000480652,0.014053345,0,
00:01.4,-4.58E-05,-0.000457764,0.014059067,0,
00:01.4,-3.43E-05,-0.00044632,0.014053345,0,
00:01.4,-4.01E-05,-0.000457764,0.014053345,0,
00:01.4,-5.15E-05,-0.000469208,0.014053345,0,
00:01.4,-5.72E-05,-0.000486374,0.014053345,0,
00:01.4,-6.87E-05,-0.00050354,0.014053345,0,
00:01.4,-6.29E-05,-0.000480652,0.014053345,0,
00:01.4,-5.72E-05,-0.000457764,0.014053345,0,
00:01.4,-5.72E-05,-0.00047493,0.014059067,0,
00:01.4,-6.29E-05,-0.000514984,0.014059067,0,
00:01.4,-6.87E-05,-0.000514984,0.014064789,0,
00:01.4,-5.15E-05,-0.00047493,0.014064789,0,
00:01.4,-4.58E-05,-0.000457764,0.014059067,0,
00:01.4,-5.72E-05,-0.00044632,0.014064789,0,
00:01.4,-5.15E-05,-0.000452042,0.014064789,0,
00:01.4,-4.58E-05,-0.000463486,0.014070511,0,
00:01.4,-5.72E-05,-0.000480652,0.014064789,0,
00:01.4,-6.29E-05,-0.000497818,0.014059067,0,
00:01.4,-9.16E-05,-0.000492096,0.014064789,0,
00:01.4,-6.29E-05,-0.000457764,0.014064789,0,
00:01.5,-3.43E-05,-0.000452042,0.014064789,0,
00:01.5,-4.58E-05,-0.000469208,0.014064789,0,
00:01.5,-4.58E-05,-0.00047493,0.014064789,0,
00:01.5,-5.72E-05,-0.00047493,0.014064789,0,
00:01.5,-5.15E-05,-0.000463486,0.014070511,0,
00:01.5,-5.72E-05,-0.000463486,0.014070511,0,
00:01.5,-5.72E-05,-0.000469208,0.014070511,0,
00:01.5,-6.29E-05,-0.000480652,0.014076233,0,
00:01.5,-5.72E-05,-0.000480652,0.014081955,0,
00:01.5,-6.29E-05,-0.000492096,0.014076233,0,
00:01.5,-6.29E-05,-0.00047493,0.014070511,0,
00:01.5,-5.15E-05,-0.000463486,0.014070511,0,
00:01.5,-5.15E-05,-0.000457764,0.014076233,0,
00:01.5,-5.15E-05,-0.000457764,0.014076233,0,
00:01.5,-5.72E-05,-0.000457764,0.014076233,0,
00:01.5,-5.72E-05,-0.00047493,0.014081955,0,
00:01.5,-6.29E-05,-0.000486374,0.014081955,0,
00:01.5,-8.01E-05,-0.00047493,0.014081955,0,
00:01.5,-6.87E-05,-0.000457764,0.014081955,0,
00:01.5,-5.72E-05,-0.000463486,0.014087677,0,
00:01.5,-4.58E-05,-0.00047493,0.014081955,0,
00:01.5,-5.15E-05,-0.000463486,0.014076233,0,
00:01.5,-5.15E-05,-0.000463486,0.014081955,0,
00:01.5,-5.72E-05,-0.000463486,0.014081955,0,
00:01.5,-5.72E-05,-0.000469208,0.014087677,0,
00:01.6,-6.29E-05,-0.000480652,0.014087677,0,
00:01.6,-6.87E-05,-0.000509262,0.014081955,0,
00:01.6,-6.29E-05,-0.000486374,0.014081955,0,
00:01.6,-5.15E-05,-0.000434875,0.014081955,0,
00:01.6,-4.58E-05,-0.000440598,0.014087677,0,
00:01.6,-5.72E-05,-0.000457764,0.014087677,0,
00:01.6,-5.15E-05,-0.000469208,0.014087677,0,
00:01.6,-5.72E-05,-0.00047493,0.014087677,0,
00:01.6,-5.72E-05,-0.00047493,0.014093399,0,
00:01.6,-5.72E-05,-0.000480652,0.014093399,0,
00:01.6,-7.44E-05,-0.000492096,0.014081955,0,
00:01.6,-6.87E-05,-0.00047493,0.014081955,0,
00:01.6,-5.15E-05,-0.000463486,0.014081955,0,
00:01.6,-6.29E-05,-0.000469208,0.014087677,0,
00:01.6,-6.87E-05,-0.00047493,0.014087677,0,
00:01.6,-5.15E-05,-0.000452042,0.014087677,0,
00:01.6,-5.15E-05,-0.00044632,0.014087677,0,
00:01.6,-6.29E-05,-0.000469208,0.014087677,0,
00:01.6,-6.29E-05,-0.000486374,0.014087677,0,
00:01.6,-6.29E-05,-0.000486374,0.014087677,0,
00:01.6,-6.87E-05,-0.00047493,0.014087677,0,
00:01.6,-8.01E-05,-0.000463486,0.014093399,0,
00:01.6,-6.87E-05,-0.000463486,0.014081955,0,
00:01.6,-5.72E-05,-0.000469208,0.014087677,0,
00:01.6,-5.72E-05,-0.000469208,0.014087677,0,
00:01.7,-6.29E-05,-0.00047493,0.014081955,0,
00:01.7,-5.72E-05,-0.000457764,0.014087677,0,
00:01.7,-6.87E-05,-0.000463486,0.014081955,0,
00:01.7,-5.15E-05,-0.000463486,0.014087677,0,
00:01.7,-5.15E-05,-0.00044632,0.014087677,0,
00:01.7,-5.15E-05,-0.000452042,0.014087677,0,
00:01.7,-6.29E-05,-0.000469208,0.014087677,0,
00:01.7,-6.87E-05,-0.000480652,0.014081955,0,
00:01.7,-7.44E-05,-0.000469208,0.014081955,0,
00:01.7,-5.72E-05,-0.000452042,0.014087677,0,
00:01.7,-5.15E-05,-0.000457764,0.014087677,0,
00:01.7,-6.29E-05,-0.000469208,0.014076233,0,
00:01.7,-7.44E-05,-0.000469208,0.014081955,0,
00:01.7,-6.29E-05,-0.000457764,0.014087677,0,
00:01.7,-5.72E-05,-0.000457764,0.014081955,0,
00:01.7,-5.72E-05,-0.000452042,0.014081955,0,
00:01.7,-5.72E-05,-0.000452042,0.014081955,0,
00:01.7,-6.29E-05,-0.000457764,0.014081955,0,
00:01.7,-7.44E-05,-0.000457764,0.014081955,0,
00:01.7,-7.44E-05,-0.000463486,0.014081955,0,
00:01.7,-6.29E-05,-0.000452042,0.014081955,0,
00:01.7,-7.44E-05,-0.00044632,0.014081955,0,
00:01.7,-6.29E-05,-0.000457764,0.014087677,0,
00:01.7,-6.29E-05,-0.000469208,0.014081955,0,
00:01.7,-6.29E-05,-0.000457764,0.014070511,0,
00:01.8,-7.44E-05,-0.000452042,0.014081955,0,
00:01.8,-6.29E-05,-0.000457764,0.014076233,0,
00:01.8,-6.29E-05,-0.00047493,0.014076233,0,
00:01.8,-6.87E-05,-0.000463486,0.014081955,0,
00:01.8,-6.29E-05,-0.000434875,0.014081955,0,
00:01.8,-5.72E-05,-0.000429153,0.014076233,0,
00:01.8,-6.29E-05,-0.00044632,0.014076233,0,
00:01.8,-6.87E-05,-0.000440598,0.014076233,0,
00:01.8,-6.87E-05,-0.000440598,0.014076233,0,
00:01.8,-6.29E-05,-0.000452042,0.014081955,0,
00:01.8,-6.87E-05,-0.000463486,0.014081955,0,
00:01.8,-7.44E-05,-0.000463486,0.014076233,0,
00:01.8,-6.29E-05,-0.00044632,0.014076233,0,
00:01.8,-5.72E-05,-0.000434875,0.014081955,0,
00:01.8,-6.87E-05,-0.000434875,0.014076233,0,
00:01.8,-6.87E-05,-0.00044632,0.014081955,0,
00:01.8,-7.44E-05,-0.000457764,0.014076233,0,
00:01.8,-6.87E-05,-0.000434875,0.014076233,0,
00:01.8,-6.29E-05,-0.000429153,0.014076233,0,
00:01.8,-7.44E-05,-0.00044632,0.014076233,0,
00:01.8,-8.01E-05,-0.000463486,0.014070511,0,
00:01.8,-7.44E-05,-0.000463486,0.014070511,0,
00:01.8,-8.58E-05,-0.00044632,0.014076233,0,
00:01.8,-8.01E-05,-0.000429153,0.014076233,0,
00:01.8,-4.58E-05,-0.000423431,0.014070511,0,
00:01.9,-6.29E-05,-0.000429153,0.014070511,0,
00:01.9,-5.72E-05,-0.000429153,0.014070511,0,
00:01.9,-5.72E-05,-0.000429153,0.014070511,0,
00:01.9,-6.29E-05,-0.000440598,0.014070511,0,
00:01.9,-6.87E-05,-0.000440598,0.014070511,0,
00:01.9,-7.44E-05,-0.000440598,0.014070511,0,
00:01.9,-8.01E-05,-0.000452042,0.014070511,0,
00:01.9,-7.44E-05,-0.000452042,0.014064789,0,
00:01.9,-6.29E-05,-0.000423431,0.014070511,0,
00:01.9,-5.72E-05,-0.000411987,0.014070511,0,
00:01.9,-7.44E-05,-0.000429153,0.014070511,0,
00:01.9,-8.01E-05,-0.000452042,0.014064789,0,
00:01.9,-6.29E-05,-0.000452042,0.014059067,0,
00:01.9,-6.29E-05,-0.000429153,0.014064789,0,
00:01.9,-6.87E-05,-0.000423431,0.014064789,0,
00:01.9,-6.87E-05,-0.000423431,0.014064789,0,
00:01.9,-7.44E-05,-0.000423431,0.014059067,0,
00:01.9,-6.87E-05,-0.000417709,0.014059067,0,
00:01.9,-7.44E-05,-0.000423431,0.014059067,0,
00:01.9,-7.44E-05,-0.000429153,0.014064789,0,
00:01.9,-6.87E-05,-0.000423431,0.014076233,0,
00:01.9,-6.87E-05,-0.000429153,0.014059067,0,
00:01.9,-8.58E-05,-0.00044632,0.014047623,0,
00:01.9,-0.000114441,-0.000452042,0.014047623,0,
00:01.9,-8.58E-05,-0.000411987,0.014059067,0,
00:02.0,-8.01E-05,-0.000411987,0.014059067,0,
00:02.0,-6.29E-05,-0.000400543,0.014047623,0,
00:02.0,-7.44E-05,-0.000406265,0.014053345,0,
00:02.0,-0.000102997,-0.000423431,0.014059067,0,
00:02.0,-6.87E-05,-0.000429153,0.014047623,0,
00:02.0,-6.29E-05,-0.000434875,0.014053345,0,
00:02.0,-8.01E-05,-0.000452042,0.014047623,0,
00:02.0,-8.58E-05,-0.000452042,0.014047623,0,
00:02.0,-6.87E-05,-0.000406265,0.014047623,0,
00:02.0,-7.44E-05,-0.000400543,0.014053345,0,
00:02.0,-7.44E-05,-0.000406265,0.014053345,0,
00:02.0,-7.44E-05,-0.000406265,0.014047623,0,
00:00:02,-8.58E-05,-0.000423431,0.014047623,0,
00:02.0,-9.16E-05,-0.000440598,0.014047623,0,
00:02.0,-8.58E-05,-0.000434875,0.014047623,0,
00:02.0,-8.58E-05,-0.000411987,0.014047623,0,
00:02.0,-8.58E-05,-0.000406265,0.014047623,0,
00:02.0,-8.58E-05,-0.000406265,0.014047623,0,
00:02.0,-7.44E-05,-0.000394821,0.014041901,0,
00:02.0,-8.58E-05,-0.000406265,0.014047623,0,
00:02.0,-9.16E-05,-0.000411987,0.014047623,0,
00:02.0,-8.58E-05,-0.000411987,0.014041901,0,
00:02.0,-9.16E-05,-0.000411987,0.014041901,0,
00:02.0,-9.16E-05,-0.000411987,0.014053345,0,
00:02.0,-8.01E-05,-0.000406265,0.014041901,0,
00:02.1,-9.16E-05,-0.000423431,0.014036179,0,
00:02.1,-0.000102997,-0.000429153,0.014036179,0,
00:02.1,-8.58E-05,-0.000417709,0.014036179,0,
00:02.1,-8.58E-05,-0.000406265,0.014041901,0,
00:02.1,-9.16E-05,-0.000406265,0.014041901,0,
00:02.1,-8.58E-05,-0.000400543,0.014036179,0,
00:02.1,-8.01E-05,-0.000400543,0.014030457,0,
00:02.1,-8.58E-05,-0.000411987,0.014030457,0,
00:02.1,-9.73E-05,-0.000423431,0.014030457,0,
00:02.1,-9.73E-05,-0.000417709,0.014030457,0,
00:02.1,-9.16E-05,-0.000400543,0.014036179,0,
00:02.1,-8.58E-05,-0.000400543,0.014036179,0,
00:02.1,-8.01E-05,-0.000406265,0.014024734,0,
00:02.1,-9.16E-05,-0.000406265,0.014030457,0,
00:02.1,-9.16E-05,-0.000394821,0.014024734,0,
00:02.1,-9.73E-05,-0.000400543,0.014024734,0,
00:02.1,-9.73E-05,-0.000411987,0.014024734,0,
00:02.1,-9.16E-05,-0.000400543,0.014019012,0,
00:02.1,-8.01E-05,-0.000389099,0.014024734,0,
00:02.1,-8.58E-05,-0.000394821,0.014024734,0,
00:02.1,-0.000102997,-0.000411987,0.014024734,0,
00:02.1,-0.000102997,-0.000406265,0.014030457,0,
00:02.1,-9.16E-05,-0.000400543,0.014024734,0,
00:02.1,-9.73E-05,-0.000406265,0.014019012,0,
00:02.1,-0.000102997,-0.000411987,0.014019012,0,
00:02.2,-0.000114441,-0.000394821,0.014019012,0,
00:02.2,-0.000114441,-0.000394821,0.014024734,0,
00:02.2,-8.58E-05,-0.000406265,0.01401329,0,
00:02.2,-8.58E-05,-0.000406265,0.01401329,0,
00:02.2,-0.000102997,-0.000406265,0.014019012,0,
00:02.2,-9.73E-05,-0.000400543,0.01401329,0,
00:02.2,-8.58E-05,-0.000377655,0.01401329,0,
00:02.2,-9.16E-05,-0.000366211,0.01401329,0,
00:02.2,-9.73E-05,-0.000371933,0.01401329,0,
00:02.2,-0.000102997,-0.000394821,0.01401329,0,
00:02.2,-0.000102997,-0.000394821,0.01401329,0,
00:02.2,-9.73E-05,-0.000389099,0.01401329,0,
00:02.2,-0.000102997,-0.000383377,0.014007568,0,
00:02.2,-0.000102997,-0.000389099,0.01401329,0,
00:02.2,-0.000108719,-0.000406265,0.01401329,0,
00:02.2,-0.000108719,-0.000406265,0.01401329,0,
00:02.2,-9.73E-05,-0.000377655,0.01401329,0,
00:02.2,-9.16E-05,-0.000371933,0.014007568,0,
00:02.2,-9.73E-05,-0.000377655,0.014007568,0,
00:02.2,-9.16E-05,-0.000377655,0.014007568,0,
00:02.2,-9.73E-05,-0.000377655,0.014001846,0,
00:02.2,-9.73E-05,-0.000383377,0.014001846,0,
00:02.2,-9.73E-05,-0.000389099,0.014001846,0,
00:02.2,-0.000102997,-0.000389099,0.014001846,0,
00:02.2,-0.000102997,-0.000383377,0.01401329,0,
00:02.3,-0.000120163,-0.000389099,0.014007568,0,
00:02.3,-0.000108719,-0.000377655,0.014001846,0,
00:02.3,-8.58E-05,-0.000371933,0.013996124,0,
00:02.3,-9.73E-05,-0.000389099,0.013996124,0,
00:02.3,-9.73E-05,-0.000383377,0.013996124,0,
00:02.3,-9.16E-05,-0.000377655,0.013996124,0,
00:02.3,-9.73E-05,-0.000383377,0.013990402,0,
00:02.3,-0.000120163,-0.000417709,0.013990402,0,
00:02.3,-0.000125885,-0.000406265,0.014001846,0,
00:02.3,-8.58E-05,-0.000349045,0.013996124,0,
00:02.3,-9.73E-05,-0.000360489,0.013990402,0,
00:02.3,-0.000102997,-0.000371933,0.013990402,0,
00:02.3,-0.000102997,-0.000371933,0.013990402,0,
00:02.3,-0.000108719,-0.000377655,0.013990402,0,
00:02.3,-0.000102997,-0.000366211,0.013990402,0,
00:02.3,-0.000102997,-0.000371933,0.013990402,0,
00:02.3,-0.000114441,-0.000377655,0.01398468,0,
00:02.3,-0.000120163,-0.000383377,0.01398468,0,
00:02.3,-0.000114441,-0.000383377,0.01398468,0,
00:02.3,-0.000108719,-0.000377655,0.013990402,0,
00:02.3,-0.000120163,-0.000389099,0.01398468,0,
00:02.3,-0.000120163,-0.000400543,0.01398468,0,
00:02.3,-0.000114441,-0.000366211,0.013978958,0,
00:02.3,-9.73E-05,-0.000354767,0.01398468,0,
00:02.3,-9.16E-05,-0.000354767,0.01398468,0,
00:02.4,-0.000102997,-0.000343323,0.01398468,0,
00:02.4,-0.000108719,-0.000360489,0.013978958,0,
00:02.4,-0.000102997,-0.000371933,0.013978958,0,
00:02.4,-0.000108719,-0.000383377,0.013978958,0,
00:02.4,-0.000114441,-0.000377655,0.013978958,0,
00:02.4,-0.000114441,-0.000366211,0.013978958,0,
00:02.4,-0.000108719,-0.000360489,0.013978958,0,
00:02.4,-0.000131607,-0.000383377,0.013978958,0,
00:02.4,-9.73E-05,-0.000389099,0.013978958,0,
00:02.4,-0.000108719,-0.000383377,0.013973236,0,
00:02.4,-0.000108719,-0.000354767,0.013967514,0,
00:02.4,-9.73E-05,-0.000331879,0.013967514,0,
00:02.4,-0.000114441,-0.000343323,0.013967514,0,
00:02.4,-0.000120163,-0.000360489,0.013967514,0,
00:02.4,-0.000108719,-0.000371933,0.013973236,0,
00:02.4,-0.000120163,-0.000377655,0.013978958,0,
00:02.4,-0.000125885,-0.000383377,0.013973236,0,
00:02.4,-0.000108719,-0.000354767,0.013961792,0,
00:02.4,-0.000108719,-0.000349045,0.013961792,0,
00:02.4,-0.000108719,-0.000354767,0.013961792,0,
00:02.4,-0.000114441,-0.000360489,0.013967514,0,
00:02.4,-0.000102997,-0.000337601,0.013961792,0,
00:02.4,-0.000102997,-0.000331879,0.013961792,0,
00:02.4,-0.000120163,-0.000354767,0.013961792,0,
00:02.4,-0.000114441,-0.000366211,0.013961792,0,
00:02.5,-0.000120163,-0.000354767,0.013967514,0,
00:02.5,-0.000114441,-0.000331879,0.013961792,0,
00:02.5,-0.000108719,-0.000337601,0.013961792,0,
00:02.5,-0.000114441,-0.000343323,0.013961792,0,
00:02.5,-0.000120163,-0.000354767,0.013961792,0,
00:02.5,-0.000131607,-0.000360489,0.013961792,0,
00:02.5,-0.000108719,-0.000354767,0.01395607,0,
00:02.5,-0.000108719,-0.000343323,0.01395607,0,
00:02.5,-0.000114441,-0.000331879,0.013961792,0,
00:02.5,-0.000131607,-0.000343323,0.013973236,0,
00:02.5,-0.000125885,-0.000371933,0.013961792,0,
00:02.5,-0.000120163,-0.000360489,0.01395607,0,
00:02.5,-0.000102997,-0.000320435,0.013950348,0,
00:02.5,-0.000102997,-0.000314713,0.01395607,0,
00:02.5,-0.000120163,-0.000331879,0.01395607,0,
00:02.5,-0.000120163,-0.000343323,0.01395607,0,
00:02.5,-0.000125885,-0.000360489,0.013950348,0,
00:02.5,-0.000137329,-0.000360489,0.01395607,0,
00:02.5,-0.000131607,-0.000349045,0.01395607,0,
00:02.5,-0.000120163,-0.000331879,0.01395607,0,
00:02.5,-0.000102997,-0.000326157,0.01395607,0,
00:02.5,-0.000114441,-0.000337601,0.01395607,0,
00:02.5,-0.000114441,-0.000331879,0.01395607,0,
00:02.5,-0.000120163,-0.000331879,0.013950348,0,
00:02.5,-0.000125885,-0.000326157,0.01395607,0,
00:02.6,-0.000120163,-0.000326157,0.01395607,0,
00:02.6,-0.000108719,-0.000326157,0.01395607,0,
00:02.6,-0.000125885,-0.000343323,0.013950348,0,
00:02.6,-0.000137329,-0.000354767,0.013950348,0,
00:02.6,-0.000125885,-0.000349045,0.01395607,0,
00:02.6,-0.000114441,-0.000331879,0.013950348,0,
00:02.6,-0.000120163,-0.000320435,0.013944626,0,
00:02.6,-0.000131607,-0.000320435,0.013944626,0,
00:02.6,-0.000114441,-0.000320435,0.013950348,0,
00:02.6,-0.000120163,-0.000320435,0.013950348,0,
00:02.6,-0.000131607,-0.000326157,0.01395607,0,
00:02.6,-0.000125885,-0.000331879,0.013944626,0,
00:02.6,-0.000114441,-0.000331879,0.013944626,0,
00:02.6,-0.000114441,-0.000320435,0.013950348,0,
00:02.6,-0.000120163,-0.000320435,0.013950348,0,
00:02.6,-0.000137329,-0.000349045,0.013950348,0,
00:02.6,-0.000148773,-0.000343323,0.013944626,0,
00:02.6,-0.000120163,-0.00030899,0.013944626,0,
00:02.6,-0.000125885,-0.00030899,0.013944626,0,
00:02.6,-0.000137329,-0.000326157,0.013950348,0,
00:02.6,-0.000137329,-0.000331879,0.013944626,0,
00:02.6,-0.000108719,-0.000320435,0.013944626,0,
00:02.6,-0.000108719,-0.000314713,0.013944626,0,
00:02.6,-0.000120163,-0.000314713,0.013944626,0,
00:02.6,-0.000131607,-0.000314713,0.013944626,0,
00:02.7,-0.000125885,-0.000320435,0.013944626,0,
00:02.7,-0.000131607,-0.000320435,0.013944626,0,
00:02.7,-0.000131607,-0.00030899,0.013938904,0,
00:02.7,-0.000125885,-0.000314713,0.013938904,0,
00:02.7,-0.000125885,-0.000314713,0.013944626,0,
00:02.7,-0.000120163,-0.000303268,0.013944626,0,
00:02.7,-0.000125885,-0.000303268,0.013944626,0,
00:02.7,-0.000131607,-0.000320435,0.013944626,0,
00:02.7,-0.000137329,-0.000326157,0.013938904,0,
00:02.7,-0.000137329,-0.00030899,0.013938904,0,
00:02.7,-0.000125885,-0.000303268,0.013938904,0,
00:02.7,-0.000120163,-0.000303268,0.013938904,0,
00:02.7,-0.000131607,-0.000303268,0.013944626,0,
00:02.7,-0.000154495,-0.000320435,0.013950348,0,
00:02.7,-0.000131607,-0.000320435,0.01392746,0,
00:02.7,-0.000125885,-0.000291824,0.013933182,0,
00:02.7,-0.000131607,-0.000291824,0.013933182,0,
00:02.7,-0.000131607,-0.000297546,0.013933182,0,
00:02.7,-0.000143051,-0.000297546,0.013933182,0,
00:02.7,-0.000137329,-0.000303268,0.013938904,0,
00:02.7,-0.000131607,-0.00030899,0.013933182,0,
00:02.7,-0.000131607,-0.00030899,0.013933182,0,
00:02.7,-0.000131607,-0.000297546,0.013933182,0,
00:02.7,-0.000137329,-0.000291824,0.013933182,0,
00:02.7,-0.000143051,-0.000297546,0.013933182,0,
00:02.8,-0.000131607,-0.000297546,0.013933182,0,
00:02.8,-0.000125885,-0.000291824,0.01392746,0,
00:02.8,-0.000131607,-0.000286102,0.01392746,0,
00:02.8,-0.000137329,-0.000291824,0.01392746,0,
00:02.8,-0.000137329,-0.000297546,0.01392746,0,
00:02.8,-0.000143051,-0.00030899,0.01392746,0,
00:02.8,-0.000154495,-0.000314713,0.013921738,0,
00:02.8,-0.000148773,-0.00030899,0.013921738,0,
00:02.8,-0.000143051,-0.00028038,0.01392746,0,
00:02.8,-0.000154495,-0.000274658,0.013933182,0,
00:02.8,-0.000125885,-0.000274658,0.01392746,0,
00:02.8,-0.000125885,-0.00028038,0.013921738,0,
00:02.8,-0.000137329,-0.000291824,0.01392746,0,
00:02.8,-0.000148773,-0.000303268,0.013933182,0,
00:02.8,-0.000160217,-0.000297546,0.01392746,0,
00:02.8,-0.000143051,-0.000291824,0.013933182,0,
00:02.8,-0.000143051,-0.000286102,0.013916016,0,
00:02.8,-0.000143051,-0.000291824,0.013916016,0,
00:02.8,-0.000154495,-0.000297546,0.01392746,0,
00:02.8,-0.000143051,-0.000274658,0.013921738,0,
00:02.8,-0.000131607,-0.00025177,0.013916016,0,
00:02.8,-0.000125885,-0.000263214,0.013916016,0,
00:02.8,-0.000137329,-0.000274658,0.013921738,0,
00:02.8,-0.000137329,-0.000274658,0.013916016,0,
00:02.8,-0.000148773,-0.000286102,0.013921738,0,
00:02.9,-0.000148773,-0.000274658,0.013921738,0,
00:02.9,-0.000137329,-0.000268936,0.013921738,0,
00:02.9,-0.000148773,-0.00028038,0.013921738,0,
00:02.9,-0.000165939,-0.00030899,0.013921738,0,
00:02.9,-0.000160217,-0.00030899,0.013921738,0,
00:02.9,-0.000148773,-0.00028038,0.013921738,0,
00:02.9,-0.000143051,-0.000257492,0.013921738,0,
00:02.9,-0.000137329,-0.00025177,0.013921738,0,
00:02.9,-0.000154495,-0.000274658,0.013921738,0,
00:02.9,-0.000154495,-0.000291824,0.013921738,0,
00:02.9,-0.000160217,-0.000297546,0.013921738,0,
00:02.9,-0.000154495,-0.000268936,0.013921738,0,
00:02.9,-0.000148773,-0.000240326,0.013921738,0,
00:02.9,-0.000154495,-0.000257492,0.013921738,0,
00:02.9,-0.000148773,-0.000274658,0.01392746,0,
00:02.9,-0.000154495,-0.000268936,0.013916016,0,
00:02.9,-0.000160217,-0.000268936,0.013916016,0,
00:02.9,-0.000160217,-0.000268936,0.013916016,0,
00:02.9,-0.000160217,-0.00028038,0.013921738,0,
00:02.9,-0.000154495,-0.000274658,0.013916016,0,
00:02.9,-0.000154495,-0.00025177,0.013921738,0,
00:02.9,-0.000154495,-0.000263214,0.013916016,0,
00:02.9,-0.000154495,-0.000268936,0.013916016,0,
00:02.9,-0.000137329,-0.00025177,0.013916016,0,
00:02.9,-0.000137329,-0.000246048,0.013921738,0,
00:03.0,-0.000143051,-0.000246048,0.013910294,0,
00:03.0,-0.000154495,-0.000263214,0.013910294,0,
00:03.0,-0.000154495,-0.000263214,0.013910294,0,
00:03.0,-0.000148773,-0.000246048,0.013916016,0,
00:03.0,-0.000154495,-0.00025177,0.013916016,0,
00:03.0,-0.000165939,-0.000257492,0.013916016,0,
00:03.0,-0.000154495,-0.000257492,0.013916016,0,
00:03.0,-0.000154495,-0.000257492,0.013916016,0,
00:03.0,-0.000160217,-0.000257492,0.013916016,0,
00:03.0,-0.000160217,-0.00025177,0.013921738,0,
00:03.0,-0.000143051,-0.000246048,0.013916016,0,
00:03.0,-0.000143051,-0.00025177,0.013910294,0,
00:00:03,-0.000154495,-0.00025177,0.013910294,0,
00:03.0,-0.000154495,-0.000257492,0.013916016,0,
00:03.0,-0.000160217,-0.000263214,0.013921738,0,
00:03.0,-0.000165939,-0.000257492,0.013916016,0,
00:03.0,-0.000154495,-0.000240326,0.013910294,0,
00:03.0,-0.000154495,-0.000246048,0.013910294,0,
00:03.0,-0.000165939,-0.000246048,0.013910294,0,
00:03.0,-0.000148773,-0.00025177,0.013916016,0,
00:03.0,-0.000154495,-0.000257492,0.013910294,0,
00:03.0,-0.000160217,-0.00025177,0.013910294,0,
00:03.0,-0.000160217,-0.000240326,0.013910294,0,
00:03.0,-0.000160217,-0.000234604,0.013916016,0,
00:03.0,-0.000154495,-0.000234604,0.013910294,0,
00:03.1,-0.000154495,-0.000228882,0.013910294,0,
00:03.1,-0.000154495,-0.000234604,0.013904572,0,
00:03.1,-0.000171661,-0.00025177,0.013904572,0,
00:03.1,-0.000165939,-0.000257492,0.013910294,0,
00:03.1,-0.000160217,-0.000240326,0.013910294,0,
00:03.1,-0.000154495,-0.000228882,0.013904572,0,
00:03.1,-0.000154495,-0.000234604,0.013910294,0,
00:03.1,-0.000165939,-0.000257492,0.013904572,0,
00:03.1,-0.000177383,-0.00025177,0.013904572,0,
00:03.1,-0.000177383,-0.000228882,0.013910294,0,
00:03.1,-0.000177383,-0.00022316,0.013910294,0,
00:03.1,-0.000148773,-0.000228882,0.013910294,0,
00:03.1,-0.000154495,-0.000240326,0.013904572,0,
00:03.1,-0.000171661,-0.00025177,0.013904572,0,
00:03.1,-0.000177383,-0.00025177,0.013910294,0,
00:03.1,-0.000160217,-0.000228882,0.013910294,0,
00:03.1,-0.000154495,-0.000211716,0.013904572,0,
00:03.1,-0.000160217,-0.00022316,0.013904572,0,
00:03.1,-0.000165939,-0.00022316,0.013910294,0,
00:03.1,-0.000183105,-0.000228882,0.013910294,0,
00:03.1,-0.000171661,-0.000246048,0.013904572,0,
00:03.1,-0.000165939,-0.000240326,0.013904572,0,
00:03.1,-0.000160217,-0.000217438,0.013904572,0,
00:03.1,-0.000160217,-0.000217438,0.013904572,0,
00:03.1,-0.000171661,-0.000234604,0.013910294,0,
00:03.2,-0.000177383,-0.00025177,0.013910294,0,
00:03.2,-0.000177383,-0.000257492,0.013898849,0,
00:03.2,-0.000165939,-0.000228882,0.013904572,0,
00:03.2,-0.000160217,-0.000205994,0.013904572,0,
00:03.2,-0.000165939,-0.000200272,0.013910294,0,
00:03.2,-0.000165939,-0.000211716,0.013904572,0,
00:03.2,-0.000160217,-0.000228882,0.013904572,0,
00:03.2,-0.000171661,-0.000234604,0.013904572,0,
00:03.2,-0.000177383,-0.000234604,0.013910294,0,
00:03.2,-0.000177383,-0.000228882,0.013910294,0,
00:03.2,-0.000171661,-0.000228882,0.013904572,0,
00:03.2,-0.000171661,-0.000234604,0.013904572,0,
00:03.2,-0.000183105,-0.00022316,0.013904572,0,
00:03.2,-0.000177383,-0.000205994,0.013910294,0,
00:03.2,-0.000160217,-0.000200272,0.013910294,0,
00:03.2,-0.000171661,-0.000211716,0.013898849,0,
00:03.2,-0.000177383,-0.000217438,0.013898849,0,
00:03.2,-0.000171661,-0.000228882,0.013904572,0,
00:03.2,-0.000183105,-0.000246048,0.013904572,0,
00:03.2,-0.000171661,-0.00022316,0.013904572,0,
00:03.2,-0.000165939,-0.000188828,0.013904572,0,
00:03.2,-0.000171661,-0.00019455,0.013904572,0,
00:03.2,-0.000160217,-0.000205994,0.013904572,0,
00:03.2,-0.000171661,-0.000211716,0.013904572,0,
00:03.2,-0.000171661,-0.000211716,0.013898849,0,
00:03.3,-0.000171661,-0.000217438,0.013904572,0,
00:03.3,-0.000177383,-0.000234604,0.013904572,0,
00:03.3,-0.000183105,-0.000228882,0.013898849,0,
00:03.3,-0.000171661,-0.000188828,0.013910294,0,
00:03.3,-0.000171661,-0.000183105,0.013904572,0,
00:03.3,-0.000171661,-0.000200272,0.013904572,0,
00:03.3,-0.000171661,-0.000200272,0.013904572,0,
00:03.3,-0.000171661,-0.000205994,0.013904572,0,
00:03.3,-0.000183105,-0.00022316,0.013904572,0,
00:03.3,-0.000200272,-0.00025177,0.013904572,0,
00:03.3,-0.00019455,-0.000228882,0.013904572,0,
00:03.3,-0.000171661,-0.000177383,0.013904572,0,
00:03.3,-0.000165939,-0.000177383,0.013904572,0,
00:03.3,-0.000171661,-0.000183105,0.013904572,0,
00:03.3,-0.000171661,-0.000188828,0.013904572,0,
00:03.3,-0.000177383,-0.000200272,0.013904572,0,
00:03.3,-0.000188828,-0.00022316,0.013904572,0,
00:03.3,-0.00022316,-0.00022316,0.013910294,0,
00:03.3,-0.000183105,-0.00019455,0.013910294,0,
00:03.3,-0.000154495,-0.000188828,0.013904572,0,
00:03.3,-0.000177383,-0.00019455,0.013904572,0,
00:03.3,-0.000171661,-0.000188828,0.013898849,0,
00:03.3,-0.000171661,-0.000188828,0.013898849,0,
00:03.3,-0.000188828,-0.000200272,0.013904572,0,
00:03.3,-0.000183105,-0.000200272,0.013904572,0,
00:03.4,-0.000188828,-0.000211716,0.013904572,0,
00:03.4,-0.000200272,-0.00019455,0.013910294,0,
00:03.4,-0.000177383,-0.000177383,0.013904572,0,
00:03.4,-0.000165939,-0.000183105,0.013893127,0,
00:03.4,-0.000171661,-0.000183105,0.013898849,0,
00:03.4,-0.000171661,-0.000183105,0.013898849,0,
00:03.4,-0.000177383,-0.000188828,0.013898849,0,
00:03.4,-0.000188828,-0.000205994,0.013898849,0,
00:03.4,-0.000183105,-0.000205994,0.013898849,0,
00:03.4,-0.000188828,-0.00019455,0.013898849,0,
00:03.4,-0.000188828,-0.000188828,0.013898849,0,
00:03.4,-0.000177383,-0.000171661,0.013898849,0,
00:03.4,-0.000183105,-0.000171661,0.013898849,0,
00:03.4,-0.000171661,-0.000171661,0.013898849,0,
00:03.4,-0.000171661,-0.000171661,0.013898849,0,
00:03.4,-0.000183105,-0.000177383,0.013898849,0,
00:03.4,-0.00019455,-0.000183105,0.013904572,0,
00:03.4,-0.000183105,-0.000183105,0.013898849,0,
00:03.4,-0.000177383,-0.00019455,0.013898849,0,
00:03.4,-0.000177383,-0.00019455,0.013898849,0,
00:03.4,-0.000183105,-0.000188828,0.013898849,0,
00:03.4,-0.000183105,-0.000171661,0.013893127,0,
00:03.4,-0.000183105,-0.000165939,0.013893127,0,
00:03.4,-0.000188828,-0.000171661,0.013898849,0,
00:03.4,-0.000188828,-0.000171661,0.013898849,0,
00:03.5,-0.000177383,-0.000183105,0.013898849,0,
00:03.5,-0.000177383,-0.00019455,0.013893127,0,
00:03.5,-0.000183105,-0.000188828,0.013893127,0,
00:03.5,-0.000177383,-0.000165939,0.013898849,0,
00:03.5,-0.000183105,-0.000177383,0.013898849,0,
00:03.5,-0.000188828,-0.000177383,0.013898849,0,
00:03.5,-0.000177383,-0.000154495,0.013898849,0,
00:03.5,-0.000171661,-0.000160217,0.013898849,0,
00:03.5,-0.000177383,-0.000171661,0.013893127,0,
00:03.5,-0.000188828,-0.000183105,0.013898849,0,
00:03.5,-0.000188828,-0.000183105,0.013893127,0,
00:03.5,-0.000177383,-0.000165939,0.013893127,0,
00:03.5,-0.000183105,-0.000154495,0.013893127,0,
00:03.5,-0.000188828,-0.000171661,0.013893127,0,
00:03.5,-0.00019455,-0.000165939,0.013898849,0,
00:03.5,-0.000171661,-0.000154495,0.013893127,0,
00:03.5,-0.000177383,-0.000160217,0.013893127,0,
00:03.5,-0.000183105,-0.000160217,0.013887405,0,
00:03.5,-0.000188828,-0.000171661,0.013893127,0,
00:03.5,-0.000188828,-0.000171661,0.013893127,0,
00:03.5,-0.000188828,-0.000165939,0.013898849,0,
00:03.5,-0.00019455,-0.000165939,0.013893127,0,
00:03.5,-0.000183105,-0.000160217,0.013887405,0,
00:03.5,-0.000183105,-0.000160217,0.013898849,0,
00:03.5,-0.000183105,-0.000165939,0.013898849,0,
00:03.6,-0.000200272,-0.000183105,0.013893127,0,
00:03.6,-0.000205994,-0.000177383,0.013887405,0,
00:03.6,-0.000171661,-0.000148773,0.013887405,0,
00:03.6,-0.000177383,-0.000125885,0.013887405,0,
00:03.6,-0.000188828,-0.000143051,0.013893127,0,
00:03.6,-0.000183105,-0.000154495,0.013893127,0,
00:03.6,-0.000188828,-0.000148773,0.013893127,0,
00:03.6,-0.000183105,-0.000148773,0.013893127,0,
00:03.6,-0.000183105,-0.000154495,0.013898849,0,
00:03.6,-0.000183105,-0.000148773,0.013893127,0,
00:03.6,-0.000188828,-0.000160217,0.013893127,0,
00:03.6,-0.00019455,-0.000171661,0.013893127,0,
00:03.6,-0.000200272,-0.000165939,0.013887405,0,
00:03.6,-0.000200272,-0.000154495,0.013893127,0,
00:03.6,-0.000200272,-0.000143051,0.013893127,0,
00:03.6,-0.000177383,-0.000148773,0.013898849,0,
00:03.6,-0.000183105,-0.000154495,0.013887405,0,
00:03.6,-0.000188828,-0.000154495,0.013887405,0,
00:03.6,-0.000188828,-0.000160217,0.013893127,0,
00:03.6,-0.000188828,-0.000137329,0.013893127,0,
00:03.6,-0.000177383,-0.000125885,0.013893127,0,
00:03.6,-0.000200272,-0.000137329,0.013893127,0,
00:03.6,-0.00019455,-0.000143051,0.013893127,0,
00:03.6,-0.000183105,-0.000148773,0.013887405,0,
00:03.6,-0.000188828,-0.000143051,0.013893127,0,
00:03.7,-0.000188828,-0.000148773,0.013887405,0,
00:03.7,-0.000188828,-0.000148773,0.013887405,0,
00:03.7,-0.000200272,-0.000148773,0.013887405,0,
00:03.7,-0.000188828,-0.000143051,0.013893127,0,
00:03.7,-0.000188828,-0.000148773,0.013887405,0,
00:03.7,-0.000188828,-0.000143051,0.013887405,0,
00:03.7,-0.000183105,-0.000131607,0.013887405,0,
00:03.7,-0.000188828,-0.000131607,0.013887405,0,
00:03.7,-0.000200272,-0.000143051,0.013887405,0,
00:03.7,-0.000188828,-0.000143051,0.013893127,0,
00:03.7,-0.00019455,-0.000143051,0.013887405,0,
00:03.7,-0.000188828,-0.000137329,0.013887405,0,
00:03.7,-0.000188828,-0.000131607,0.013887405,0,
00:03.7,-0.00019455,-0.000137329,0.013893127,0,
00:03.7,-0.00019455,-0.000137329,0.013893127,0,
00:03.7,-0.00019455,-0.000131607,0.013893127,0,
00:03.7,-0.000200272,-0.000137329,0.013887405,0,
00:03.7,-0.00019455,-0.000143051,0.013887405,0,
00:03.7,-0.00019455,-0.000131607,0.013887405,0,
00:03.7,-0.00019455,-0.000125885,0.013887405,0,
00:03.7,-0.000205994,-0.000143051,0.013887405,0,
00:03.7,-0.000217438,-0.000143051,0.013887405,0,
00:03.7,-0.000177383,-0.000125885,0.013887405,0,
00:03.7,-0.00019455,-0.000137329,0.013887405,0,
00:03.7,-0.000217438,-0.000137329,0.013887405,0,
00:03.8,-0.000183105,-0.000120163,0.013887405,0,
00:03.8,-0.000211716,-0.000125885,0.013887405,0,
00:03.8,-0.000200272,-0.000131607,0.013881683,0,
00:03.8,-0.000183105,-0.000120163,0.013887405,0,
00:03.8,-0.000188828,-0.000125885,0.013887405,0,
00:03.8,-0.00019455,-0.000137329,0.013887405,0,
00:03.8,-0.000200272,-0.000137329,0.013887405,0,
00:03.8,-0.000200272,-0.000131607,0.013881683,0,
00:03.8,-0.000205994,-0.000137329,0.013887405,0,
00:03.8,-0.000200272,-0.000125885,0.013887405,0,
00:03.8,-0.000188828,-0.000102997,0.013887405,0,
00:03.8,-0.000188828,-0.000108719,0.013887405,0,
00:03.8,-0.00019455,-0.000114441,0.013887405,0,
00:03.8,-0.000200272,-0.000125885,0.013893127,0,
00:03.8,-0.000200272,-0.000131607,0.013893127,0,
00:03.8,-0.000200272,-0.000120163,0.013887405,0,
00:03.8,-0.000200272,-0.000120163,0.013887405,0,
00:03.8,-0.000200272,-0.000120163,0.013887405,0,
00:03.8,-0.000205994,-0.000125885,0.013887405,0,
00:03.8,-0.000200272,-0.000131607,0.013887405,0,
00:03.8,-0.000200272,-0.000125885,0.013887405,0,
00:03.8,-0.000200272,-0.000120163,0.013887405,0,
00:03.8,-0.000200272,-0.000114441,0.013887405,0,
00:03.8,-0.00019455,-0.000108719,0.013887405,0,
00:03.8,-0.000200272,-0.000114441,0.013887405,0,
00:03.9,-0.000205994,-0.000131607,0.013887405,0,
00:03.9,-0.000205994,-0.000137329,0.013887405,0,
00:03.9,-0.000205994,-0.000143051,0.013887405,0,
00:03.9,-0.000205994,-0.000143051,0.013887405,0,
00:03.9,-0.000200272,-0.000120163,0.013887405,0,
00:03.9,-0.000205994,-0.000108719,0.013887405,0,
00:03.9,-0.000200272,-0.000114441,0.013881683,0,
00:03.9,-0.000200272,-0.000114441,0.013881683,0,
00:03.9,-0.000200272,-0.000102997,0.013881683,0,
00:03.9,-0.000200272,-0.000108719,0.013887405,0,
00:03.9,-0.00019455,-0.000108719,0.013887405,0,
00:03.9,-0.00019455,-0.000120163,0.013887405,0,
00:03.9,-0.000200272,-0.000120163,0.013875961,0,
00:03.9,-0.000205994,-0.000114441,0.013881683,0,
00:03.9,-0.000205994,-0.000102997,0.013893127,0,
00:03.9,-0.000217438,-0.000102997,0.013881683,0,
00:03.9,-0.000217438,-0.000114441,0.013870239,0,
00:03.9,-0.000200272,-0.000114441,0.013875961,0,
00:03.9,-0.000200272,-0.000114441,0.013881683,0,
00:03.9,-0.000188828,-0.000102997,0.013887405,0,
00:03.9,-0.00019455,-0.000102997,0.013875961,0,
00:03.9,-0.000200272,-0.000102997,0.013881683,0,
00:03.9,-0.000211716,-0.000108719,0.013881683,0,
00:03.9,-0.000200272,-0.000102997,0.013881683,0,
00:03.9,-0.000211716,-0.000120163,0.013887405,0,
00:04.0,-0.000217438,-0.000137329,0.013881683,0,
00:04.0,-0.000205994,-0.000114441,0.013881683,0,
00:04.0,-0.000200272,-8.58E-05,0.013881683,0,
00:04.0,-0.000200272,-8.58E-05,0.013881683,0,
00:04.0,-0.000205994,-9.73E-05,0.013881683,0,
00:04.0,-0.000205994,-0.000102997,0.013881683,0,
00:04.0,-0.000211716,-0.000114441,0.013875961,0,
00:04.0,-0.000217438,-0.000102997,0.013881683,0,
00:04.0,-0.000211716,-8.58E-05,0.013881683,0,
00:04.0,-0.000205994,-8.58E-05,0.013881683,0,
00:04.0,-0.000211716,-9.73E-05,0.013881683,0,
00:04.0,-0.000205994,-0.000114441,0.013875961,0,
00:00:04,-0.000211716,-0.000114441,0.013881683,0,
00:04.0,-0.000217438,-9.73E-05,0.013887405,0,
00:04.0,-0.000217438,-8.58E-05,0.013875961,0,
00:04.0,-0.00019455,-9.16E-05,0.013870239,0,
00:04.0,-0.00022316,-9.73E-05,0.013875961,0,
00:04.0,-0.000217438,-0.000102997,0.013875961,0,
00:04.0,-0.000200272,-0.000102997,0.013881683,0,
00:04.0,-0.000205994,-9.73E-05,0.013887405,0,
00:04.0,-0.000200272,-8.58E-05,0.013875961,0,
00:04.0,-0.000211716,-8.58E-05,0.013875961,0,
00:04.0,-0.000211716,-9.16E-05,0.013875961,0,
00:04.0,-0.000200272,-0.000102997,0.013875961,0,
00:04.0,-0.000211716,-0.000108719,0.013875961,0,
00:04.1,-0.000211716,-0.000102997,0.013875961,0,
00:04.1,-0.000200272,-7.44E-05,0.013875961,0,
00:04.1,-0.000205994,-8.01E-05,0.013875961,0,
00:04.1,-0.000211716,-8.01E-05,0.013881683,0,
00:04.1,-0.000211716,-8.01E-05,0.013881683,0,
00:04.1,-0.000211716,-9.16E-05,0.013875961,0,
00:04.1,-0.000211716,-9.16E-05,0.013870239,0,
00:04.1,-0.000211716,-9.16E-05,0.013875961,0,
00:04.1,-0.000211716,-8.58E-05,0.013875961,0,
00:04.1,-0.000211716,-7.44E-05,0.013881683,0,
00:04.1,-0.000217438,-9.16E-05,0.013875961,0,
00:04.1,-0.000211716,-9.73E-05,0.013875961,0,
00:04.1,-0.000205994,-8.58E-05,0.013875961,0,
00:04.1,-0.000217438,-8.01E-05,0.013881683,0,
00:04.1,-0.000217438,-7.44E-05,0.013881683,0,
00:04.1,-0.000205994,-7.44E-05,0.013875961,0,
00:04.1,-0.000211716,-9.16E-05,0.013870239,0,
00:04.1,-0.000228882,-0.000108719,0.013875961,0,
00:04.1,-0.000217438,-0.000102997,0.013881683,0,
00:04.1,-0.000217438,-9.16E-05,0.013875961,0,
00:04.1,-0.000211716,-6.29E-05,0.013870239,0,
00:04.1,-0.000205994,-4.58E-05,0.013870239,0,
00:04.1,-0.000217438,-6.29E-05,0.013875961,0,
00:04.1,-0.000217438,-6.87E-05,0.013875961,0,
00:04.1,-0.000205994,-8.01E-05,0.013870239,0,
00:04.2,-0.000211716,-9.73E-05,0.013870239,0,
00:04.2,-0.00022316,-0.000102997,0.013870239,0,
00:04.2,-0.000217438,-6.87E-05,0.013870239,0,
00:04.2,-0.000200272,-4.01E-05,0.013870239,0,
00:04.2,-0.000205994,-6.29E-05,0.013870239,0,
00:04.2,-0.000217438,-6.87E-05,0.013870239,0,
00:04.2,-0.00022316,-6.87E-05,0.013870239,0,
00:04.2,-0.000211716,-6.29E-05,0.013870239,0,
00:04.2,-0.000211716,-7.44E-05,0.013870239,0,
00:04.2,-0.00022316,-9.73E-05,0.013875961,0,
00:04.2,-0.00022316,-8.58E-05,0.013870239,0,
00:04.2,-0.000205994,-4.58E-05,0.013870239,0,
00:04.2,-0.000211716,-4.58E-05,0.013870239,0,
00:04.2,-0.000211716,-5.15E-05,0.013870239,0,
00:04.2,-0.000211716,-6.29E-05,0.013870239,0,
00:04.2,-0.00022316,-8.58E-05,0.013870239,0,
00:04.2,-0.000240326,-9.73E-05,0.013870239,0,
00:04.2,-0.000246048,-6.29E-05,0.013870239,0,
00:04.2,-0.000188828,-2.86E-05,0.013870239,0,
00:04.2,-0.000211716,-4.01E-05,0.013881683,0,
00:04.2,-0.000211716,-5.72E-05,0.013870239,0,
00:04.2,-0.000211716,-7.44E-05,0.013864517,0,
00:04.2,-0.000234604,-8.01E-05,0.013864517,0,
00:04.2,-0.000217438,-7.44E-05,0.013864517,0,
00:04.2,-0.000217438,-6.29E-05,0.013870239,0,
00:04.3,-0.000205994,-4.01E-05,0.013870239,0,
00:04.3,-0.000211716,-3.43E-05,0.013870239,0,
00:04.3,-0.00022316,-4.58E-05,0.013864517,0,
00:04.3,-0.000211716,-6.29E-05,0.013864517,0,
00:04.3,-0.00022316,-6.87E-05,0.013864517,0,
00:04.3,-0.00022316,-6.29E-05,0.013864517,0,
00:04.3,-0.000217438,-5.15E-05,0.013864517,0,
00:04.3,-0.000217438,-5.15E-05,0.013864517,0,
00:04.3,-0.000217438,-6.29E-05,0.013870239,0,
00:04.3,-0.00022316,-6.87E-05,0.013870239,0,
00:04.3,-0.00022316,-5.72E-05,0.013864517,0,
00:04.3,-0.000217438,-5.72E-05,0.013864517,0,
00:04.3,-0.00022316,-5.72E-05,0.013864517,0,
00:04.3,-0.000217438,-3.43E-05,0.013870239,0,
00:04.3,-0.000217438,-4.01E-05,0.013870239,0,
00:04.3,-0.00022316,-4.58E-05,0.013864517,0,
00:04.3,-0.000234604,-6.29E-05,0.013864517,0,
00:04.3,-0.000240326,-7.44E-05,0.013864517,0,
00:04.3,-0.000228882,-5.15E-05,0.013870239,0,
00:04.3,-0.000217438,-2.86E-05,0.013870239,0,
00:04.3,-0.000228882,-3.43E-05,0.013864517,0,
00:04.3,-0.000234604,-4.58E-05,0.013858795,0,
00:04.3,-0.000217438,-5.72E-05,0.013858795,0,
00:04.3,-0.000228882,-6.29E-05,0.013864517,0,
00:04.3,-0.000240326,-5.15E-05,0.013864517,0,
00:04.4,-0.000211716,-2.86E-05,0.013858795,0,
00:04.4,-0.000211716,-2.86E-05,0.013858795,0,
00:04.4,-0.00022316,-3.43E-05,0.013858795,0,
00:04.4,-0.000228882,-4.58E-05,0.013864517,0,
00:04.4,-0.000234604,-6.87E-05,0.013864517,0,
00:04.4,-0.000234604,-6.29E-05,0.013858795,0,
00:04.4,-0.000228882,-4.01E-05,0.013858795,0,
00:04.4,-0.000228882,-4.01E-05,0.013858795,0,
00:04.4,-0.000228882,-5.15E-05,0.013858795,0,
00:04.4,-0.000234604,-5.15E-05,0.013864517,0,
00:04.4,-0.000228882,-4.58E-05,0.013858795,0,
00:04.4,-0.000228882,-2.86E-05,0.013858795,0,
00:04.4,-0.000228882,-2.86E-05,0.013858795,0,
00:04.4,-0.000234604,-4.01E-05,0.013858795,0,
00:04.4,-0.000240326,-5.15E-05,0.013858795,0,
00:04.4,-0.000234604,-5.15E-05,0.013858795,0,
00:04.4,-0.000234604,-4.58E-05,0.013853073,0,
00:04.4,-0.000228882,-4.58E-05,0.013853073,0,
00:04.4,-0.000228882,-2.86E-05,0.013853073,0,
00:04.4,-0.00022316,-2.29E-05,0.013864517,0,
00:04.4,-0.000228882,-4.01E-05,0.013858795,0,
00:04.4,-0.000228882,-4.01E-05,0.013847351,0,
00:04.4,-0.000228882,-2.86E-05,0.013847351,0,
00:04.4,-0.000228882,-1.72E-05,0.013853073,0,
00:04.4,-0.000228882,-3.43E-05,0.013847351,0,
00:04.5,-0.000228882,-4.58E-05,0.013858795,0,
00:04.5,-0.000234604,-2.86E-05,0.013864517,0,
00:04.5,-0.000228882,-2.29E-05,0.013858795,0,
00:04.5,-0.000234604,-3.43E-05,0.013858795,0,
00:04.5,-0.000240326,-4.58E-05,0.013858795,0,
00:04.5,-0.000246048,-4.58E-05,0.013864517,0,
00:04.5,-0.000257492,-2.29E-05,0.013864517,0,
00:04.5,-0.000246048,-2.29E-05,0.013853073,0,
00:04.5,-0.000211716,-2.29E-05,0.013853073,0,
00:04.5,-0.000217438,-2.29E-05,0.013858795,0,
00:04.5,-0.000240326,-4.01E-05,0.013853073,0,
00:04.5,-0.000234604,-4.58E-05,0.013853073,0,
00:04.5,-0.00022316,-3.43E-05,0.013853073,0,
00:04.5,-0.000228882,-2.29E-05,0.013853073,0,
00:04.5,-0.000228882,-2.29E-05,0.013853073,0,
00:04.5,-0.000228882,-2.29E-05,0.013853073,0,
00:04.5,-0.000228882,-2.86E-05,0.013853073,0,
00:04.5,-0.000228882,-2.29E-05,0.013853073,0,
00:04.5,-0.000228882,-1.72E-05,0.013858795,0,
00:04.5,-0.000240326,-2.86E-05,0.013853073,0,
00:04.5,-0.000246048,-2.29E-05,0.013853073,0,
00:04.5,-0.000228882,-1.14E-05,0.013853073,0,
00:04.5,-0.000228882,-1.72E-05,0.013853073,0,
00:04.5,-0.000234604,-2.86E-05,0.013853073,0,
00:04.5,-0.000234604,-2.86E-05,0.013853073,0,
00:04.6,-0.000234604,-2.86E-05,0.013853073,0,
00:04.6,-0.000246048,-2.86E-05,0.013853073,0,
00:04.6,-0.000234604,-1.72E-05,0.013858795,0,
00:04.6,-0.000234604,-1.14E-05,0.013853073,0,
00:04.6,-0.000228882,-1.14E-05,0.013858795,0,
00:04.6,-0.000228882,-1.72E-05,0.013853073,0,
00:04.6,-0.000234604,-2.86E-05,0.013847351,0,
00:04.6,-0.000246048,-2.86E-05,0.013853073,0,
00:04.6,-0.000257492,-1.14E-05,0.013858795,0,
00:04.6,-0.00022316,0,0.013864517,0,
00:04.6,-0.000234604,-1.14E-05,0.013853073,0,
00:04.6,-0.000240326,-1.14E-05,0.013847351,0,
00:04.6,-0.000240326,-2.29E-05,0.013847351,0,
00:04.6,-0.000234604,-3.43E-05,0.013853073,0,
00:04.6,-0.000240326,-1.72E-05,0.013853073,0,
00:04.6,-0.000240326,-5.72E-06,0.013853073,0,
00:04.6,-0.000228882,-5.72E-06,0.013847351,0,
00:04.6,-0.000234604,-5.72E-06,0.013847351,0,
00:04.6,-0.000234604,-1.14E-05,0.013853073,0,
00:04.6,-0.000234604,-1.72E-05,0.013853073,0,
00:04.6,-0.000240326,-1.72E-05,0.013853073,0,
00:04.6,-0.000234604,-1.72E-05,0.013853073,0,
00:04.6,-0.000228882,-1.14E-05,0.013853073,0,
00:04.6,-0.000234604,-5.72E-06,0.013853073,0,
00:04.6,-0.000234604,-1.14E-05,0.013858795,0,
00:04.7,-0.000246048,-2.29E-05,0.013853073,0,
00:04.7,-0.000240326,-2.86E-05,0.013853073,0,
00:04.7,-0.000240326,-2.29E-05,0.013853073,0,
00:04.7,-0.000228882,5.72E-06,0.013853073,0,
00:04.7,-0.000234604,0,0.013853073,0,
00:04.7,-0.000234604,-1.72E-05,0.013853073,0,
00:04.7,-0.000240326,-2.29E-05,0.013847351,0,
00:04.7,-0.000240326,-1.72E-05,0.013853073,0,
00:04.7,-0.000228882,5.72E-06,0.013853073,0,
00:04.7,-0.000228882,1.14E-05,0.013853073,0,
00:04.7,-0.000234604,-5.72E-06,0.013853073,0,
00:04.7,-0.000234604,5.72E-06,0.013853073,0,
00:04.7,-0.000240326,5.72E-06,0.013853073,0,
00:04.7,-0.00025177,-5.72E-06,0.013858795,0,
00:04.7,-0.00022316,5.72E-06,0.013841629,0,
00:04.7,-0.000234604,0,0.013841629,0,
00:04.7,-0.000240326,-1.14E-05,0.013841629,0,
00:04.7,-0.00025177,-2.29E-05,0.013847351,0,
00:04.7,-0.000246048,-1.72E-05,0.013847351,0,
00:04.7,-0.00022316,1.72E-05,0.013847351,0,
00:04.7,-0.000228882,1.72E-05,0.013847351,0,
00:04.7,-0.000234604,5.72E-06,0.013847351,0,
00:04.7,-0.000246048,-1.14E-05,0.013847351,0,
00:04.7,-0.000240326,-1.72E-05,0.013853073,0,
00:04.7,-0.000234604,5.72E-06,0.013853073,0,
00:04.8,-0.000240326,5.72E-06,0.013847351,0,
00:04.8,-0.000240326,1.14E-05,0.013853073,0,
00:04.8,-0.000240326,5.72E-06,0.013853073,0,
00:04.8,-0.00025177,-1.14E-05,0.013847351,0,
00:04.8,-0.000240326,-5.72E-06,0.013847351,0,
00:04.8,-0.000228882,1.72E-05,0.013847351,0,
00:04.8,-0.000240326,1.14E-05,0.013847351,0,
00:04.8,-0.000246048,0,0.013847351,0,
00:04.8,-0.000228882,0,0.013847351,0,
00:04.8,-0.000234604,1.14E-05,0.013847351,0,
00:04.8,-0.000234604,1.72E-05,0.013841629,0,
00:04.8,-0.000246048,1.14E-05,0.013847351,0,
00:04.8,-0.000268936,0,0.013853073,0,
00:04.8,-0.000228882,-5.72E-06,0.013853073,0,
00:04.8,-0.000240326,-5.72E-06,0.013841629,0,
00:04.8,-0.000246048,1.14E-05,0.013841629,0,
00:04.8,-0.000246048,1.14E-05,0.013841629,0,
00:04.8,-0.000240326,1.14E-05,0.013847351,0,
00:04.8,-0.00025177,1.14E-05,0.013847351,0,
00:04.8,-0.000246048,5.72E-06,0.013841629,0,
00:04.8,-0.00025177,-5.72E-06,0.013847351,0,
00:04.8,-0.000246048,1.14E-05,0.013841629,0,
00:04.8,-0.000240326,4.01E-05,0.013847351,0,
00:04.8,-0.000246048,2.86E-05,0.013847351,0,
00:04.8,-0.000240326,1.14E-05,0.013847351,0,
00:04.9,-0.000240326,1.14E-05,0.013841629,0,
00:04.9,-0.000240326,2.29E-05,0.013841629,0,
00:04.9,-0.000246048,1.72E-05,0.013841629,0,
00:04.9,-0.000263214,0,0.013847351,0,
00:04.9,-0.000257492,5.72E-06,0.013847351,0,
00:04.9,-0.000246048,3.43E-05,0.013841629,0,
00:04.9,-0.000246048,2.86E-05,0.013841629,0,
00:04.9,-0.000234604,2.29E-05,0.013841629,0,
00:04.9,-0.000246048,2.29E-05,0.013847351,0,
00:04.9,-0.000263214,1.72E-05,0.013847351,0,
00:04.9,-0.000234604,2.86E-05,0.013841629,0,
00:04.9,-0.000234604,2.86E-05,0.013841629,0,
00:04.9,-0.000246048,1.72E-05,0.013841629,0,
00:04.9,-0.00025177,1.72E-05,0.013841629,0,
00:04.9,-0.000257492,1.14E-05,0.013847351,0,
00:04.9,-0.00025177,5.72E-06,0.013841629,0,
00:04.9,-0.000257492,5.72E-06,0.013835907,0,
00:04.9,-0.000246048,1.72E-05,0.013841629,0,
00:04.9,-0.000234604,4.58E-05,0.013835907,0,
00:04.9,-0.000240326,4.01E-05,0.013841629,0,
00:04.9,-0.00025177,2.29E-05,0.013835907,0,
00:04.9,-0.000246048,2.86E-05,0.013835907,0,
00:04.9,-0.00025177,2.86E-05,0.013835907,0,
00:04.9,-0.00025177,2.29E-05,0.013841629,0,
00:04.9,-0.00025177,2.29E-05,0.013841629,0,
00:05.0,-0.000257492,5.72E-06,0.013835907,0,
00:05.0,-0.000246048,2.29E-05,0.013835907,0,
00:05.0,-0.000234604,5.15E-05,0.013841629,0,
00:05.0,-0.000240326,4.58E-05,0.013841629,0,
00:05.0,-0.00025177,4.01E-05,0.013835907,0,
00:05.0,-0.000257492,1.14E-05,0.013830185,0,
00:05.0,-0.000268936,-1.14E-05,0.013835907,0,
00:05.0,-0.00025177,3.43E-05,0.013835907,0,
00:05.0,-0.000240326,5.72E-05,0.013841629,0,
00:05.0,-0.000246048,4.58E-05,0.013841629,0,
00:05.0,-0.000246048,4.58E-05,0.013830185,0,
00:05.0,-0.00025177,4.01E-05,0.013830185,0,
00:00:05,-0.00025177,2.29E-05,0.013835907,0,
00:05.0,-0.000263214,0,0.013835907,0,
00:05.0,-0.000263214,1.14E-05,0.013835907,0,
00:05.0,-0.000246048,4.58E-05,0.013835907,0,
00:05.0,-0.000234604,5.72E-05,0.013835907,0,
00:05.0,-0.000240326,5.72E-05,0.013830185,0,
00:05.0,-0.000246048,4.58E-05,0.013835907,0,
00:05.0,-0.000246048,4.58E-05,0.013835907,0,
00:05.0,-0.000246048,4.58E-05,0.013835907,0,
00:05.0,-0.00025177,3.43E-05,0.013835907,0,
00:05.0,-0.000257492,2.86E-05,0.013830185,0,
00:05.0,-0.00025177,4.58E-05,0.013835907,0,
00:05.0,-0.00025177,4.01E-05,0.013835907,0,
00:05.1,-0.000257492,2.86E-05,0.013830185,0,
00:05.1,-0.000257492,2.86E-05,0.013830185,0,
00:05.1,-0.000257492,5.15E-05,0.013835907,0,
00:05.1,-0.000257492,5.72E-05,0.013835907,0,
00:05.1,-0.000257492,4.58E-05,0.013835907,0,
00:05.1,-0.000257492,4.01E-05,0.013830185,0,
00:05.1,-0.000246048,6.29E-05,0.013835907,0,
00:05.1,-0.000246048,5.15E-05,0.013835907,0,
00:05.1,-0.000263214,4.01E-05,0.013830185,0,
00:05.1,-0.000263214,3.43E-05,0.013835907,0,
00:05.1,-0.00025177,4.01E-05,0.013830185,0,
00:05.1,-0.000240326,5.15E-05,0.013830185,0,
00:05.1,-0.000246048,5.15E-05,0.013835907,0,
00:05.1,-0.000246048,4.58E-05,0.013841629,0,
00:05.1,-0.00025177,4.58E-05,0.013835907,0,
00:05.1,-0.000257492,4.58E-05,0.013830185,0,
00:05.1,-0.000257492,5.15E-05,0.013835907,0,
00:05.1,-0.000246048,5.72E-05,0.013835907,0,
00:05.1,-0.00025177,5.72E-05,0.013835907,0,
00:05.1,-0.00025177,5.72E-05,0.013830185,0,
00:05.1,-0.00025177,5.15E-05,0.013830185,0,
00:05.1,-0.00025177,4.58E-05,0.013830185,0,
00:05.1,-0.000263214,4.01E-05,0.013830185,0,
00:05.1,-0.000263214,4.01E-05,0.013835907,0,
00:05.1,-0.000257492,5.72E-05,0.013841629,0,
00:05.2,-0.00025177,6.87E-05,0.013830185,0,
00:05.2,-0.00025177,6.87E-05,0.013830185,0,
00:05.2,-0.000257492,5.72E-05,0.013830185,0,
00:05.2,-0.00025177,5.72E-05,0.013830185,0,
00:05.2,-0.000257492,5.15E-05,0.013830185,0,
00:05.2,-0.000274658,2.86E-05,0.013830185,0,
00:05.2,-0.000263214,4.01E-05,0.013830185,0,
00:05.2,-0.00025177,7.44E-05,0.013830185,0,
00:05.2,-0.000263214,8.01E-05,0.013830185,0,
00:05.2,-0.000246048,6.87E-05,0.013830185,0,
00:05.2,-0.000268936,5.15E-05,0.013830185,0,
00:05.2,-0.00025177,4.01E-05,0.013830185,0,
00:05.2,-0.000257492,4.01E-05,0.013830185,0,
00:05.2,-0.00025177,6.29E-05,0.013830185,0,
00:05.2,-0.00025177,6.29E-05,0.013830185,0,
00:05.2,-0.00025177,6.87E-05,0.013830185,0,
00:05.2,-0.000257492,7.44E-05,0.013824463,0,
00:05.2,-0.000246048,6.29E-05,0.013830185,0,
00:05.2,-0.000257492,5.15E-05,0.013830185,0,
00:05.2,-0.000263214,5.72E-05,0.013830185,0,
00:05.2,-0.000257492,6.29E-05,0.013830185,0,
00:05.2,-0.000257492,5.72E-05,0.013830185,0,
00:05.2,-0.000263214,6.29E-05,0.013824463,0,
00:05.2,-0.000257492,7.44E-05,0.013830185,0,
00:05.2,-0.000257492,7.44E-05,0.013830185,0,
00:05.3,-0.000257492,7.44E-05,0.013830185,0,
00:05.3,-0.000257492,7.44E-05,0.013824463,0,
00:05.3,-0.000263214,6.29E-05,0.013830185,0,
00:05.3,-0.000268936,4.58E-05,0.013830185,0,
00:05.3,-0.000268936,5.72E-05,0.013830185,0,
00:05.3,-0.00025177,8.58E-05,0.013824463,0,
00:05.3,-0.00025177,8.58E-05,0.013824463,0,
00:05.3,-0.00025177,7.44E-05,0.013835907,0,
00:05.3,-0.000268936,5.72E-05,0.013824463,0,
00:05.3,-0.000263214,5.15E-05,0.013824463,0,
00:05.3,-0.000257492,6.87E-05,0.013824463,0,
00:05.3,-0.000263214,6.87E-05,0.013824463,0,
00:05.3,-0.000257492,8.01E-05,0.013824463,0,
00:05.3,-0.000257492,8.58E-05,0.013824463,0,
00:05.3,-0.000263214,6.87E-05,0.013824463,0,
00:05.3,-0.000274658,4.58E-05,0.013824463,0,
00:05.3,-0.000274658,4.58E-05,0.013830185,0,
00:05.3,-0.000268936,7.44E-05,0.013824463,0,
00:05.3,-0.00025177,9.16E-05,0.013824463,0,
00:05.3,-0.000246048,8.58E-05,0.013830185,0,
00:05.3,-0.000268936,6.29E-05,0.013824463,0,
00:05.3,-0.000268936,5.72E-05,0.013824463,0,
00:05.3,-0.000268936,8.01E-05,0.013824463,0,
00:05.3,-0.000263214,8.01E-05,0.013830185,0,
00:05.3,-0.000246048,8.58E-05,0.013824463,0,
00:05.4,-0.000246048,8.58E-05,0.013818741,0,
00:05.4,-0.000257492,8.58E-05,0.013824463,0,
00:05.4,-0.000263214,8.01E-05,0.013830185,0,
00:05.4,-0.000257492,7.44E-05,0.013824463,0,
00:05.4,-0.000263214,7.44E-05,0.013824463,0,
00:05.4,-0.000263214,8.01E-05,0.013818741,0,
00:05.4,-0.000257492,8.58E-05,0.013818741,0,
00:05.4,-0.000263214,8.01E-05,0.013824463,0,
00:05.4,-0.000268936,7.44E-05,0.013824463,0,
00:05.4,-0.000268936,6.87E-05,0.013824463,0,
00:05.4,-0.000268936,6.87E-05,0.013818741,0,
00:05.4,-0.000263214,8.58E-05,0.013818741,0,
00:05.4,-0.000263214,8.01E-05,0.013818741,0,
00:05.4,-0.000257492,8.01E-05,0.013824463,0,
00:05.4,-0.000263214,7.44E-05,0.013818741,0,
00:05.4,-0.000268936,8.58E-05,0.013818741,0,
00:05.4,-0.000263214,8.58E-05,0.013818741,0,
00:05.4,-0.000263214,8.58E-05,0.013824463,0,
00:05.4,-0.000274658,8.01E-05,0.013830185,0,
00:05.4,-0.000274658,8.58E-05,0.013818741,0,
00:05.4,-0.000274658,9.16E-05,0.013818741,0,
00:05.4,-0.000263214,8.58E-05,0.013818741,0,
00:05.4,-0.000257492,8.01E-05,0.013818741,0,
00:05.4,-0.000263214,9.16E-05,0.013818741,0,
00:05.4,-0.000263214,9.73E-05,0.013824463,0,
00:05.5,-0.000274658,9.73E-05,0.013818741,0,
00:05.5,-0.000263214,9.73E-05,0.013818741,0,
00:05.5,-0.000263214,8.58E-05,0.013818741,0,
00:05.5,-0.000263214,8.58E-05,0.013818741,0,
00:05.5,-0.000274658,8.01E-05,0.013818741,0,
00:05.5,-0.000274658,5.72E-05,0.013818741,0,
00:05.5,-0.000268936,6.29E-05,0.013813019,0,
00:05.5,-0.000268936,0.000102997,0.013818741,0,
00:05.5,-0.000263214,0.000108719,0.013824463,0,
00:05.5,-0.000263214,0.000108719,0.013813019,0,
00:05.5,-0.000263214,0.000102997,0.013813019,0,
00:05.5,-0.000263214,9.73E-05,0.013813019,0,
00:05.5,-0.000268936,8.58E-05,0.013818741,0,
00:05.5,-0.000286102,5.15E-05,0.013824463,0,
00:05.5,-0.00028038,6.29E-05,0.013813019,0,
00:05.5,-0.000268936,0.000114441,0.013813019,0,
00:05.5,-0.00025177,0.000131607,0.013813019,0,
00:05.5,-0.000257492,0.000120163,0.013818741,0,
00:05.5,-0.000263214,0.000102997,0.013813019,0,
00:05.5,-0.000268936,0.000108719,0.013818741,0,
00:05.5,-0.000274658,0.000102997,0.013818741,0,
00:05.5,-0.000268936,8.58E-05,0.013818741,0,
00:05.5,-0.000291824,6.29E-05,0.013818741,0,
00:05.5,-0.000291824,8.58E-05,0.013818741,0,
00:05.5,-0.000268936,0.000125885,0.013813019,0,
00:05.6,-0.000263214,0.000120163,0.013813019,0,
00:05.6,-0.000263214,0.000120163,0.013813019,0,
00:05.6,-0.000263214,0.000108719,0.013813019,0,
00:05.6,-0.000263214,0.000108719,0.013813019,0,
00:05.6,-0.000268936,0.000102997,0.013813019,0,
00:05.6,-0.000268936,0.000102997,0.013813019,0,
00:05.6,-0.000274658,9.16E-05,0.013813019,0,
00:05.6,-0.000291824,5.72E-05,0.013813019,0,
00:05.6,-0.000314713,5.15E-05,0.013824463,0,
00:05.6,-0.000286102,0.000114441,0.013824463,0,
00:05.6,-0.000246048,0.000148773,0.013807297,0,
00:05.6,-0.000263214,0.000131607,0.013813019,0,
00:05.6,-0.000268936,0.000120163,0.013813019,0,
00:05.6,-0.000268936,0.000114441,0.013813019,0,
00:05.6,-0.000274658,0.000114441,0.013813019,0,
00:05.6,-0.000274658,0.000108719,0.013813019,0,
00:05.6,-0.00028038,9.73E-05,0.013813019,0,
00:05.6,-0.000291824,8.01E-05,0.013813019,0,
00:05.6,-0.000297546,6.29E-05,0.013813019,0,
00:05.6,-0.00028038,9.73E-05,0.013818741,0,
00:05.6,-0.000268936,0.000143051,0.013818741,0,
00:05.6,-0.00028038,0.000131607,0.013813019,0,
00:05.6,-0.000268936,0.000125885,0.013813019,0,
00:05.6,-0.000268936,0.000120163,0.013807297,0,
00:05.6,-0.000274658,0.000120163,0.013807297,0,
00:05.7,-0.000274658,0.000114441,0.013807297,0,
00:05.7,-0.00028038,9.73E-05,0.013807297,0,
00:05.7,-0.000286102,8.01E-05,0.013807297,0,
00:05.7,-0.00028038,0.000102997,0.013813019,0,
00:05.7,-0.00028038,0.000120163,0.013813019,0,
00:05.7,-0.000297546,0.000114441,0.013813019,0,
00:05.7,-0.000263214,0.000125885,0.013813019,0,
00:05.7,-0.000268936,0.000131607,0.013801575,0,
00:05.7,-0.00028038,0.000120163,0.013807297,0,
00:05.7,-0.000274658,0.000120163,0.013807297,0,
00:05.7,-0.00028038,0.000108719,0.013807297,0,
00:05.7,-0.000286102,0.000114441,0.013801575,0,
00:05.7,-0.00028038,0.000131607,0.013801575,0,
00:05.7,-0.000291824,0.000125885,0.013807297,0,
00:05.7,-0.00028038,0.000120163,0.013807297,0,
00:05.7,-0.00028038,0.000120163,0.013801575,0,
00:05.7,-0.000286102,0.000114441,0.013801575,0,
00:05.7,-0.000286102,0.000120163,0.013801575,0,
00:05.7,-0.000291824,0.000114441,0.013807297,0,
00:05.7,-0.000286102,0.000108719,0.013801575,0,
00:05.7,-0.000274658,0.000120163,0.013801575,0,
00:05.7,-0.000274658,0.000125885,0.013801575,0,
00:05.7,-0.00028038,0.000125885,0.013801575,0,
00:05.7,-0.000291824,0.000125885,0.013807297,0,
00:05.7,-0.00030899,0.000125885,0.013813019,0,
00:05.8,-0.000274658,0.000131607,0.013801575,0,
00:05.8,-0.00028038,0.000131607,0.013801575,0,
00:05.8,-0.000286102,0.000131607,0.013795853,0,
00:05.8,-0.000274658,0.000131607,0.013801575,0,
00:05.8,-0.000286102,0.000120163,0.013801575,0,
00:05.8,-0.000297546,0.000114441,0.013801575,0,
00:05.8,-0.000291824,0.000120163,0.013801575,0,
00:05.8,-0.000286102,0.000131607,0.013801575,0,
00:05.8,-0.000291824,0.000143051,0.013801575,0,
00:05.8,-0.000291824,0.000131607,0.013807297,0,
00:05.8,-0.00028038,0.000131607,0.013801575,0,
00:05.8,-0.000274658,0.000131607,0.013790131,0,
00:05.8,-0.000286102,0.000120163,0.013801575,0,
00:05.8,-0.000291824,0.000120163,0.013801575,0,
00:05.8,-0.000297546,0.000125885,0.013801575,0,
00:05.8,-0.000286102,0.000131607,0.013795853,0,
00:05.8,-0.000286102,0.000137329,0.013795853,0,
00:05.8,-0.000286102,0.000143051,0.013795853,0,
00:05.8,-0.00028038,0.000148773,0.013801575,0,
00:05.8,-0.00028038,0.000137329,0.013801575,0,
00:05.8,-0.00028038,0.000131607,0.013795853,0,
00:05.8,-0.000286102,0.000114441,0.013801575,0,
00:05.8,-0.000291824,0.000114441,0.013801575,0,
00:05.8,-0.000297546,0.000125885,0.013795853,0,
00:05.8,-0.00028038,0.000148773,0.013795853,0,
00:05.9,-0.000286102,0.000143051,0.013795853,0,
00:05.9,-0.000297546,0.000125885,0.013795853,0,
00:05.9,-0.000291824,0.000131607,0.013801575,0,
00:05.9,-0.000286102,0.000154495,0.013795853,0,
00:05.9,-0.000291824,0.000154495,0.013795853,0,
00:05.9,-0.000286102,0.000148773,0.013795853,0,
00:05.9,-0.00028038,0.000143051,0.013790131,0,
00:05.9,-0.000291824,0.000143051,0.013790131,0,
00:05.9,-0.000286102,0.000137329,0.013795853,0,
00:05.9,-0.00028038,0.000148773,0.013795853,0,
00:05.9,-0.000286102,0.000154495,0.013790131,0,
00:05.9,-0.000286102,0.000148773,0.013790131,0,
00:05.9,-0.00028038,0.000148773,0.013795853,0,
00:05.9,-0.000297546,0.000143051,0.013795853,0,
00:05.9,-0.000303268,0.000137329,0.013790131,0,
00:05.9,-0.000291824,0.000125885,0.013790131,0,
00:05.9,-0.000297546,0.000125885,0.013790131,0,
00:05.9,-0.000303268,0.000137329,0.013790131,0,
00:05.9,-0.00028038,0.000160217,0.013795853,0,
00:05.9,-0.000286102,0.000154495,0.013795853,0,
00:05.9,-0.000291824,0.000148773,0.013790131,0,
00:05.9,-0.000291824,0.000154495,0.013790131,0,
00:05.9,-0.000291824,0.000154495,0.013790131,0,
00:05.9,-0.000297546,0.000154495,0.013790131,0,
00:05.9,-0.000303268,0.000148773,0.013790131,0,
00:06.0,-0.000286102,0.000154495,0.013790131,0,
00:06.0,-0.000286102,0.000160217,0.013790131,0,
00:06.0,-0.000297546,0.000148773,0.013790131,0,
00:06.0,-0.000297546,0.000143051,0.013790131,0,
00:06.0,-0.000297546,0.000160217,0.013790131,0,
00:06.0,-0.000297546,0.000154495,0.013790131,0,
00:06.0,-0.000297546,0.000148773,0.013784409,0,
00:06.0,-0.00030899,0.000160217,0.013790131,0,
00:06.0,-0.000286102,0.000171661,0.013790131,0,
00:06.0,-0.000291824,0.000165939,0.013790131,0,
00:06.0,-0.000291824,0.000160217,0.013784409,0,
00:06.0,-0.000297546,0.000148773,0.013784409,0,
00:00:06,-0.000303268,0.000148773,0.013790131,0,
00:06.0,-0.000303268,0.000148773,0.013790131,0,
00:06.0,-0.000303268,0.000148773,0.013790131,0,
00:06.0,-0.000297546,0.000160217,0.013784409,0,
00:06.0,-0.000297546,0.000171661,0.013784409,0,
00:06.0,-0.000297546,0.000177383,0.013784409,0,
00:06.0,-0.000303268,0.000171661,0.013790131,0,
00:06.0,-0.000303268,0.000160217,0.013784409,0,
00:06.0,-0.00030899,0.000148773,0.013784409,0,
00:06.0,-0.000303268,0.000154495,0.013790131,0,
00:06.0,-0.000297546,0.000160217,0.013784409,0,
00:06.0,-0.000297546,0.000171661,0.013784409,0,
00:06.0,-0.000297546,0.000171661,0.013790131,0,
00:06.1,-0.000297546,0.000160217,0.013790131,0,
00:06.1,-0.000314713,0.000160217,0.013790131,0,
00:06.1,-0.000343323,0.000160217,0.013784409,0,
00:06.1,-0.000303268,0.000165939,0.013790131,0,
00:06.1,-0.000286102,0.000165939,0.013784409,0,
00:06.1,-0.000303268,0.000171661,0.013784409,0,
00:06.1,-0.00030899,0.000171661,0.013778687,0,
00:06.1,-0.000291824,0.000171661,0.013778687,0,
00:06.1,-0.000291824,0.000177383,0.013784409,0,
00:06.1,-0.000297546,0.000171661,0.013784409,0,
00:06.1,-0.000303268,0.000143051,0.013778687,0,
00:06.1,-0.00030899,0.000143051,0.013778687,0,
00:06.1,-0.000297546,0.000183105,0.013784409,0,
00:06.1,-0.000297546,0.000200272,0.013784409,0,
00:06.1,-0.000297546,0.000188828,0.013784409,0,
00:06.1,-0.00030899,0.000177383,0.013784409,0,
00:06.1,-0.00030899,0.000160217,0.013784409,0,
00:06.1,-0.000314713,0.000154495,0.013784409,0,
00:06.1,-0.00030899,0.000165939,0.013784409,0,
00:06.1,-0.000303268,0.000177383,0.013784409,0,
00:06.1,-0.000303268,0.00019455,0.013784409,0,
00:06.1,-0.000303268,0.000183105,0.013778687,0,
00:06.1,-0.000303268,0.000177383,0.013778687,0,
00:06.1,-0.00030899,0.000183105,0.013778687,0,
00:06.1,-0.000320435,0.000177383,0.013778687,0,
00:06.2,-0.00030899,0.000171661,0.013778687,0,
00:06.2,-0.000326157,0.000171661,0.013784409,0,
00:06.2,-0.000320435,0.000148773,0.013784409,0,
00:06.2,-0.00030899,0.000165939,0.013784409,0,
00:06.2,-0.000297546,0.00019455,0.013778687,0,
00:06.2,-0.000297546,0.00019455,0.013772964,0,
00:06.2,-0.000303268,0.000188828,0.013778687,0,
00:06.2,-0.00030899,0.000188828,0.013778687,0,
00:06.2,-0.000314713,0.000171661,0.013784409,0,
00:06.2,-0.000320435,0.000137329,0.013784409,0,
00:06.2,-0.000331879,0.000160217,0.013778687,0,
00:06.2,-0.000297546,0.000211716,0.013778687,0,
00:06.2,-0.000297546,0.000217438,0.013778687,0,
00:06.2,-0.00030899,0.000200272,0.013778687,0,
00:06.2,-0.00030899,0.00019455,0.013778687,0,
00:06.2,-0.000314713,0.000188828,0.013778687,0,
00:06.2,-0.000314713,0.000177383,0.013778687,0,
00:06.2,-0.000320435,0.000177383,0.013778687,0,
00:06.2,-0.000314713,0.000177383,0.013778687,0,
00:06.2,-0.000320435,0.000165939,0.013778687,0,
00:06.2,-0.000314713,0.000188828,0.013772964,0,
00:06.2,-0.00030899,0.000211716,0.013778687,0,
00:06.2,-0.00030899,0.000205994,0.013778687,0,
00:06.2,-0.000314713,0.00019455,0.013778687,0,
00:06.2,-0.000314713,0.00019455,0.013778687,0,
00:06.3,-0.000314713,0.00019455,0.013772964,0,
00:06.3,-0.000314713,0.000177383,0.013778687,0,
00:06.3,-0.000337601,0.000137329,0.013778687,0,
00:06.3,-0.000331879,0.000160217,0.013778687,0,
00:06.3,-0.000326157,0.000211716,0.013778687,0,
00:06.3,-0.000337601,0.00022316,0.013778687,0,
00:06.3,-0.000297546,0.000217438,0.013772964,0,
00:06.3,-0.000291824,0.000211716,0.013772964,0,
00:06.3,-0.000303268,0.000205994,0.013778687,0,
00:06.3,-0.000314713,0.000188828,0.013778687,0,
00:06.3,-0.000320435,0.000160217,0.013784409,0,
00:06.3,-0.000326157,0.000171661,0.013772964,0,
00:06.3,-0.00030899,0.000205994,0.013767242,0,
00:06.3,-0.00030899,0.000211716,0.013772964,0,
00:06.3,-0.000314713,0.000205994,0.013778687,0,
00:06.3,-0.000320435,0.000205994,0.013772964,0,
00:06.3,-0.000320435,0.00019455,0.013772964,0,
00:06.3,-0.00030899,0.000200272,0.013772964,0,
00:06.3,-0.00030899,0.000200272,0.013778687,0,
00:06.3,-0.000314713,0.000183105,0.013778687,0,
00:06.3,-0.000314713,0.000200272,0.013772964,0,
00:06.3,-0.00030899,0.000217438,0.013772964,0,
00:06.3,-0.000314713,0.000205994,0.013778687,0,
00:06.3,-0.000314713,0.000200272,0.013778687,0,
00:06.3,-0.000320435,0.000200272,0.013778687,0,
00:06.4,-0.000337601,0.000160217,0.013784409,0,
00:06.4,-0.000337601,0.000160217,0.013772964,0,
00:06.4,-0.00030899,0.000228882,0.013772964,0,
00:06.4,-0.000303268,0.000240326,0.013772964,0,
00:06.4,-0.000314713,0.000217438,0.013778687,0,
00:06.4,-0.00030899,0.000211716,0.013778687,0,
00:06.4,-0.000320435,0.000211716,0.013767242,0,
00:06.4,-0.000331879,0.000211716,0.013772964,0,
00:06.4,-0.000343323,0.000188828,0.013778687,0,
00:06.4,-0.000331879,0.000160217,0.013778687,0,
00:06.4,-0.00030899,0.000177383,0.013778687,0,
00:06.4,-0.000297546,0.00025177,0.013772964,0,
00:06.4,-0.000303268,0.000246048,0.013772964,0,
00:06.4,-0.000314713,0.000228882,0.013778687,0,
00:06.4,-0.000314713,0.000211716,0.013772964,0,
00:06.4,-0.000320435,0.000211716,0.013772964,0,
00:06.4,-0.000326157,0.000211716,0.013772964,0,
00:06.4,-0.000320435,0.000211716,0.013778687,0,
00:06.4,-0.000331879,0.000200272,0.013778687,0,
00:06.4,-0.000343323,0.000177383,0.013778687,0,
00:06.4,-0.000337601,0.000160217,0.013778687,0,
00:06.4,-0.000331879,0.000200272,0.013772964,0,
00:06.4,-0.000303268,0.000246048,0.013772964,0,
00:06.4,-0.000303268,0.000246048,0.013778687,0,
00:06.4,-0.000314713,0.000234604,0.013778687,0,
00:06.5,-0.000320435,0.000228882,0.013772964,0,
00:06.5,-0.000320435,0.00022316,0.013772964,0,
00:06.5,-0.000326157,0.00022316,0.013772964,0,
00:06.5,-0.000326157,0.000211716,0.013778687,0,
00:06.5,-0.000343323,0.000171661,0.013784409,0,
00:06.5,-0.000343323,0.000171661,0.013772964,0,
00:06.5,-0.000326157,0.000228882,0.013772964,0,
00:06.5,-0.00030899,0.00025177,0.013772964,0,
00:06.5,-0.000331879,0.000234604,0.013778687,0,
00:06.5,-0.000331879,0.00022316,0.013778687,0,
00:06.5,-0.000331879,0.000217438,0.013778687,0,
00:06.5,-0.000320435,0.000200272,0.013784409,0,
00:06.5,-0.000326157,0.00019455,0.013784409,0,
00:06.5,-0.000314713,0.000211716,0.013784409,0,
00:06.5,-0.000326157,0.000228882,0.013772964,0,
00:06.5,-0.000326157,0.000228882,0.013767242,0,
00:06.5,-0.000320435,0.000228882,0.013772964,0,
00:06.5,-0.000326157,0.00022316,0.013778687,0,
00:06.5,-0.000331879,0.000217438,0.013778687,0,
00:06.5,-0.000331879,0.000211716,0.013778687,0,
00:06.5,-0.000337601,0.000217438,0.013778687,0,
00:06.5,-0.000331879,0.000228882,0.013778687,0,
00:06.5,-0.000326157,0.000240326,0.013778687,0,
00:06.5,-0.000320435,0.00022316,0.013778687,0,
00:06.5,-0.000331879,0.000211716,0.013778687,0,
00:06.6,-0.000337601,0.000205994,0.013778687,0,
00:06.6,-0.000337601,0.000211716,0.013778687,0,
00:06.6,-0.000349045,0.000200272,0.013778687,0,
00:06.6,-0.000337601,0.000211716,0.013784409,0,
00:06.6,-0.000326157,0.000240326,0.013778687,0,
00:06.6,-0.000320435,0.00025177,0.013772964,0,
00:06.6,-0.000337601,0.000246048,0.013772964,0,
00:06.6,-0.000343323,0.000228882,0.013772964,0,
00:06.6,-0.000337601,0.000217438,0.013778687,0,
00:06.6,-0.000337601,0.000228882,0.013778687,0,
00:06.6,-0.000343323,0.000217438,0.013772964,0,
00:06.6,-0.000326157,0.00022316,0.013778687,0,
00:06.6,-0.000326157,0.00022316,0.013778687,0,
00:06.6,-0.000320435,0.000234604,0.013784409,0,
00:06.6,-0.000326157,0.000240326,0.013772964,0,
00:06.6,-0.000331879,0.000240326,0.013772964,0,
00:06.6,-0.000337601,0.000246048,0.013772964,0,
00:06.6,-0.000337601,0.000246048,0.013772964,0,
00:06.6,-0.000337601,0.000234604,0.013772964,0,
00:06.6,-0.000343323,0.000211716,0.013772964,0,
00:06.6,-0.000360489,0.000177383,0.013772964,0,
00:06.6,-0.000354767,0.000205994,0.013778687,0,
00:06.6,-0.000331879,0.000268936,0.013778687,0,
00:06.6,-0.000320435,0.000268936,0.013778687,0,
00:06.6,-0.000331879,0.00025177,0.013784409,0,
00:06.7,-0.000337601,0.00025177,0.013778687,0,
00:06.7,-0.000331879,0.000246048,0.013772964,0,
00:06.7,-0.000331879,0.000234604,0.013772964,0,
00:06.7,-0.000343323,0.00022316,0.013778687,0,
00:06.7,-0.000349045,0.000211716,0.013784409,0,
00:06.7,-0.000349045,0.00022316,0.013772964,0,
00:06.7,-0.000343323,0.00025177,0.013772964,0,
00:06.7,-0.000337601,0.000257492,0.013772964,0,
00:06.7,-0.000343323,0.000257492,0.013772964,0,
00:06.7,-0.000343323,0.000246048,0.013772964,0,
00:06.7,-0.000320435,0.000246048,0.013772964,0,
00:06.7,-0.000331879,0.000240326,0.013772964,0,
00:06.7,-0.000343323,0.000234604,0.013772964,0,
00:06.7,-0.000337601,0.000240326,0.013778687,0,
00:06.7,-0.000337601,0.000240326,0.013772964,0,
00:06.7,-0.000337601,0.00022316,0.013772964,0,
00:06.7,-0.000343323,0.000234604,0.013772964,0,
00:06.7,-0.000337601,0.000246048,0.013772964,0,
00:06.7,-0.000337601,0.00025177,0.013772964,0,
00:06.7,-0.000331879,0.000257492,0.013772964,0,
00:06.7,-0.000337601,0.00025177,0.013767242,0,
00:06.7,-0.000354767,0.000246048,0.013772964,0,
00:06.7,-0.000343323,0.00025177,0.013772964,0,
00:06.7,-0.000337601,0.000257492,0.013772964,0,
00:06.7,-0.000337601,0.000240326,0.013767242,0,
00:06.8,-0.000337601,0.000228882,0.013767242,0,
00:06.8,-0.000337601,0.000246048,0.013767242,0,
00:06.8,-0.000331879,0.000263214,0.013772964,0,
00:06.8,-0.000331879,0.000263214,0.013778687,0,
00:06.8,-0.000337601,0.00025177,0.013772964,0,
00:06.8,-0.000343323,0.000240326,0.01376152,0,
00:06.8,-0.000349045,0.000240326,0.013767242,0,
00:06.8,-0.000354767,0.000246048,0.013778687,0,
00:06.8,-0.000349045,0.000263214,0.013772964,0,
00:06.8,-0.000331879,0.000263214,0.013767242,0,
00:06.8,-0.000337601,0.000246048,0.013767242,0,
00:06.8,-0.000349045,0.000246048,0.013767242,0,
00:06.8,-0.000343323,0.00025177,0.013772964,0,
00:06.8,-0.000337601,0.000263214,0.013778687,0,
00:06.8,-0.000349045,0.000268936,0.013767242,0,
00:06.8,-0.000349045,0.000246048,0.01376152,0,
00:06.8,-0.000354767,0.00022316,0.013767242,0,
00:06.8,-0.000343323,0.00022316,0.013772964,0,
00:06.8,-0.000337601,0.00025177,0.013772964,0,
00:06.8,-0.000337601,0.000268936,0.013767242,0,
00:06.8,-0.000349045,0.00028038,0.013767242,0,
00:06.8,-0.000337601,0.000268936,0.013767242,0,
00:06.8,-0.000331879,0.000257492,0.013772964,0,
00:06.8,-0.000349045,0.00025177,0.013767242,0,
00:06.8,-0.000349045,0.00025177,0.013767242,0,
00:06.9,-0.000337601,0.000257492,0.013767242,0,
00:06.9,-0.000331879,0.000268936,0.013767242,0,
00:06.9,-0.000337601,0.000268936,0.013778687,0,
00:06.9,-0.000349045,0.000263214,0.013772964,0,
00:06.9,-0.000343323,0.000263214,0.01376152,0,
00:06.9,-0.000343323,0.000257492,0.013767242,0,
00:06.9,-0.000349045,0.000257492,0.013767242,0,
00:06.9,-0.000354767,0.000268936,0.013767242,0,
00:06.9,-0.000360489,0.000268936,0.013772964,0,
00:06.9,-0.000343323,0.000263214,0.013772964,0,
00:06.9,-0.000337601,0.000263214,0.013767242,0,
00:06.9,-0.000343323,0.000257492,0.013767242,0,
00:06.9,-0.000349045,0.000257492,0.013772964,0,
00:06.9,-0.000360489,0.000263214,0.013772964,0,
00:06.9,-0.000371933,0.000263214,0.013772964,0,
00:06.9,-0.000337601,0.000268936,0.013767242,0,
00:06.9,-0.000337601,0.00028038,0.013772964,0,
00:06.9,-0.000331879,0.00028038,0.013772964,0,
00:06.9,-0.000337601,0.00028038,0.013772964,0,
00:06.9,-0.000343323,0.000268936,0.013767242,0,
00:06.9,-0.000349045,0.000263214,0.013767242,0,
00:06.9,-0.000354767,0.000257492,0.013772964,0,
00:06.9,-0.000360489,0.000268936,0.013772964,0,
00:06.9,-0.000337601,0.000286102,0.013772964,0,
00:06.9,-0.000337601,0.000291824,0.013772964,0,
00:07.0,-0.000349045,0.00028038,0.013772964,0,
00:07.0,-0.000349045,0.000268936,0.013772964,0,
00:07.0,-0.000354767,0.000257492,0.013772964,0,
00:07.0,-0.000349045,0.000274658,0.013772964,0,
00:07.0,-0.000354767,0.000274658,0.013772964,0,
00:07.0,-0.000371933,0.000268936,0.013767242,0,
00:07.0,-0.000343323,0.000274658,0.013772964,0,
00:07.0,-0.000349045,0.000286102,0.013784409,0,
00:07.0,-0.000349045,0.00028038,0.01376152,0,
00:07.0,-0.000360489,0.000263214,0.013767242,0,
00:07.0,-0.000360489,0.000257492,0.013767242,0,
00:07.0,-0.000349045,0.000274658,0.013767242,0,
00:00:07,-0.000349045,0.000291824,0.013772964,0,
00:07.0,-0.000349045,0.000291824,0.013772964,0,
00:07.0,-0.000349045,0.000291824,0.013767242,0,
00:07.0,-0.000354767,0.00028038,0.013767242,0,
00:07.0,-0.000354767,0.000274658,0.013767242,0,
00:07.0,-0.000360489,0.000274658,0.013772964,0,
00:07.0,-0.000366211,0.000274658,0.013772964,0,
00:07.0,-0.000360489,0.000286102,0.013772964,0,
00:07.0,-0.000349045,0.000291824,0.013767242,0,
00:07.0,-0.000349045,0.000286102,0.013767242,0,
00:07.0,-0.000354767,0.000286102,0.013767242,0,
00:07.0,-0.000354767,0.000268936,0.013772964,0,
00:07.0,-0.000343323,0.000274658,0.013772964,0,
00:07.1,-0.000360489,0.000274658,0.013767242,0,
00:07.1,-0.000354767,0.000291824,0.013767242,0,
00:07.1,-0.000349045,0.000297546,0.013767242,0,
00:07.1,-0.000354767,0.000297546,0.013772964,0,
00:07.1,-0.000354767,0.000291824,0.013772964,0,
00:07.1,-0.000360489,0.00028038,0.013767242,0,
00:07.1,-0.000377655,0.000268936,0.013767242,0,
00:07.1,-0.000377655,0.000263214,0.013772964,0,
00:07.1,-0.000360489,0.000263214,0.013767242,0,
00:07.1,-0.000360489,0.000286102,0.013767242,0,
00:07.1,-0.000349045,0.000303268,0.013767242,0,
00:07.1,-0.000349045,0.000303268,0.013772964,0,
00:07.1,-0.000349045,0.000303268,0.013772964,0,
00:07.1,-0.000360489,0.000291824,0.013767242,0,
00:07.1,-0.000360489,0.000286102,0.01376152,0,
00:07.1,-0.000366211,0.00028038,0.01376152,0,
00:07.1,-0.000366211,0.000274658,0.013767242,0,
00:07.1,-0.000377655,0.00028038,0.013767242,0,
00:07.1,-0.000360489,0.000291824,0.013772964,0,
00:07.1,-0.000343323,0.00030899,0.013767242,0,
00:07.1,-0.000354767,0.000303268,0.01376152,0,
00:07.1,-0.000360489,0.000297546,0.013767242,0,
00:07.1,-0.000349045,0.000291824,0.013767242,0,
00:07.1,-0.000360489,0.000286102,0.013767242,0,
00:07.1,-0.000366211,0.00028038,0.013767242,0,
00:07.2,-0.000360489,0.000297546,0.013767242,0,
00:07.2,-0.000354767,0.00030899,0.01376152,0,
00:07.2,-0.000366211,0.000303268,0.013767242,0,
00:07.2,-0.000366211,0.000291824,0.013767242,0,
00:07.2,-0.000366211,0.000274658,0.013767242,0,
00:07.2,-0.000371933,0.000274658,0.013767242,0,
00:07.2,-0.000377655,0.000286102,0.013767242,0,
00:07.2,-0.000371933,0.00028038,0.013772964,0,
00:07.2,-0.000371933,0.000291824,0.013767242,0,
00:07.2,-0.000354767,0.000303268,0.013767242,0,
00:07.2,-0.000349045,0.00030899,0.01376152,0,
00:07.2,-0.000354767,0.000314713,0.013767242,0,
00:07.2,-0.000360489,0.000297546,0.013767242,0,
00:07.2,-0.000366211,0.00028038,0.013772964,0,
00:07.2,-0.000366211,0.000297546,0.013767242,0,
00:07.2,-0.000354767,0.000314713,0.01376152,0,
00:07.2,-0.000360489,0.000303268,0.013767242,0,
00:07.2,-0.000371933,0.000291824,0.013767242,0,
00:07.2,-0.000371933,0.000291824,0.013767242,0,
00:07.2,-0.000366211,0.00030899,0.013767242,0,
00:07.2,-0.000360489,0.00030899,0.01376152,0,
00:07.2,-0.000371933,0.000303268,0.01376152,0,
00:07.2,-0.000371933,0.000303268,0.013767242,0,
00:07.2,-0.000366211,0.00030899,0.013767242,0,
00:07.2,-0.000371933,0.000303268,0.013767242,0,
00:07.3,-0.000366211,0.000297546,0.01376152,0,
00:07.3,-0.000371933,0.000291824,0.01376152,0,
00:07.3,-0.000377655,0.000291824,0.013767242,0,
00:07.3,-0.000377655,0.000303268,0.013767242,0,
00:07.3,-0.000366211,0.00030899,0.013767242,0,
00:07.3,-0.000371933,0.000303268,0.01376152,0,
00:07.3,-0.000377655,0.000303268,0.01376152,0,
00:07.3,-0.000377655,0.000303268,0.013767242,0,
00:07.3,-0.000377655,0.000297546,0.013767242,0,
00:07.3,-0.000377655,0.000303268,0.013767242,0,
00:07.3,-0.000371933,0.00030899,0.013767242,0,
00:07.3,-0.000360489,0.00030899,0.013772964,0,
00:07.3,-0.000366211,0.000303268,0.013767242,0,
00:07.3,-0.000371933,0.00030899,0.01376152,0,
00:07.3,-0.000371933,0.000297546,0.01376152,0,
00:07.3,-0.000371933,0.000297546,0.01376152,0,
00:07.3,-0.000371933,0.000314713,0.013772964,0,
00:07.3,-0.000366211,0.000320435,0.013767242,0,
00:07.3,-0.000366211,0.000303268,0.013755798,0,
00:07.3,-0.000371933,0.000297546,0.01376152,0,
00:07.3,-0.000383377,0.000297546,0.01376152,0,
00:07.3,-0.000377655,0.000303268,0.01376152,0,
00:07.3,-0.000366211,0.000331879,0.013767242,0,
00:07.3,-0.000371933,0.000326157,0.01376152,0,
00:07.3,-0.000383377,0.000320435,0.013755798,0,
00:07.4,-0.000366211,0.000314713,0.01376152,0,
00:07.4,-0.000371933,0.00030899,0.013767242,0,
00:07.4,-0.000371933,0.000314713,0.01376152,0,
00:07.4,-0.000366211,0.000314713,0.01376152,0,
00:07.4,-0.000366211,0.000320435,0.01376152,0,
00:07.4,-0.000371933,0.00030899,0.013755798,0,
00:07.4,-0.000377655,0.000303268,0.01376152,0,
00:07.4,-0.000371933,0.000314713,0.01376152,0,
00:07.4,-0.000366211,0.000320435,0.01376152,0,
00:07.4,-0.000366211,0.000320435,0.01376152,0,
00:07.4,-0.000371933,0.000314713,0.01376152,0,
00:07.4,-0.000383377,0.000314713,0.01376152,0,
00:07.4,-0.000389099,0.000320435,0.01376152,0,
00:07.4,-0.000371933,0.000320435,0.01376152,0,
00:07.4,-0.000377655,0.000320435,0.013755798,0,
00:07.4,-0.000371933,0.000314713,0.013755798,0,
00:07.4,-0.000371933,0.000314713,0.013755798,0,
00:07.4,-0.000377655,0.00030899,0.013755798,0,
00:07.4,-0.000371933,0.000314713,0.01376152,0,
00:07.4,-0.000371933,0.000326157,0.013772964,0,
00:07.4,-0.000371933,0.000320435,0.013750076,0,
00:07.4,-0.000383377,0.000320435,0.013755798,0,
00:07.4,-0.000377655,0.000320435,0.01376152,0,
00:07.4,-0.000371933,0.000326157,0.013755798,0,
00:07.4,-0.000371933,0.000331879,0.013755798,0,
00:07.5,-0.000383377,0.000326157,0.013755798,0,
00:07.5,-0.000383377,0.000320435,0.013755798,0,
00:07.5,-0.000383377,0.000314713,0.013755798,0,
00:07.5,-0.000383377,0.000314713,0.013755798,0,
00:07.5,-0.000377655,0.000320435,0.013755798,0,
00:07.5,-0.000377655,0.000331879,0.013755798,0,
00:07.5,-0.000371933,0.000326157,0.013755798,0,
00:07.5,-0.000383377,0.000320435,0.013755798,0,
00:07.5,-0.000383377,0.000320435,0.013755798,0,
00:07.5,-0.000377655,0.000337601,0.013755798,0,
00:07.5,-0.000371933,0.000337601,0.013755798,0,
00:07.5,-0.000377655,0.000331879,0.013755798,0,
00:07.5,-0.000383377,0.000320435,0.013755798,0,
00:07.5,-0.000394821,0.000314713,0.013755798,0,
00:07.5,-0.000423431,0.000314713,0.01376152,0,
00:07.5,-0.000371933,0.000314713,0.013755798,0,
00:07.5,-0.000371933,0.000320435,0.013755798,0,
00:07.5,-0.000366211,0.000349045,0.013755798,0,
00:07.5,-0.000377655,0.000349045,0.01376152,0,
00:07.5,-0.000377655,0.000337601,0.013755798,0,
00:07.5,-0.000383377,0.000331879,0.013750076,0,
00:07.5,-0.000377655,0.000314713,0.013755798,0,
00:07.5,-0.000383377,0.00030899,0.013750076,0,
00:07.5,-0.000377655,0.000337601,0.013755798,0,
00:07.5,-0.000377655,0.000343323,0.013755798,0,
00:07.6,-0.000377655,0.000343323,0.013755798,0,
00:07.6,-0.000383377,0.000331879,0.013750076,0,
00:07.6,-0.000383377,0.000326157,0.013750076,0,
00:07.6,-0.000383377,0.000337601,0.013755798,0,
00:07.6,-0.000383377,0.000331879,0.013755798,0,
00:07.6,-0.000383377,0.000331879,0.013750076,0,
00:07.6,-0.000383377,0.000343323,0.013750076,0,
00:07.6,-0.000394821,0.000326157,0.013755798,0,
00:07.6,-0.000394821,0.000326157,0.013755798,0,
00:07.6,-0.000389099,0.000337601,0.013755798,0,
00:07.6,-0.000383377,0.000343323,0.013750076,0,
00:07.6,-0.000383377,0.000343323,0.013755798,0,
00:07.6,-0.000383377,0.000343323,0.013755798,0,
00:07.6,-0.000383377,0.000343323,0.01376152,0,
00:07.6,-0.000400543,0.000331879,0.013750076,0,
00:07.6,-0.000383377,0.000326157,0.013744354,0,
00:07.6,-0.000383377,0.000326157,0.013744354,0,
00:07.6,-0.000383377,0.000343323,0.013750076,0,
00:07.6,-0.000389099,0.000343323,0.013755798,0,
00:07.6,-0.000389099,0.000349045,0.013750076,0,
00:07.6,-0.000377655,0.000343323,0.013750076,0,
00:07.6,-0.000394821,0.000337601,0.013755798,0,
00:07.6,-0.000377655,0.000337601,0.013750076,0,
00:07.6,-0.000377655,0.000343323,0.013750076,0,
00:07.6,-0.000394821,0.000331879,0.013750076,0,
00:07.7,-0.000383377,0.000320435,0.013750076,0,
00:07.7,-0.000383377,0.000337601,0.013750076,0,
00:07.7,-0.000383377,0.000343323,0.013755798,0,
00:07.7,-0.000383377,0.000337601,0.013750076,0,
00:07.7,-0.000383377,0.000343323,0.013744354,0,
00:07.7,-0.000383377,0.000354767,0.013744354,0,
00:07.7,-0.000383377,0.000354767,0.013744354,0,
00:07.7,-0.000389099,0.000349045,0.013750076,0,
00:07.7,-0.000394821,0.000343323,0.013750076,0,
00:07.7,-0.000383377,0.000349045,0.013744354,0,
00:07.7,-0.000389099,0.000343323,0.013744354,0,
00:07.7,-0.000383377,0.000343323,0.013744354,0,
00:07.7,-0.000383377,0.000343323,0.013750076,0,
00:07.7,-0.000394821,0.000343323,0.013750076,0,
00:07.7,-0.000394821,0.000337601,0.013744354,0,
00:07.7,-0.000400543,0.000331879,0.013744354,0,
00:07.7,-0.000389099,0.000343323,0.013750076,0,
00:07.7,-0.000383377,0.000354767,0.013750076,0,
00:07.7,-0.000389099,0.000354767,0.013744354,0,
00:07.7,-0.000389099,0.000349045,0.013744354,0,
00:07.7,-0.000389099,0.000343323,0.013744354,0,
00:07.7,-0.000411987,0.000343323,0.013744354,0,
00:07.7,-0.000406265,0.000337601,0.013750076,0,
00:07.7,-0.000389099,0.000337601,0.013750076,0,
00:07.7,-0.000389099,0.000349045,0.013744354,0,
00:07.8,-0.000377655,0.000354767,0.013744354,0,
00:07.8,-0.000389099,0.000354767,0.013744354,0,
00:07.8,-0.000394821,0.000360489,0.013750076,0,
00:07.8,-0.000394821,0.000349045,0.013755798,0,
00:07.8,-0.000411987,0.000349045,0.013744354,0,
00:07.8,-0.000400543,0.000354767,0.013744354,0,
00:07.8,-0.000377655,0.000354767,0.013744354,0,
00:07.8,-0.000389099,0.000354767,0.013744354,0,
00:07.8,-0.000389099,0.000343323,0.013744354,0,
00:07.8,-0.000400543,0.000343323,0.013744354,0,
00:07.8,-0.000394821,0.000360489,0.013744354,0,
00:07.8,-0.000389099,0.000371933,0.013750076,0,
00:07.8,-0.000394821,0.000366211,0.013744354,0,
00:07.8,-0.000406265,0.000354767,0.013738632,0,
00:07.8,-0.000394821,0.000349045,0.013744354,0,
00:07.8,-0.000389099,0.000349045,0.013744354,0,
00:07.8,-0.000400543,0.000349045,0.013738632,0,
00:07.8,-0.000411987,0.000366211,0.013744354,0,
00:07.8,-0.000394821,0.000366211,0.013744354,0,
00:07.8,-0.000389099,0.000354767,0.013744354,0,
00:07.8,-0.000394821,0.000354767,0.013738632,0,
00:07.8,-0.000394821,0.000354767,0.013744354,0,
00:07.8,-0.000400543,0.000360489,0.013744354,0,
00:07.8,-0.000400543,0.000354767,0.013744354,0,
00:07.8,-0.000400543,0.000360489,0.013738632,0,
00:07.9,-0.000389099,0.000371933,0.013744354,0,
00:07.9,-0.000406265,0.000360489,0.013744354,0,
00:07.9,-0.000394821,0.000354767,0.013744354,0,
00:07.9,-0.000389099,0.000354767,0.013744354,0,
00:07.9,-0.000394821,0.000371933,0.013744354,0,
00:07.9,-0.000389099,0.000383377,0.013738632,0,
00:07.9,-0.000389099,0.000371933,0.013744354,0,
00:07.9,-0.000394821,0.000354767,0.013738632,0,
00:07.9,-0.000400543,0.000343323,0.013738632,0,
00:07.9,-0.000406265,0.000354767,0.013738632,0,
00:07.9,-0.000406265,0.000360489,0.013738632,0,
00:07.9,-0.000400543,0.000366211,0.013738632,0,
00:07.9,-0.000383377,0.000377655,0.013738632,0,
00:07.9,-0.000389099,0.000371933,0.013738632,0,
00:07.9,-0.000394821,0.000360489,0.013738632,0,
00:07.9,-0.000394821,0.000366211,0.013738632,0,
00:07.9,-0.000400543,0.000366211,0.013738632,0,
00:07.9,-0.000406265,0.000366211,0.013744354,0,
00:07.9,-0.000394821,0.000366211,0.013738632,0,
00:07.9,-0.000394821,0.000366211,0.013738632,0,
00:07.9,-0.000394821,0.000371933,0.013744354,0,
00:07.9,-0.000406265,0.000366211,0.013738632,0,
00:07.9,-0.000411987,0.000366211,0.013738632,0,
00:07.9,-0.000400543,0.000383377,0.013738632,0,
00:07.9,-0.000389099,0.000377655,0.013738632,0,
00:08.0,-0.000394821,0.000371933,0.013738632,0,
00:08.0,-0.000417709,0.000371933,0.013738632,0,
00:08.0,-0.000400543,0.000366211,0.013738632,0,
00:08.0,-0.000394821,0.000366211,0.013738632,0,
00:08.0,-0.000394821,0.000377655,0.013738632,0,
00:08.0,-0.000400543,0.000383377,0.01373291,0,
00:08.0,-0.000411987,0.000377655,0.01373291,0,
00:08.0,-0.000394821,0.000377655,0.013738632,0,
00:08.0,-0.000394821,0.000366211,0.01373291,0,
00:08.0,-0.000406265,0.000360489,0.01373291,0,
00:08.0,-0.000406265,0.000371933,0.01373291,0,
00:08.0,-0.000411987,0.000377655,0.01373291,0,
00:00:08,-0.000417709,0.000371933,0.01373291,0,
00:08.0,-0.000394821,0.000371933,0.01373291,0,
00:08.0,-0.000394821,0.000377655,0.013738632,0,
00:08.0,-0.000400543,0.000371933,0.013727188,0,
00:08.0,-0.000406265,0.000371933,0.013727188,0,
00:08.0,-0.000400543,0.000389099,0.01373291,0,
00:08.0,-0.000394821,0.000394821,0.01373291,0,
00:08.0,-0.000400543,0.000383377,0.01373291,0,
00:08.0,-0.000411987,0.000366211,0.013727188,0,
00:08.0,-0.000406265,0.000371933,0.01373291,0,
00:08.0,-0.000400543,0.000389099,0.01373291,0,
00:08.0,-0.000400543,0.000389099,0.01373291,0,
00:08.0,-0.000400543,0.000377655,0.013727188,0,
00:08.1,-0.000400543,0.000371933,0.013727188,0,
00:08.1,-0.000400543,0.000383377,0.01373291,0,
00:08.1,-0.000400543,0.000383377,0.01373291,0,
00:08.1,-0.000406265,0.000383377,0.013727188,0,
00:08.1,-0.000417709,0.000377655,0.013727188,0,
00:08.1,-0.000406265,0.000377655,0.013727188,0,
00:08.1,-0.000406265,0.000383377,0.01373291,0,
00:08.1,-0.000417709,0.000377655,0.013727188,0,
00:08.1,-0.000400543,0.000383377,0.013721466,0,
00:08.1,-0.000400543,0.000389099,0.013721466,0,
00:08.1,-0.000406265,0.000383377,0.013727188,0,
00:08.1,-0.000411987,0.000354767,0.013727188,0,
00:08.1,-0.000406265,0.000371933,0.013727188,0,
00:08.1,-0.000400543,0.000406265,0.013727188,0,
00:08.1,-0.000411987,0.000400543,0.013721466,0,
00:08.1,-0.000394821,0.000394821,0.013721466,0,
00:08.1,-0.000400543,0.000394821,0.013727188,0,
00:08.1,-0.000400543,0.000400543,0.013727188,0,
00:08.1,-0.000400543,0.000394821,0.013727188,0,
00:08.1,-0.000400543,0.000394821,0.013727188,0,
00:08.1,-0.000406265,0.000394821,0.013721466,0,
00:08.1,-0.000417709,0.000389099,0.013727188,0,
00:08.1,-0.000411987,0.000394821,0.01373291,0,
00:08.1,-0.000400543,0.000400543,0.013727188,0,
00:08.1,-0.000406265,0.000400543,0.013721466,0,
00:08.2,-0.000411987,0.000389099,0.013721466,0,
00:08.2,-0.000411987,0.000389099,0.013721466,0,
00:08.2,-0.000411987,0.000383377,0.013727188,0,
00:08.2,-0.000417709,0.000377655,0.013727188,0,
00:08.2,-0.000417709,0.000383377,0.013721466,0,
00:08.2,-0.000406265,0.000394821,0.013715744,0,
00:08.2,-0.000400543,0.000411987,0.013721466,0,
00:08.2,-0.000411987,0.000400543,0.013727188,0,
00:08.2,-0.000417709,0.000389099,0.013727188,0,
00:08.2,-0.000406265,0.000389099,0.013715744,0,
00:08.2,-0.000406265,0.000400543,0.013715744,0,
00:08.2,-0.000406265,0.000400543,0.013721466,0,
00:08.2,-0.000406265,0.000400543,0.013721466,0,
00:08.2,-0.000417709,0.000389099,0.013727188,0,
00:08.2,-0.000429153,0.000383377,0.013727188,0,
00:08.2,-0.000411987,0.000389099,0.013715744,0,
00:08.2,-0.000406265,0.000400543,0.013721466,0,
00:08.2,-0.000406265,0.000400543,0.013727188,0,
00:08.2,-0.000411987,0.000406265,0.013721466,0,
00:08.2,-0.000400543,0.000406265,0.013715744,0,
00:08.2,-0.000411987,0.000400543,0.013715744,0,
00:08.2,-0.000411987,0.000400543,0.013721466,0,
00:08.2,-0.000411987,0.000406265,0.013721466,0,
00:08.2,-0.000417709,0.000400543,0.013721466,0,
00:08.2,-0.000406265,0.000400543,0.013715744,0,
00:08.3,-0.000411987,0.000394821,0.013715744,0,
00:08.3,-0.000411987,0.000400543,0.013721466,0,
00:08.3,-0.000417709,0.000400543,0.013721466,0,
00:08.3,-0.000417709,0.000389099,0.013721466,0,
00:08.3,-0.000411987,0.000383377,0.013721466,0,
00:08.3,-0.000411987,0.000400543,0.013721466,0,
00:08.3,-0.000423431,0.000406265,0.013721466,0,
00:08.3,-0.000406265,0.000411987,0.013721466,0,
00:08.3,-0.000406265,0.000417709,0.013721466,0,
00:08.3,-0.000411987,0.000406265,0.013721466,0,
00:08.3,-0.000411987,0.000400543,0.013710022,0,
00:08.3,-0.000417709,0.000394821,0.013715744,0,
00:08.3,-0.000417709,0.000406265,0.013721466,0,
00:08.3,-0.000417709,0.000411987,0.013727188,0,
00:08.3,-0.000429153,0.000406265,0.013727188,0,
00:08.3,-0.000411987,0.000406265,0.0137043,0,
00:08.3,-0.000406265,0.000406265,0.013710022,0,
00:08.3,-0.000411987,0.000411987,0.013715744,0,
00:08.3,-0.000417709,0.000406265,0.013715744,0,
00:08.3,-0.000417709,0.000394821,0.013715744,0,
00:08.3,-0.000417709,0.000400543,0.013715744,0,
00:08.3,-0.000423431,0.000417709,0.013715744,0,
00:08.3,-0.000417709,0.000417709,0.013715744,0,
00:08.3,-0.000417709,0.000411987,0.013715744,0,
00:08.3,-0.000423431,0.000406265,0.013715744,0,
00:08.4,-0.000423431,0.000400543,0.013710022,0,
00:08.4,-0.000423431,0.000400543,0.013715744,0,
00:08.4,-0.000423431,0.000394821,0.013715744,0,
00:08.4,-0.000423431,0.000406265,0.013715744,0,
00:08.4,-0.000417709,0.000423431,0.013715744,0,
00:08.4,-0.000429153,0.000423431,0.013715744,0,
00:08.4,-0.000434875,0.000417709,0.013715744,0,
00:08.4,-0.000417709,0.000411987,0.013710022,0,
00:08.4,-0.000423431,0.000411987,0.013710022,0,
00:08.4,-0.000423431,0.000400543,0.013710022,0,
00:08.4,-0.000423431,0.000400543,0.013710022,0,
00:08.4,-0.000423431,0.000417709,0.013710022,0,
00:08.4,-0.000434875,0.000429153,0.013715744,0,
00:08.4,-0.000417709,0.000417709,0.013710022,0,
00:08.4,-0.000417709,0.000394821,0.013710022,0,
00:08.4,-0.000423431,0.000400543,0.013710022,0,
00:08.4,-0.000417709,0.000429153,0.013715744,0,
00:08.4,-0.000423431,0.000429153,0.013710022,0,
00:08.4,-0.000423431,0.000429153,0.013715744,0,
00:08.4,-0.000423431,0.000423431,0.013721466,0,
00:08.4,-0.000423431,0.000417709,0.0137043,0,
00:08.4,-0.000423431,0.000406265,0.013710022,0,
00:08.4,-0.000429153,0.000411987,0.013715744,0,
00:08.4,-0.000434875,0.000423431,0.013715744,0,
00:08.4,-0.000429153,0.000429153,0.013710022,0,
00:08.5,-0.000417709,0.000429153,0.0137043,0,
00:08.5,-0.000423431,0.000423431,0.013710022,0,
00:08.5,-0.000434875,0.000417709,0.013710022,0,
00:08.5,-0.000434875,0.000411987,0.013710022,0,
00:08.5,-0.000423431,0.000417709,0.013710022,0,
00:08.5,-0.000429153,0.000423431,0.013710022,0,
00:08.5,-0.000417709,0.000434875,0.013710022,0,
00:08.5,-0.000440598,0.000417709,0.013715744,0,
00:08.5,-0.000440598,0.000411987,0.013715744,0,
00:08.5,-0.000423431,0.000417709,0.013710022,0,
00:08.5,-0.000423431,0.000417709,0.013710022,0,
00:08.5,-0.000429153,0.000423431,0.0137043,0,
00:08.5,-0.000429153,0.000423431,0.0137043,0,
00:08.5,-0.000429153,0.000423431,0.013710022,0,
00:08.5,-0.000434875,0.000423431,0.0137043,0,
00:08.5,-0.000429153,0.000423431,0.0137043,0,
00:08.5,-0.000434875,0.000423431,0.0137043,0,
00:08.5,-0.000434875,0.000434875,0.013710022,0,
00:08.5,-0.000417709,0.000429153,0.013710022,0,
00:08.5,-0.000429153,0.000423431,0.0137043,0,
00:08.5,-0.000440598,0.000411987,0.0137043,0,
00:08.5,-0.000440598,0.000417709,0.0137043,0,
00:08.5,-0.000423431,0.000429153,0.0137043,0,
00:08.5,-0.000429153,0.000434875,0.013710022,0,
00:08.5,-0.000429153,0.000423431,0.0137043,0,
00:08.6,-0.000434875,0.000417709,0.0137043,0,
00:08.6,-0.000440598,0.000417709,0.013710022,0,
00:08.6,-0.000434875,0.000423431,0.0137043,0,
00:08.6,-0.000429153,0.00044632,0.0137043,0,
00:08.6,-0.000429153,0.000440598,0.0137043,0,
00:08.6,-0.000429153,0.000434875,0.0137043,0,
00:08.6,-0.000429153,0.000429153,0.0137043,0,
00:08.6,-0.000440598,0.000417709,0.013710022,0,
00:08.6,-0.000452042,0.000417709,0.0137043,0,
00:08.6,-0.000440598,0.000434875,0.0137043,0,
00:08.6,-0.000440598,0.00044632,0.0137043,0,
00:08.6,-0.000423431,0.00044632,0.0137043,0,
00:08.6,-0.000429153,0.000440598,0.0137043,0,
00:08.6,-0.000434875,0.000440598,0.0137043,0,
00:08.6,-0.000434875,0.000429153,0.013698578,0,
00:08.6,-0.000440598,0.000423431,0.013698578,0,
00:08.6,-0.000440598,0.000423431,0.013698578,0,
00:08.6,-0.000440598,0.000417709,0.0137043,0,
00:08.6,-0.000440598,0.000423431,0.013698578,0,
00:08.6,-0.00044632,0.000423431,0.013698578,0,
00:08.6,-0.000440598,0.000429153,0.013698578,0,
00:08.6,-0.000452042,0.000423431,0.013698578,0,
00:08.6,-0.000440598,0.000434875,0.013710022,0,
00:08.6,-0.000417709,0.000463486,0.0137043,0,
00:08.6,-0.000429153,0.00044632,0.013698578,0,
00:08.7,-0.000440598,0.000434875,0.013692856,0,
00:08.7,-0.000440598,0.000440598,0.013692856,0,
00:08.7,-0.000434875,0.000440598,0.013698578,0,
00:08.7,-0.000429153,0.000440598,0.013698578,0,
00:08.7,-0.000429153,0.000440598,0.013698578,0,
00:08.7,-0.000434875,0.000440598,0.013692856,0,
00:08.7,-0.000434875,0.000440598,0.013692856,0,
00:08.7,-0.000434875,0.00044632,0.013692856,0,
00:08.7,-0.000434875,0.00044632,0.013698578,0,
00:08.7,-0.000452042,0.000434875,0.013692856,0,
00:08.7,-0.000440598,0.000440598,0.013692856,0,
00:08.7,-0.000434875,0.00044632,0.013692856,0,
00:08.7,-0.000429153,0.000452042,0.013698578,0,
00:08.7,-0.000434875,0.000457764,0.013692856,0,
00:08.7,-0.000434875,0.00044632,0.013692856,0,
00:08.7,-0.000440598,0.000440598,0.013692856,0,
00:08.7,-0.000440598,0.000440598,0.013692856,0,
00:08.7,-0.000440598,0.000452042,0.013692856,0,
00:08.7,-0.000440598,0.000452042,0.013698578,0,
00:08.7,-0.000440598,0.00044632,0.013692856,0,
00:08.7,-0.00044632,0.000440598,0.013692856,0,
00:08.7,-0.000440598,0.00044632,0.013692856,0,
00:08.7,-0.000440598,0.000452042,0.013692856,0,
00:08.7,-0.00044632,0.000452042,0.013692856,0,
00:08.7,-0.000429153,0.00044632,0.013692856,0,
00:08.8,-0.000452042,0.000440598,0.013692856,0,
00:08.8,-0.000457764,0.000440598,0.013692856,0,
00:08.8,-0.000452042,0.00044632,0.013692856,0,
00:08.8,-0.000440598,0.000463486,0.013692856,0,
00:08.8,-0.000423431,0.000469208,0.013692856,0,
00:08.8,-0.000429153,0.000457764,0.013692856,0,
00:08.8,-0.000429153,0.000463486,0.013687134,0,
00:08.8,-0.000434875,0.000452042,0.013692856,0,
00:08.8,-0.000440598,0.00044632,0.013692856,0,
00:08.8,-0.00044632,0.00044632,0.013687134,0,
00:08.8,-0.000440598,0.00044632,0.013687134,0,
00:08.8,-0.000440598,0.000463486,0.013692856,0,
00:08.8,-0.000434875,0.000457764,0.013692856,0,
00:08.8,-0.000440598,0.00044632,0.013687134,0,
00:08.8,-0.000440598,0.000452042,0.013687134,0,
00:08.8,-0.000440598,0.000463486,0.013687134,0,
00:08.8,-0.000440598,0.000457764,0.013687134,0,
00:08.8,-0.000440598,0.000452042,0.013692856,0,
00:08.8,-0.00044632,0.000457764,0.013687134,0,
00:08.8,-0.000440598,0.000457764,0.013681412,0,
00:08.8,-0.000440598,0.000452042,0.013687134,0,
00:08.8,-0.00044632,0.000440598,0.013687134,0,
00:08.8,-0.000452042,0.000457764,0.013681412,0,
00:08.8,-0.00044632,0.000463486,0.013681412,0,
00:08.8,-0.000440598,0.000469208,0.013681412,0,
00:08.9,-0.000440598,0.000469208,0.013681412,0,
00:08.9,-0.00044632,0.000463486,0.013681412,0,
00:08.9,-0.000452042,0.000457764,0.013681412,0,
00:08.9,-0.000463486,0.000463486,0.013681412,0,
00:08.9,-0.000480652,0.000463486,0.013687134,0,
00:08.9,-0.000440598,0.000463486,0.013687134,0,
00:08.9,-0.000434875,0.000463486,0.01367569,0,
00:08.9,-0.000440598,0.000452042,0.01367569,0,
00:08.9,-0.00044632,0.000457764,0.013681412,0,
00:08.9,-0.000434875,0.000469208,0.01367569,0,
00:08.9,-0.000440598,0.000469208,0.01367569,0,
00:08.9,-0.000452042,0.000457764,0.013681412,0,
00:08.9,-0.00044632,0.000463486,0.013681412,0,
00:08.9,-0.00044632,0.000469208,0.013681412,0,
00:08.9,-0.00044632,0.000463486,0.013681412,0,
00:08.9,-0.00044632,0.000463486,0.01367569,0,
00:08.9,-0.00044632,0.000469208,0.013681412,0,
00:08.9,-0.000452042,0.000469208,0.013687134,0,
00:08.9,-0.00044632,0.000469208,0.013681412,0,
00:08.9,-0.00044632,0.000457764,0.013669968,0,
00:08.9,-0.000440598,0.000463486,0.01367569,0,
00:08.9,-0.00044632,0.000469208,0.01367569,0,
00:08.9,-0.00044632,0.000480652,0.01367569,0,
00:08.9,-0.00044632,0.00047493,0.013681412,0,
00:08.9,-0.00044632,0.000463486,0.013669968,0,
00:09.0,-0.000452042,0.000457764,0.013669968,0,
00:09.0,-0.000463486,0.000452042,0.013669968,0,
00:09.0,-0.000457764,0.000463486,0.01367569,0,
00:09.0,-0.000440598,0.000480652,0.01367569,0,
00:09.0,-0.00044632,0.000480652,0.013669968,0,
00:09.0,-0.000452042,0.000480652,0.01367569,0,
00:09.0,-0.00047493,0.000463486,0.013681412,0,
00:09.0,-0.00044632,0.000452042,0.01367569,0,
00:09.0,-0.000434875,0.000463486,0.013669968,0,
00:09.0,-0.00044632,0.00047493,0.013669968,0,
00:09.0,-0.000440598,0.000486374,0.013669968,0,
00:09.0,-0.000457764,0.000486374,0.013669968,0,
00:00:09,-0.000463486,0.000469208,0.013669968,0,
00:09.0,-0.00044632,0.00047493,0.013669968,0,
00:09.0,-0.000440598,0.000492096,0.013669968,0,
00:09.0,-0.000440598,0.000486374,0.013669968,0,
00:09.0,-0.000452042,0.00047493,0.013669968,0,
00:09.0,-0.000452042,0.00047493,0.01367569,0,
00:09.0,-0.00044632,0.00047493,0.013669968,0,
00:09.0,-0.000452042,0.000469208,0.013669968,0,
00:09.0,-0.000457764,0.000463486,0.013669968,0,
00:09.0,-0.000452042,0.000480652,0.013669968,0,
00:09.0,-0.000452042,0.000492096,0.013669968,0,
00:09.0,-0.000463486,0.00047493,0.013669968,0,
00:09.0,-0.000452042,0.000469208,0.013669968,0,
00:09.1,-0.000440598,0.000486374,0.013664246,0,
00:09.1,-0.000452042,0.000492096,0.013664246,0,
00:09.1,-0.00044632,0.000480652,0.013669968,0,
00:09.1,-0.000457764,0.000469208,0.013669968,0,
00:09.1,-0.000463486,0.000469208,0.013669968,0,
00:09.1,-0.000452042,0.000486374,0.013658524,0,
00:09.1,-0.000463486,0.000486374,0.01367569,0,
00:09.1,-0.000457764,0.000480652,0.013669968,0,
00:09.1,-0.000440598,0.000486374,0.013658524,0,
00:09.1,-0.00044632,0.000486374,0.013658524,0,
00:09.1,-0.000463486,0.00047493,0.013658524,0,
00:09.1,-0.000457764,0.00047493,0.013664246,0,
00:09.1,-0.000457764,0.000480652,0.013664246,0,
00:09.1,-0.00044632,0.000480652,0.013664246,0,
00:09.1,-0.00044632,0.000492096,0.013664246,0,
00:09.1,-0.000457764,0.000486374,0.013658524,0,
00:09.1,-0.000457764,0.000469208,0.013664246,0,
00:09.1,-0.000457764,0.00044632,0.013664246,0,
00:09.1,-0.000457764,0.000480652,0.013664246,0,
00:09.1,-0.00044632,0.000514984,0.013664246,0,
00:09.1,-0.000452042,0.000497818,0.013658524,0,
00:09.1,-0.000457764,0.000480652,0.013658524,0,
00:09.1,-0.000463486,0.000463486,0.013664246,0,
00:09.1,-0.000457764,0.000492096,0.013664246,0,
00:09.1,-0.00044632,0.000492096,0.013652802,0,
00:09.2,-0.000452042,0.000492096,0.013652802,0,
00:09.2,-0.000452042,0.000497818,0.013658524,0,
00:09.2,-0.000457764,0.000492096,0.013658524,0,
00:09.2,-0.000452042,0.000497818,0.013658524,0,
00:09.2,-0.00044632,0.000492096,0.013652802,0,
00:09.2,-0.000452042,0.000486374,0.013652802,0,
00:09.2,-0.000457764,0.000497818,0.013658524,0,
00:09.2,-0.000463486,0.000486374,0.013664246,0,
00:09.2,-0.000457764,0.000480652,0.013658524,0,
00:09.2,-0.000440598,0.000492096,0.013658524,0,
00:09.2,-0.000452042,0.000492096,0.013652802,0,
00:09.2,-0.000452042,0.000492096,0.013652802,0,
00:09.2,-0.000452042,0.000492096,0.013658524,0,
00:09.2,-0.000463486,0.000497818,0.013658524,0,
00:09.2,-0.000457764,0.000497818,0.013652802,0,
00:09.2,-0.000452042,0.000492096,0.013652802,0,
00:09.2,-0.000452042,0.000486374,0.013658524,0,
00:09.2,-0.000452042,0.000492096,0.013658524,0,
00:09.2,-0.000457764,0.000497818,0.013652802,0,
00:09.2,-0.000463486,0.000492096,0.013647079,0,
00:09.2,-0.000463486,0.000480652,0.013652802,0,
00:09.2,-0.000463486,0.000486374,0.013658524,0,
00:09.2,-0.000463486,0.000497818,0.013658524,0,
00:09.2,-0.000457764,0.000497818,0.013652802,0,
00:09.2,-0.000457764,0.000486374,0.013652802,0,
00:09.3,-0.000457764,0.000486374,0.013647079,0,
00:09.3,-0.000457764,0.000497818,0.013652802,0,
00:09.3,-0.000463486,0.000497818,0.013652802,0,
00:09.3,-0.000469208,0.000492096,0.013652802,0,
00:09.3,-0.000457764,0.000497818,0.013647079,0,
00:09.3,-0.00044632,0.00050354,0.013647079,0,
00:09.3,-0.000463486,0.000497818,0.013652802,0,
00:09.3,-0.000463486,0.000497818,0.013652802,0,
00:09.3,-0.000452042,0.00050354,0.013652802,0,
00:09.3,-0.000463486,0.000492096,0.013652802,0,
00:09.3,-0.000469208,0.000480652,0.013652802,0,
00:09.3,-0.000457764,0.000492096,0.013647079,0,
00:09.3,-0.000457764,0.000497818,0.013652802,0,
00:09.3,-0.000469208,0.00050354,0.013658524,0,
00:09.3,-0.000452042,0.000492096,0.013647079,0,
00:09.3,-0.000457764,0.000509262,0.013641357,0,
00:09.3,-0.000463486,0.000509262,0.013647079,0,
00:09.3,-0.00047493,0.000486374,0.013652802,0,
00:09.3,-0.000463486,0.000497818,0.013647079,0,
00:09.3,-0.00044632,0.000520706,0.013641357,0,
00:09.3,-0.000452042,0.00050354,0.013647079,0,
00:09.3,-0.000469208,0.000492096,0.013652802,0,
00:09.3,-0.000480652,0.000492096,0.013647079,0,
00:09.3,-0.000463486,0.00050354,0.013647079,0,
00:09.3,-0.000457764,0.00050354,0.013641357,0,
00:09.4,-0.000463486,0.00050354,0.013641357,0,
00:09.4,-0.000463486,0.000509262,0.013647079,0,
00:09.4,-0.000457764,0.000520706,0.013647079,0,
00:09.4,-0.000463486,0.000514984,0.013641357,0,
00:09.4,-0.000469208,0.000509262,0.013641357,0,
00:09.4,-0.000463486,0.00050354,0.013641357,0,
00:09.4,-0.000469208,0.000497818,0.013641357,0,
00:09.4,-0.000469208,0.000497818,0.013641357,0,
00:09.4,-0.00047493,0.00050354,0.013641357,0,
00:09.4,-0.00047493,0.00050354,0.013641357,0,
00:09.4,-0.000463486,0.000509262,0.013635635,0,
00:09.4,-0.000457764,0.000514984,0.013641357,0,
00:09.4,-0.000463486,0.000497818,0.013641357,0,
00:09.4,-0.00047493,0.00050354,0.013635635,0,
00:09.4,-0.00047493,0.000514984,0.013641357,0,
00:09.4,-0.000463486,0.00050354,0.013647079,0,
00:09.4,-0.000463486,0.000497818,0.013635635,0,
00:09.4,-0.000469208,0.000514984,0.013635635,0,
00:09.4,-0.000463486,0.000520706,0.013635635,0,
00:09.4,-0.000469208,0.000514984,0.013635635,0,
00:09.4,-0.000469208,0.000509262,0.013635635,0,
00:09.4,-0.00047493,0.000509262,0.013629913,0,
00:09.4,-0.00047493,0.00050354,0.013635635,0,
00:09.4,-0.000469208,0.00050354,0.013635635,0,
00:09.4,-0.00047493,0.000514984,0.013635635,0,
00:09.5,-0.000492096,0.000514984,0.013635635,0,
00:09.5,-0.000457764,0.000514984,0.013629913,0,
00:09.5,-0.000463486,0.000514984,0.013635635,0,
00:09.5,-0.000457764,0.00053215,0.013629913,0,
00:09.5,-0.000463486,0.000520706,0.013629913,0,
00:09.5,-0.00047493,0.000509262,0.013629913,0,
00:09.5,-0.00047493,0.000497818,0.013629913,0,
00:09.5,-0.00047493,0.000509262,0.013635635,0,
00:09.5,-0.000463486,0.00053215,0.013629913,0,
00:09.5,-0.000469208,0.000520706,0.013629913,0,
00:09.5,-0.00047493,0.000509262,0.013629913,0,
00:09.5,-0.00047493,0.000509262,0.013629913,0,
00:09.5,-0.000480652,0.000514984,0.013629913,0,
00:09.5,-0.000469208,0.000526428,0.013624191,0,
00:09.5,-0.000469208,0.000514984,0.013624191,0,
00:09.5,-0.000486374,0.000509262,0.013624191,0,
00:09.5,-0.00047493,0.000514984,0.013629913,0,
00:09.5,-0.000463486,0.00053215,0.013629913,0,
00:09.5,-0.000457764,0.00053215,0.013635635,0,
00:09.5,-0.00047493,0.000526428,0.013618469,0,
00:09.5,-0.000469208,0.000526428,0.013618469,0,
00:09.5,-0.00047493,0.000520706,0.013629913,0,
00:09.5,-0.000469208,0.000520706,0.013624191,0,
00:09.5,-0.000469208,0.000526428,0.013624191,0,
00:09.5,-0.000469208,0.000526428,0.013618469,0,
00:09.6,-0.00047493,0.000520706,0.013624191,0,
00:09.6,-0.000480652,0.000526428,0.013624191,0,
00:09.6,-0.00047493,0.00053215,0.013629913,0,
00:09.6,-0.00047493,0.000526428,0.013624191,0,
00:09.6,-0.000469208,0.000514984,0.013624191,0,
00:09.6,-0.00047493,0.000514984,0.013624191,0,
00:09.6,-0.00047493,0.000520706,0.013624191,0,
00:09.6,-0.00047493,0.00053215,0.013629913,0,
00:09.6,-0.00047493,0.000526428,0.013629913,0,
00:09.6,-0.000480652,0.000514984,0.013624191,0,
00:09.6,-0.00047493,0.000520706,0.013624191,0,
00:09.6,-0.000469208,0.000543594,0.013624191,0,
00:09.6,-0.000469208,0.00053215,0.013629913,0,
00:09.6,-0.000480652,0.000526428,0.013624191,0,
00:09.6,-0.000480652,0.000520706,0.013624191,0,
00:09.6,-0.000480652,0.000520706,0.013618469,0,
00:09.6,-0.000480652,0.000526428,0.013618469,0,
00:09.6,-0.000480652,0.00053215,0.013624191,0,
00:09.6,-0.000480652,0.00053215,0.013624191,0,
00:09.6,-0.000469208,0.000537872,0.013624191,0,
00:09.6,-0.000480652,0.000537872,0.013618469,0,
00:09.6,-0.000486374,0.00053215,0.013618469,0,
00:09.6,-0.000492096,0.00053215,0.013618469,0,
00:09.6,-0.00047493,0.000537872,0.013618469,0,
00:09.6,-0.00047493,0.000537872,0.013618469,0,
00:09.7,-0.000486374,0.00053215,0.013624191,0,
00:09.7,-0.000480652,0.000537872,0.013618469,0,
00:09.7,-0.000480652,0.000537872,0.013618469,0,
00:09.7,-0.00047493,0.000537872,0.013618469,0,
00:09.7,-0.000480652,0.000526428,0.013612747,0,
00:09.7,-0.000492096,0.00053215,0.013612747,0,
00:09.7,-0.00047493,0.000537872,0.013618469,0,
00:09.7,-0.00047493,0.000543594,0.013618469,0,
00:09.7,-0.00047493,0.000543594,0.013612747,0,
00:09.7,-0.000480652,0.00053215,0.013612747,0,
00:09.7,-0.000480652,0.000526428,0.013612747,0,
00:09.7,-0.000486374,0.000537872,0.013612747,0,
00:09.7,-0.00047493,0.000555038,0.013618469,0,
00:09.7,-0.000480652,0.000549316,0.013618469,0,
00:09.7,-0.000486374,0.00053215,0.013612747,0,
00:09.7,-0.000486374,0.000543594,0.013612747,0,
00:09.7,-0.000486374,0.000549316,0.013612747,0,
00:09.7,-0.000480652,0.000549316,0.013612747,0,
00:09.7,-0.000480652,0.000537872,0.013612747,0,
00:09.7,-0.000492096,0.00053215,0.013612747,0,
00:09.7,-0.000486374,0.000537872,0.013618469,0,
00:09.7,-0.000492096,0.000537872,0.013612747,0,
00:09.7,-0.000486374,0.000543594,0.013607025,0,
00:09.7,-0.000480652,0.000543594,0.013612747,0,
00:09.7,-0.000486374,0.000543594,0.013612747,0,
00:09.8,-0.000492096,0.000543594,0.013607025,0,
00:09.8,-0.000492096,0.000537872,0.013612747,0,
00:09.8,-0.000497818,0.000537872,0.013612747,0,
00:09.8,-0.000497818,0.000543594,0.013612747,0,
00:09.8,-0.000492096,0.000537872,0.013607025,0,
00:09.8,-0.000497818,0.000555038,0.013607025,0,
00:09.8,-0.000486374,0.00056076,0.013607025,0,
00:09.8,-0.000469208,0.000549316,0.013612747,0,
00:09.8,-0.000486374,0.000537872,0.013607025,0,
00:09.8,-0.000486374,0.000543594,0.013607025,0,
00:09.8,-0.000492096,0.000549316,0.013607025,0,
00:09.8,-0.00047493,0.000549316,0.013612747,0,
00:09.8,-0.000480652,0.000549316,0.013612747,0,
00:09.8,-0.000497818,0.000549316,0.013601303,0,
00:09.8,-0.000486374,0.000549316,0.013601303,0,
00:09.8,-0.000492096,0.000549316,0.013601303,0,
00:09.8,-0.000492096,0.000549316,0.013607025,0,
00:09.8,-0.000497818,0.000555038,0.013607025,0,
00:09.8,-0.000492096,0.000555038,0.013607025,0,
00:09.8,-0.000497818,0.000549316,0.013601303,0,
00:09.8,-0.000486374,0.000549316,0.013607025,0,
00:09.8,-0.000486374,0.000555038,0.013607025,0,
00:09.8,-0.000492096,0.00056076,0.013607025,0,
00:09.8,-0.000497818,0.000549316,0.013607025,0,
00:09.8,-0.000492096,0.000549316,0.013601303,0,
00:09.9,-0.000492096,0.000537872,0.013601303,0,
00:09.9,-0.000492096,0.000543594,0.013601303,0,
00:09.9,-0.000509262,0.000555038,0.013607025,0,
00:09.9,-0.00050354,0.00056076,0.013612747,0,
00:09.9,-0.000492096,0.000555038,0.013595581,0,
00:09.9,-0.000486374,0.000555038,0.013595581,0,
00:09.9,-0.000497818,0.000549316,0.013601303,0,
00:09.9,-0.000492096,0.000549316,0.013607025,0,
00:09.9,-0.000480652,0.000566483,0.013607025,0,
00:09.9,-0.000492096,0.000566483,0.013601303,0,
00:09.9,-0.000492096,0.000555038,0.013601303,0,
00:09.9,-0.000486374,0.00056076,0.013601303,0,
00:09.9,-0.000492096,0.000566483,0.013607025,0,
00:09.9,-0.000492096,0.00056076,0.013601303,0,
00:09.9,-0.000492096,0.00056076,0.013601303,0,
00:09.9,-0.000492096,0.000555038,0.013601303,0,
00:09.9,-0.000497818,0.000549316,0.013601303,0,
00:09.9,-0.00050354,0.000555038,0.013607025,0,
00:09.9,-0.000497818,0.000566483,0.013601303,0,
00:09.9,-0.000486374,0.000566483,0.013595581,0,
00:09.9,-0.000497818,0.000549316,0.013595581,0,
00:09.9,-0.000492096,0.000555038,0.013601303,0,
00:09.9,-0.000492096,0.000566483,0.013601303,0,
00:09.9,-0.000486374,0.000566483,0.013601303,0,
00:09.9,-0.000492096,0.000566483,0.013595581,0,
00:10.0,-0.000492096,0.00056076,0.013595581,0,
00:10.0,-0.00050354,0.000555038,0.013595581,0,
00:10.0,-0.00050354,0.000555038,0.013601303,0,
00:10.0,-0.000492096,0.00056076,0.013595581,0,
00:10.0,-0.000497818,0.00056076,0.013595581,0,
00:10.0,-0.00050354,0.000549316,0.013595581,0,
00:10.0,-0.00050354,0.000537872,0.013595581,0,
00:10.0,-0.000497818,0.000572205,0.013601303,0,
00:10.0,-0.000497818,0.000577927,0.013601303,0,
00:10.0,-0.000509262,0.000566483,0.013595581,0,
00:10.0,-0.000497818,0.000572205,0.013589859,0,
00:10.0,-0.000492096,0.000577927,0.013589859,0,
00:00:10,-0.000497818,0.000577927,0.013595581,0,
00:10.0,-0.000497818,0.000572205,0.013595581,0,
00:10.0,-0.000509262,0.000555038,0.013589859,0,
00:10.0,-0.000514984,0.000549316,0.013595581,0,
00:10.0,-0.000492096,0.000566483,0.013595581,0,
00:10.0,-0.000497818,0.000572205,0.013595581,0,
00:10.0,-0.000497818,0.000577927,0.013595581,0,
00:10.0,-0.000492096,0.000577927,0.013589859,0,
00:10.0,-0.000497818,0.000572205,0.013589859,0,
00:10.0,-0.00050354,0.000577927,0.013589859,0,
00:10.0,-0.00050354,0.000566483,0.013589859,0,
00:10.0,-0.000509262,0.000555038,0.013584137,0,
00:10.0,-0.00050354,0.000566483,0.013589859,0,
00:10.1,-0.00050354,0.000577927,0.013589859,0,
00:10.1,-0.000509262,0.000572205,0.013589859,0,
00:10.1,-0.00050354,0.000577927,0.013589859,0,
00:10.1,-0.00050354,0.000583649,0.013589859,0,
00:10.1,-0.00050354,0.000577927,0.013589859,0,
00:10.1,-0.000509262,0.000572205,0.013589859,0,
00:10.1,-0.000514984,0.000566483,0.013595581,0,
00:10.1,-0.000514984,0.000577927,0.013589859,0,
00:10.1,-0.000509262,0.000583649,0.013595581,0,
00:10.1,-0.000509262,0.000572205,0.013595581,0,
00:10.1,-0.000497818,0.000572205,0.013584137,0,
00:10.1,-0.000509262,0.000583649,0.013589859,0,
00:10.1,-0.000497818,0.000577927,0.013595581,0,
00:10.1,-0.00050354,0.000577927,0.013589859,0,
00:10.1,-0.00050354,0.000583649,0.013589859,0,
00:10.1,-0.000497818,0.000583649,0.013589859,0,
00:10.1,-0.00050354,0.000577927,0.013595581,0,
00:10.1,-0.000514984,0.000566483,0.013595581,0,
00:10.1,-0.000509262,0.000572205,0.013595581,0,
00:10.1,-0.000497818,0.000572205,0.013589859,0,
00:10.1,-0.00050354,0.000577927,0.013584137,0,
00:10.1,-0.000509262,0.000589371,0.013589859,0,
00:10.1,-0.00050354,0.000589371,0.013595581,0,
