Elapsed_Time,EMG1,EMG2,EMG3,BioRadio Event,Unnamed: 5
00:00:00,0.000463486,0.000537872,0.011964798,0,
00:00.0,0.000463486,0.000526428,0.011964798,0,
00:00.0,0.000497818,0.000577927,0.01194191,0,
00:00.0,0.000457764,0.00056076,0.011936188,0,
00:00.0,0.00047493,0.000549316,0.011964798,0,
00:00.0,0.000486374,0.000566483,0.011953354,0,
00:00.0,0.00047493,0.000555038,0.011936188,0,
00:00.0,0.000497818,0.000589371,0.011924744,0,
00:00.0,0.000492096,0.000583649,0.011930466,0,
00:00.0,0.000486374,0.00056076,0.011924744,0,
00:00.0,0.000469208,0.00053215,0.011907578,0,
00:00.0,0.000486374,0.000577927,0.011953354,0,
00:00.0,0.00050354,0.000572205,0.011924744,0,
00:00.1,0.000492096,0.000589371,0.011924744,0,
00:00.1,0.000480652,0.000572205,0.011901855,0,
00:00.1,0.000486374,0.000566483,0.0119133,0,
00:00.1,0.000480652,0.000549316,0.011924744,0,
00:00.1,0.000492096,0.000566483,0.01194191,0,
00:00.1,0.000486374,0.000549316,0.011930466,0,
00:00.1,0.00047493,0.000566483,0.0119133,0,
00:00.1,0.000492096,0.000583649,0.011919022,0,
00:00.1,0.000480652,0.000589371,0.0119133,0,
00:00.1,0.000463486,0.000526428,0.011890411,0,
00:00.1,0.000509262,0.000595093,0.011896133,0,
00:00.1,0.000492096,0.000583649,0.011884689,0,
00:00.1,0.000480652,0.000583649,0.011890411,0,
00:00.1,0.000497818,0.000555038,0.011907578,0,
00:00.1,0.000463486,0.000514984,0.011907578,0,
00:00.1,0.00050354,0.000572205,0.011901855,0,
00:00.1,0.000486374,0.000572205,0.011901855,0,
00:00.1,0.000469208,0.000577927,0.011884689,0,
00:00.1,0.000486374,0.000583649,0.011884689,0,
00:00.1,0.000486374,0.000555038,0.011884689,0,
00:00.1,0.000469208,0.000537872,0.011878967,0,
00:00.1,0.00047493,0.000566483,0.011884689,0,
00:00.1,0.000497818,0.000583649,0.011878967,0,
00:00.1,0.000497818,0.000606537,0.011867523,0,
00:00.1,0.000480652,0.00056076,0.011873245,0,
00:00.2,0.00047493,0.000543594,0.011878967,0,
00:00.2,0.000492096,0.000566483,0.011861801,0,
00:00.2,0.000509262,0.000589371,0.011838913,0,
00:00.2,0.000497818,0.000577927,0.011844635,0,
00:00.2,0.000486374,0.000566483,0.011878967,0,
00:00.2,0.000492096,0.000595093,0.011856079,0,
00:00.2,0.000480652,0.000577927,0.011856079,0,
00:00.2,0.000469208,0.000577927,0.011856079,0,
00:00.2,0.00047493,0.000537872,0.011856079,0,
00:00.2,0.000492096,0.000566483,0.011861801,0,
00:00.2,0.000480652,0.000555038,0.011856079,0,
00:00.2,0.000486374,0.000577927,0.011850357,0,
00:00.2,0.000486374,0.000583649,0.011844635,0,
00:00.2,0.000497818,0.000589371,0.011838913,0,
00:00.2,0.000486374,0.000583649,0.011838913,0,
00:00.2,0.000486374,0.000555038,0.011838913,0,
00:00.2,0.00050354,0.000595093,0.011821747,0,
00:00.2,0.000463486,0.00056076,0.011833191,0,
00:00.2,0.000492096,0.000583649,0.011827469,0,
00:00.2,0.000520706,0.000612259,0.011816025,0,
00:00.2,0.000497818,0.000589371,0.011816025,0,
00:00.2,0.000486374,0.000577927,0.011821747,0,
00:00.2,0.000486374,0.000577927,0.011798859,0,
00:00.2,0.000486374,0.000577927,0.011827469,0,
00:00.2,0.00047493,0.000549316,0.011816025,0,
00:00.3,0.000492096,0.000572205,0.011833191,0,
00:00.3,0.000509262,0.000606537,0.011804581,0,
00:00.3,0.00050354,0.000606537,0.011821747,0,
00:00.3,0.000492096,0.000566483,0.011804581,0,
00:00.3,0.000480652,0.000577927,0.011816025,0,
00:00.3,0.000480652,0.000577927,0.011804581,0,
00:00.3,0.000486374,0.000589371,0.011798859,0,
00:00.3,0.000497818,0.000577927,0.011793137,0,
00:00.3,0.00050354,0.000589371,0.01177597,0,
00:00.3,0.000497818,0.000612259,0.011781693,0,
00:00.3,0.000480652,0.000583649,0.011798859,0,
00:00.3,0.000497818,0.00056076,0.011787415,0,
00:00.3,0.000486374,0.000566483,0.011781693,0,
00:00.3,0.000492096,0.000577927,0.011787415,0,
00:00.3,0.00050354,0.000595093,0.01177597,0,
00:00.3,0.000497818,0.000600815,0.011758804,0,
00:00.3,0.000486374,0.000595093,0.011804581,0,
00:00.3,0.000486374,0.000566483,0.01177597,0,
00:00.3,0.00047493,0.000572205,0.011758804,0,
00:00.3,0.000492096,0.000577927,0.011781693,0,
00:00.3,0.000492096,0.000600815,0.011764526,0,
00:00.3,0.000492096,0.000600815,0.011758804,0,
00:00.3,0.000480652,0.000566483,0.011758804,0,
00:00.3,0.000509262,0.000606537,0.01174736,0,
00:00.3,0.000526428,0.000640869,0.011730194,0,
00:00.4,0.000509262,0.000617981,0.011741638,0,
00:00.4,0.000469208,0.000589371,0.01174736,0,
00:00.4,0.000480652,0.000566483,0.011753082,0,
00:00.4,0.00047493,0.000566483,0.011735916,0,
00:00.4,0.000486374,0.000600815,0.011735916,0,
00:00.4,0.000480652,0.000572205,0.011730194,0,
00:00.4,0.000486374,0.000572205,0.011724472,0,
00:00.4,0.000480652,0.000566483,0.011724472,0,
00:00.4,0.000492096,0.000589371,0.011701584,0,
00:00.4,0.000526428,0.000640869,0.011701584,0,
00:00.4,0.000549316,0.000652313,0.011701584,0,
00:00.4,0.000463486,0.000577927,0.011707306,0,
00:00.4,0.000463486,0.000577927,0.011701584,0,
00:00.4,0.000486374,0.000606537,0.01169014,0,
00:00.4,0.000492096,0.000589371,0.011713028,0,
00:00.4,0.000492096,0.000589371,0.01171875,0,
00:00.4,0.000492096,0.000595093,0.011707306,0,
00:00.4,0.000492096,0.000583649,0.01169014,0,
00:00.4,0.000480652,0.000566483,0.011678696,0,
00:00.4,0.000486374,0.000583649,0.011672974,0,
00:00.4,0.000509262,0.000623703,0.011678696,0,
00:00.4,0.000537872,0.000663757,0.011672974,0,
00:00.4,0.000566483,0.000652313,0.011655807,0,
00:00.4,0.000469208,0.000543594,0.01166153,0,
00:00.4,0.000469208,0.000589371,0.011724472,0,
00:00.5,0.000480652,0.000600815,0.011695862,0,
00:00.5,0.000492096,0.000606537,0.011672974,0,
00:00.5,0.000497818,0.000606537,0.011684418,0,
00:00.5,0.00050354,0.000612259,0.011672974,0,
00:00.5,0.000509262,0.000612259,0.011678696,0,
00:00.5,0.000497818,0.000600815,0.011672974,0,
00:00.5,0.000486374,0.000589371,0.011667252,0,
00:00.5,0.000492096,0.000617981,0.011672974,0,
00:00.5,0.000520706,0.000640869,0.011667252,0,
00:00.5,0.00050354,0.000606537,0.011672974,0,
00:00.5,0.000497818,0.000600815,0.011655807,0,
00:00.5,0.000497818,0.000600815,0.011667252,0,
00:00.5,0.00050354,0.000583649,0.011650085,0,
00:00.5,0.000497818,0.000589371,0.011655807,0,
00:00.5,0.000497818,0.000600815,0.011655807,0,
00:00.5,0.00050354,0.000623703,0.01166153,0,
00:00.5,0.000514984,0.000640869,0.011655807,0,
00:00.5,0.000514984,0.000629425,0.011632919,0,
00:00.5,0.00050354,0.000606537,0.011655807,0,
00:00.5,0.00050354,0.000623703,0.011655807,0,
00:00.5,0.000514984,0.000640869,0.011650085,0,
00:00.5,0.000526428,0.000646591,0.011672974,0,
00:00.5,0.000497818,0.000583649,0.011655807,0,
00:00.5,0.000497818,0.000617981,0.011638641,0,
00:00.5,0.00050354,0.000606537,0.011655807,0,
00:00.6,0.000509262,0.000606537,0.01166153,0,
00:00.6,0.00050354,0.000606537,0.011644363,0,
00:00.6,0.00050354,0.000646591,0.011621475,0,
00:00.6,0.000486374,0.000623703,0.011650085,0,
00:00.6,0.00050354,0.000600815,0.01166153,0,
00:00.6,0.000497818,0.000612259,0.011655807,0,
00:00.6,0.00050354,0.000612259,0.011632919,0,
00:00.6,0.000514984,0.000629425,0.011638641,0,
00:00.6,0.000492096,0.000612259,0.011644363,0,
00:00.6,0.000492096,0.000606537,0.011638641,0,
00:00.6,0.000497818,0.000623703,0.011638641,0,
00:00.6,0.000514984,0.000646591,0.011650085,0,
00:00.6,0.000537872,0.000652313,0.011621475,0,
00:00.6,0.000480652,0.000583649,0.011655807,0,
00:00.6,0.000497818,0.000646591,0.011650085,0,
00:00.6,0.000492096,0.000600815,0.011638641,0,
00:00.6,0.00050354,0.000629425,0.011638641,0,
00:00.6,0.00050354,0.000629425,0.011638641,0,
00:00.6,0.000509262,0.000629425,0.011627197,0,
00:00.6,0.000509262,0.000589371,0.011621475,0,
00:00.6,0.00050354,0.000612259,0.011632919,0,
00:00.6,0.00050354,0.000640869,0.011655807,0,
00:00.6,0.000497818,0.000629425,0.011655807,0,
00:00.6,0.00050354,0.000623703,0.011632919,0,
00:00.6,0.000509262,0.000646591,0.011632919,0,
00:00.7,0.000509262,0.000629425,0.011650085,0,
00:00.7,0.000497818,0.000612259,0.011644363,0,
00:00.7,0.00050354,0.000617981,0.011638641,0,
00:00.7,0.00050354,0.000629425,0.011638641,0,
00:00.7,0.000509262,0.000629425,0.011621475,0,
00:00.7,0.000497818,0.000635147,0.011621475,0,
00:00.7,0.00050354,0.000606537,0.011638641,0,
00:00.7,0.000486374,0.000606537,0.011638641,0,
00:00.7,0.00050354,0.000606537,0.011615753,0,
00:00.7,0.000497818,0.000635147,0.011638641,0,
00:00.7,0.000509262,0.000629425,0.011632919,0,
00:00.7,0.000514984,0.000640869,0.011644363,0,
00:00.7,0.000492096,0.000623703,0.011638641,0,
00:00.7,0.000486374,0.000600815,0.011644363,0,
00:00.7,0.00050354,0.000640869,0.011627197,0,
00:00.7,0.000509262,0.000635147,0.011627197,0,
00:00.7,0.00050354,0.000640869,0.011638641,0,
00:00.7,0.000526428,0.000680923,0.011621475,0,
00:00.7,0.000509262,0.000646591,0.011610031,0,
00:00.7,0.000497818,0.000606537,0.011644363,0,
00:00.7,0.00053215,0.000658035,0.011621475,0,
00:00.7,0.000520706,0.000663757,0.011621475,0,
00:00.7,0.000497818,0.000635147,0.011638641,0,
00:00.7,0.000497818,0.000629425,0.011632919,0,
00:00.7,0.000497818,0.000646591,0.011627197,0,
00:00.8,0.000509262,0.000646591,0.011627197,0,
00:00.8,0.00050354,0.000623703,0.011610031,0,
00:00.8,0.000497818,0.000646591,0.011644363,0,
00:00.8,0.00050354,0.000606537,0.011621475,0,
00:00.8,0.000497818,0.000595093,0.011627197,0,
00:00.8,0.000497818,0.000617981,0.011632919,0,
00:00.8,0.000497818,0.000629425,0.011638641,0,
00:00.8,0.000492096,0.000629425,0.011632919,0,
00:00.8,0.00050354,0.000652313,0.011627197,0,
00:00.8,0.000492096,0.000612259,0.011610031,0,
00:00.8,0.000480652,0.000606537,0.011655807,0,
00:00.8,0.000480652,0.000600815,0.011644363,0,
00:00.8,0.000492096,0.000635147,0.011621475,0,
00:00.8,0.000497818,0.000612259,0.011627197,0,
00:00.8,0.000492096,0.000617981,0.011627197,0,
00:00.8,0.000492096,0.000612259,0.011621475,0,
00:00.8,0.000492096,0.000640869,0.011632919,0,
00:00.8,0.000514984,0.000686646,0.011610031,0,
00:00.8,0.000509262,0.000623703,0.011615753,0,
00:00.8,0.000497818,0.000623703,0.011638641,0,
00:00.8,0.00047493,0.000606537,0.011632919,0,
00:00.8,0.000492096,0.000617981,0.011644363,0,
00:00.8,0.00050354,0.000640869,0.011621475,0,
00:00.8,0.000526428,0.000686646,0.011615753,0,
00:00.8,0.000520706,0.000635147,0.011638641,0,
00:00.9,0.000497818,0.000629425,0.011627197,0,
00:00.9,0.00050354,0.000617981,0.011615753,0,
00:00.9,0.000492096,0.000635147,0.011638641,0,
00:00.9,0.00047493,0.000600815,0.011632919,0,
00:00.9,0.000497818,0.000617981,0.011627197,0,
00:00.9,0.000509262,0.000623703,0.011615753,0,
00:00.9,0.000509262,0.000663757,0.011615753,0,
00:00.9,0.000497818,0.000652313,0.011638641,0,
00:00.9,0.000509262,0.000646591,0.011627197,0,
00:00.9,0.000480652,0.000589371,0.011632919,0,
00:00.9,0.000497818,0.000652313,0.011644363,0,
00:00.9,0.000497818,0.000612259,0.011638641,0,
00:00.9,0.000509262,0.000635147,0.011627197,0,
00:00.9,0.000509262,0.000652313,0.011632919,0,
00:00.9,0.000492096,0.000617981,0.011621475,0,
00:00.9,0.000497818,0.000629425,0.011627197,0,
00:00.9,0.00050354,0.000640869,0.011632919,0,
00:00.9,0.00050354,0.000635147,0.011627197,0,
00:00.9,0.000526428,0.000686646,0.011638641,0,
00:00.9,0.000497818,0.000623703,0.011632919,0,
00:00.9,0.000480652,0.000629425,0.011650085,0,
00:00.9,0.000492096,0.000623703,0.011644363,0,
00:00.9,0.000497818,0.000612259,0.011621475,0,
00:00.9,0.000509262,0.000703812,0.011621475,0,
00:00.9,0.000514984,0.000669479,0.011627197,0,
00:01.0,0.000497818,0.000623703,0.01166153,0,
00:01.0,0.000492096,0.000617981,0.011650085,0,
00:01.0,0.00050354,0.000623703,0.011627197,0,
00:01.0,0.000497818,0.000640869,0.011615753,0,
00:01.0,0.000509262,0.000663757,0.011627197,0,
00:01.0,0.00050354,0.000663757,0.011638641,0,
00:01.0,0.000492096,0.000595093,0.011627197,0,
00:01.0,0.000514984,0.000612259,0.011644363,0,
00:01.0,0.000497818,0.000623703,0.011638641,0,
00:01.0,0.000497818,0.000623703,0.011615753,0,
00:01.0,0.000514984,0.000652313,0.011644363,0,
00:01.0,0.00050354,0.000635147,0.011644363,0,
00:00:01,0.000486374,0.000612259,0.011638641,0,
00:01.0,0.000526428,0.000663757,0.011621475,0,
00:01.0,0.000486374,0.000640869,0.011644363,0,
00:01.0,0.000486374,0.000629425,0.011650085,0,
00:01.0,0.000497818,0.000635147,0.011638641,0,
00:01.0,0.00050354,0.000652313,0.011627197,0,
00:01.0,0.00050354,0.000640869,0.011655807,0,
00:01.0,0.00050354,0.000635147,0.011638641,0,
00:01.0,0.00050354,0.000617981,0.011638641,0,
00:01.0,0.000520706,0.000675201,0.011632919,0,
00:01.0,0.000509262,0.000640869,0.011632919,0,
00:01.0,0.000509262,0.000635147,0.011621475,0,
00:01.0,0.000492096,0.000617981,0.011644363,0,
00:01.1,0.000497818,0.000612259,0.011650085,0,
00:01.1,0.000526428,0.000658035,0.011632919,0,
00:01.1,0.000520706,0.000640869,0.011638641,0,
00:01.1,0.000497818,0.000646591,0.011632919,0,
00:01.1,0.000492096,0.000646591,0.011655807,0,
00:01.1,0.000486374,0.000692368,0.011638641,0,
00:01.1,0.000497818,0.000652313,0.011621475,0,
00:01.1,0.000492096,0.000623703,0.011638641,0,
00:01.1,0.000514984,0.000652313,0.011650085,0,
00:01.1,0.000514984,0.000646591,0.011632919,0,
00:01.1,0.000463486,0.000572205,0.011644363,0,
00:01.1,0.00047493,0.000577927,0.011655807,0,
00:01.1,0.000497818,0.000652313,0.011627197,0,
00:01.1,0.000526428,0.000686646,0.011610031,0,
00:01.1,0.000526428,0.000680923,0.011650085,0,
00:01.1,0.00053215,0.000680923,0.011655807,0,
00:01.1,0.000480652,0.000600815,0.011644363,0,
00:01.1,0.000480652,0.000612259,0.011650085,0,
00:01.1,0.000486374,0.000629425,0.011644363,0,
00:01.1,0.000514984,0.000663757,0.011638641,0,
00:01.1,0.00053215,0.000715256,0.011638641,0,
00:01.1,0.00050354,0.000646591,0.011621475,0,
00:01.1,0.000497818,0.000623703,0.011655807,0,
00:01.1,0.000497818,0.000640869,0.011672974,0,
00:01.1,0.000520706,0.000658035,0.011644363,0,
00:01.2,0.00053215,0.00069809,0.011627197,0,
00:01.2,0.00050354,0.000675201,0.011644363,0,
00:01.2,0.000497818,0.000600815,0.011650085,0,
00:01.2,0.00050354,0.000646591,0.011650085,0,
00:01.2,0.00050354,0.000623703,0.011638641,0,
00:01.2,0.000492096,0.000606537,0.011655807,0,
00:01.2,0.00050354,0.000623703,0.011650085,0,
00:01.2,0.000492096,0.000640869,0.011644363,0,
00:01.2,0.000486374,0.000617981,0.011650085,0,
00:01.2,0.000480652,0.000617981,0.011638641,0,
00:01.2,0.000497818,0.000629425,0.01166153,0,
00:01.2,0.000520706,0.000669479,0.011650085,0,
00:01.2,0.000526428,0.00069809,0.011610031,0,
00:01.2,0.000514984,0.000663757,0.011621475,0,
00:01.2,0.00050354,0.000658035,0.011655807,0,
00:01.2,0.000492096,0.000658035,0.011644363,0,
00:01.2,0.000509262,0.000669479,0.011655807,0,
00:01.2,0.000520706,0.000646591,0.011638641,0,
00:01.2,0.000509262,0.000629425,0.011655807,0,
00:01.2,0.000497818,0.000617981,0.011655807,0,
00:01.2,0.00047493,0.000606537,0.011655807,0,
00:01.2,0.000509262,0.000692368,0.011650085,0,
00:01.2,0.000526428,0.000680923,0.011655807,0,
00:01.2,0.000509262,0.000635147,0.011650085,0,
00:01.2,0.000486374,0.000606537,0.011655807,0,
00:01.3,0.000497818,0.000623703,0.01166153,0,
00:01.3,0.00053215,0.000686646,0.011632919,0,
00:01.3,0.000537872,0.000703812,0.011610031,0,
00:01.3,0.000520706,0.000640869,0.011650085,0,
00:01.3,0.000480652,0.000595093,0.011650085,0,
00:01.3,0.00047493,0.000600815,0.011644363,0,
00:01.3,0.00050354,0.000652313,0.011667252,0,
00:01.3,0.00050354,0.000629425,0.011655807,0,
00:01.3,0.00050354,0.000658035,0.011650085,0,
00:01.3,0.000509262,0.000675201,0.011655807,0,
00:01.3,0.000526428,0.000686646,0.011638641,0,
00:01.3,0.000526428,0.000646591,0.011627197,0,
00:01.3,0.000492096,0.000606537,0.011615753,0,
00:01.3,0.000480652,0.000606537,0.01166153,0,
00:01.3,0.000514984,0.000652313,0.011650085,0,
00:01.3,0.000526428,0.000692368,0.011621475,0,
00:01.3,0.00050354,0.000658035,0.011644363,0,
00:01.3,0.000480652,0.000629425,0.01166153,0,
00:01.3,0.000497818,0.000635147,0.011627197,0,
00:01.3,0.00050354,0.000658035,0.011627197,0,
00:01.3,0.00050354,0.000635147,0.011632919,0,
00:01.3,0.000520706,0.000658035,0.011638641,0,
00:01.3,0.000480652,0.000635147,0.011655807,0,
00:01.3,0.00047493,0.000612259,0.011644363,0,
00:01.3,0.000486374,0.000617981,0.011638641,0,
00:01.4,0.000520706,0.000709534,0.011621475,0,
00:01.4,0.000520706,0.00069809,0.011615753,0,
00:01.4,0.000486374,0.000577927,0.011615753,0,
00:01.4,0.000486374,0.000629425,0.011650085,0,
00:01.4,0.000492096,0.000635147,0.011650085,0,
00:01.4,0.000497818,0.000629425,0.011632919,0,
00:01.4,0.000520706,0.000663757,0.011610031,0,
00:01.4,0.00050354,0.000646591,0.011610031,0,
00:01.4,0.000520706,0.000686646,0.011604309,0,
00:01.4,0.000514984,0.000669479,0.011621475,0,
00:01.4,0.000469208,0.000589371,0.011655807,0,
00:01.4,0.000509262,0.000680923,0.011638641,0,
00:01.4,0.000486374,0.000635147,0.011621475,0,
00:01.4,0.00050354,0.000623703,0.011621475,0,
00:01.4,0.00050354,0.000675201,0.011610031,0,
00:01.4,0.000497818,0.000658035,0.011604309,0,
00:01.4,0.000526428,0.000680923,0.011621475,0,
00:01.4,0.00047493,0.000623703,0.011598587,0,
00:01.4,0.000486374,0.000635147,0.011632919,0,
00:01.4,0.00050354,0.000640869,0.011604309,0,
00:01.4,0.000486374,0.000635147,0.011592865,0,
00:01.4,0.000486374,0.000629425,0.011621475,0,
00:01.4,0.000480652,0.000629425,0.011632919,0,
00:01.4,0.000514984,0.000658035,0.011615753,0,
00:01.4,0.000514984,0.000652313,0.011627197,0,
00:01.5,0.000509262,0.000652313,0.011621475,0,
00:01.5,0.000509262,0.000640869,0.011598587,0,
00:01.5,0.00050354,0.000646591,0.011610031,0,
00:01.5,0.000526428,0.000692368,0.011615753,0,
00:01.5,0.000463486,0.000600815,0.011621475,0,
00:01.5,0.000480652,0.000652313,0.011604309,0,
00:01.5,0.000492096,0.000675201,0.011610031,0,
00:01.5,0.00050354,0.000669479,0.011587143,0,
00:01.5,0.000492096,0.000663757,0.011598587,0,
00:01.5,0.000486374,0.000652313,0.011610031,0,
00:01.5,0.00050354,0.000652313,0.011610031,0,
00:01.5,0.000514984,0.000686646,0.011604309,0,
00:01.5,0.000480652,0.000612259,0.011610031,0,
00:01.5,0.000497818,0.000658035,0.011621475,0,
00:01.5,0.000509262,0.000686646,0.011604309,0,
00:01.5,0.000469208,0.000606537,0.011621475,0,
00:01.5,0.000469208,0.000600815,0.011598587,0,
00:01.5,0.000497818,0.000640869,0.011587143,0,
00:01.5,0.00047493,0.000635147,0.011587143,0,
00:01.5,0.000497818,0.000663757,0.011604309,0,
00:01.5,0.000492096,0.000663757,0.011598587,0,
00:01.5,0.000480652,0.000612259,0.011621475,0,
00:01.5,0.000509262,0.000663757,0.011598587,0,
00:01.5,0.00053215,0.000709534,0.011575699,0,
00:01.5,0.000492096,0.000652313,0.011598587,0,
00:01.6,0.000492096,0.000652313,0.011604309,0,
00:01.6,0.000486374,0.000646591,0.011610031,0,
00:01.6,0.000480652,0.000623703,0.011598587,0,
00:01.6,0.000497818,0.000640869,0.011615753,0,
00:01.6,0.000514984,0.000692368,0.011598587,0,
00:01.6,0.00047493,0.000658035,0.011587143,0,
00:01.6,0.00047493,0.000589371,0.011604309,0,
00:01.6,0.00047493,0.000617981,0.011587143,0,
00:01.6,0.000492096,0.000635147,0.011581421,0,
00:01.6,0.000509262,0.000680923,0.011581421,0,
00:01.6,0.000509262,0.000703812,0.011587143,0,
00:01.6,0.000492096,0.000669479,0.011569977,0,
00:01.6,0.000486374,0.000617981,0.011632919,0,
00:01.6,0.00047493,0.000623703,0.011610031,0,
00:01.6,0.00047493,0.000652313,0.011610031,0,
00:01.6,0.000492096,0.000663757,0.011610031,0,
00:01.6,0.000469208,0.000617981,0.011598587,0,
00:01.6,0.000492096,0.000640869,0.011587143,0,
00:01.6,0.000497818,0.000663757,0.011581421,0,
00:01.6,0.000469208,0.000612259,0.011598587,0,
00:01.6,0.000480652,0.000640869,0.011604309,0,
00:01.6,0.00050354,0.000669479,0.011592865,0,
00:01.6,0.000514984,0.00069809,0.011581421,0,
00:01.6,0.000520706,0.000738144,0.011575699,0,
00:01.6,0.000463486,0.000606537,0.011604309,0,
00:01.7,0.000469208,0.000629425,0.011610031,0,
00:01.7,0.000492096,0.000652313,0.011587143,0,
00:01.7,0.00050354,0.000646591,0.011592865,0,
00:01.7,0.000480652,0.000635147,0.011592865,0,
00:01.7,0.000480652,0.000652313,0.011598587,0,
00:01.7,0.00050354,0.000652313,0.011587143,0,
00:01.7,0.000480652,0.000623703,0.011615753,0,
00:01.7,0.000463486,0.000635147,0.011604309,0,
00:01.7,0.000492096,0.000663757,0.011610031,0,
00:01.7,0.000492096,0.000652313,0.011615753,0,
00:01.7,0.000480652,0.000629425,0.011604309,0,
00:01.7,0.00050354,0.000669479,0.011587143,0,
00:01.7,0.000497818,0.000640869,0.011581421,0,
00:01.7,0.000492096,0.000640869,0.011610031,0,
00:01.7,0.00050354,0.000680923,0.011604309,0,
00:01.7,0.000509262,0.000663757,0.011615753,0,
00:01.7,0.000486374,0.000635147,0.011604309,0,
00:01.7,0.000526428,0.000692368,0.011592865,0,
00:01.7,0.000509262,0.000680923,0.011569977,0,
00:01.7,0.000469208,0.000629425,0.011644363,0,
00:01.7,0.000492096,0.000669479,0.011627197,0,
00:01.7,0.000497818,0.000652313,0.011604309,0,
00:01.7,0.00050354,0.000623703,0.011604309,0,
00:01.7,0.000497818,0.000635147,0.011615753,0,
00:01.7,0.000492096,0.000646591,0.011621475,0,
00:01.8,0.000480652,0.000663757,0.011615753,0,
00:01.8,0.000497818,0.000692368,0.011592865,0,
00:01.8,0.000514984,0.000663757,0.011592865,0,
00:01.8,0.000492096,0.000635147,0.011632919,0,
00:01.8,0.000520706,0.000652313,0.011632919,0,
00:01.8,0.000526428,0.000703812,0.011621475,0,
00:01.8,0.00047493,0.000600815,0.011615753,0,
00:01.8,0.00047493,0.000617981,0.011632919,0,
00:01.8,0.000486374,0.000663757,0.011627197,0,
00:01.8,0.000492096,0.000646591,0.011627197,0,
00:01.8,0.000509262,0.000652313,0.011627197,0,
00:01.8,0.000486374,0.000675201,0.011610031,0,
00:01.8,0.000480652,0.000600815,0.011604309,0,
00:01.8,0.000497818,0.000623703,0.011632919,0,
00:01.8,0.000509262,0.000658035,0.011638641,0,
00:01.8,0.000514984,0.000675201,0.011615753,0,
00:01.8,0.000537872,0.000686646,0.011627197,0,
00:01.8,0.000526428,0.000686646,0.011638641,0,
00:01.8,0.000497818,0.000663757,0.011632919,0,
00:01.8,0.000492096,0.000635147,0.011638641,0,
00:01.8,0.000492096,0.000640869,0.011632919,0,
00:01.8,0.000497818,0.000640869,0.011632919,0,
00:01.8,0.000520706,0.000692368,0.011627197,0,
00:01.8,0.000520706,0.000703812,0.011604309,0,
00:01.8,0.000480652,0.000629425,0.011638641,0,
00:01.9,0.000480652,0.000629425,0.011672974,0,
00:01.9,0.000492096,0.000606537,0.01166153,0,
00:01.9,0.000497818,0.000635147,0.011638641,0,
00:01.9,0.000514984,0.000680923,0.011644363,0,
00:01.9,0.000514984,0.000675201,0.01166153,0,
00:01.9,0.000492096,0.000646591,0.011650085,0,
00:01.9,0.00050354,0.000652313,0.011650085,0,
00:01.9,0.000509262,0.000675201,0.011644363,0,
00:01.9,0.00053215,0.00069809,0.011650085,0,
00:01.9,0.000486374,0.000606537,0.011655807,0,
00:01.9,0.000480652,0.000606537,0.011672974,0,
00:01.9,0.000497818,0.000635147,0.011667252,0,
00:01.9,0.000509262,0.000680923,0.011667252,0,
00:01.9,0.000497818,0.00069809,0.011655807,0,
00:01.9,0.00050354,0.000646591,0.011667252,0,
00:01.9,0.000509262,0.000635147,0.011684418,0,
00:01.9,0.000520706,0.000669479,0.011672974,0,
00:01.9,0.000509262,0.000658035,0.011667252,0,
00:01.9,0.000509262,0.000669479,0.011684418,0,
00:01.9,0.000497818,0.000635147,0.011684418,0,
00:01.9,0.000492096,0.000646591,0.011667252,0,
00:01.9,0.000520706,0.000669479,0.011684418,0,
00:01.9,0.000514984,0.000646591,0.011667252,0,
00:01.9,0.00050354,0.000663757,0.011695862,0,
00:01.9,0.000492096,0.000658035,0.011695862,0,
00:02.0,0.000555038,0.000732422,0.011678696,0,
00:02.0,0.000595093,0.000818253,0.011644363,0,
00:02.0,0.000440598,0.00053215,0.011701584,0,
00:02.0,0.000463486,0.000577927,0.011724472,0,
00:02.0,0.000492096,0.000635147,0.011713028,0,
00:02.0,0.00050354,0.000652313,0.011707306,0,
00:02.0,0.000509262,0.000652313,0.011707306,0,
00:02.0,0.00050354,0.000635147,0.011701584,0,
00:02.0,0.000497818,0.000617981,0.011678696,0,
00:02.0,0.00056076,0.000720978,0.01169014,0,
00:02.0,0.000566483,0.000738144,0.011678696,0,
00:02.0,0.000497818,0.000669479,0.01169014,0,
00:00:02,0.000486374,0.000663757,0.011707306,0,
00:02.0,0.00050354,0.000663757,0.011713028,0,
00:02.0,0.000492096,0.000623703,0.01174736,0,
00:02.0,0.000492096,0.000612259,0.011753082,0,
00:02.0,0.000497818,0.000623703,0.011735916,0,
00:02.0,0.000520706,0.000669479,0.011713028,0,
00:02.0,0.000509262,0.000669479,0.011695862,0,
00:02.0,0.000497818,0.000658035,0.01169014,0,
00:02.0,0.000514984,0.000680923,0.011695862,0,
00:02.0,0.000520706,0.000669479,0.011684418,0,
00:02.0,0.00050354,0.000669479,0.011701584,0,
00:02.0,0.000514984,0.000675201,0.011684418,0,
00:02.0,0.000526428,0.000652313,0.011684418,0,
00:02.1,0.000514984,0.000652313,0.011695862,0,
00:02.1,0.00056076,0.000738144,0.011695862,0,
00:02.1,0.000514984,0.000663757,0.011724472,0,
00:02.1,0.000492096,0.000623703,0.011730194,0,
00:02.1,0.000486374,0.000623703,0.01171875,0,
00:02.1,0.000509262,0.000635147,0.011713028,0,
00:02.1,0.000520706,0.000692368,0.011707306,0,
00:02.1,0.00053215,0.000675201,0.011707306,0,
00:02.1,0.000509262,0.000646591,0.011713028,0,
00:02.1,0.000492096,0.000600815,0.011707306,0,
00:02.1,0.000497818,0.000635147,0.01171875,0,
00:02.1,0.000509262,0.000635147,0.011707306,0,
00:02.1,0.000543594,0.000680923,0.011695862,0,
00:02.1,0.000572205,0.000720978,0.011695862,0,
00:02.1,0.000492096,0.000652313,0.011735916,0,
00:02.1,0.000486374,0.000669479,0.011730194,0,
00:02.1,0.00050354,0.000635147,0.011724472,0,
00:02.1,0.000520706,0.000646591,0.011735916,0,
00:02.1,0.000526428,0.000675201,0.011724472,0,
00:02.1,0.00056076,0.000749588,0.011724472,0,
00:02.1,0.000514984,0.000663757,0.011735916,0,
00:02.1,0.000497818,0.000623703,0.011741638,0,
00:02.1,0.000520706,0.000675201,0.011741638,0,
00:02.1,0.000543594,0.00069809,0.01171875,0,
00:02.1,0.000526428,0.000675201,0.011730194,0,
00:02.2,0.00050354,0.000646591,0.01174736,0,
00:02.2,0.000497818,0.000629425,0.011758804,0,
00:02.2,0.000514984,0.000652313,0.01174736,0,
00:02.2,0.000526428,0.000663757,0.011741638,0,
00:02.2,0.000514984,0.000658035,0.011735916,0,
00:02.2,0.000514984,0.000680923,0.01174736,0,
00:02.2,0.00053215,0.000669479,0.011753082,0,
00:02.2,0.000555038,0.000715256,0.011735916,0,
00:02.2,0.000537872,0.00069809,0.011730194,0,
00:02.2,0.000492096,0.000595093,0.011770248,0,
00:02.2,0.000514984,0.000646591,0.011764526,0,
00:02.2,0.000543594,0.000675201,0.011741638,0,
00:02.2,0.000514984,0.000663757,0.011730194,0,
00:02.2,0.000526428,0.000680923,0.011764526,0,
00:02.2,0.000520706,0.000663757,0.011770248,0,
00:02.2,0.000514984,0.000652313,0.01177597,0,
00:02.2,0.00053215,0.000675201,0.011753082,0,
00:02.2,0.00053215,0.00069809,0.011758804,0,
00:02.2,0.00053215,0.000692368,0.011758804,0,
00:02.2,0.000526428,0.000686646,0.011770248,0,
00:02.2,0.000520706,0.000680923,0.011753082,0,
00:02.2,0.000566483,0.000738144,0.011781693,0,
00:02.2,0.000537872,0.000675201,0.011770248,0,
00:02.2,0.00047493,0.000589371,0.011793137,0,
00:02.2,0.000509262,0.000646591,0.011764526,0,
00:02.3,0.000520706,0.000675201,0.011798859,0,
00:02.3,0.000520706,0.000640869,0.011804581,0,
00:02.3,0.000514984,0.000646591,0.01177597,0,
00:02.3,0.000526428,0.000663757,0.011770248,0,
00:02.3,0.000520706,0.000652313,0.011764526,0,
00:02.3,0.000526428,0.000663757,0.011764526,0,
00:02.3,0.000549316,0.000680923,0.011781693,0,
00:02.3,0.00053215,0.000709534,0.011798859,0,
00:02.3,0.000537872,0.000692368,0.011781693,0,
00:02.3,0.000520706,0.000675201,0.011781693,0,
00:02.3,0.000486374,0.000617981,0.011810303,0,
00:02.3,0.000537872,0.000703812,0.011804581,0,
00:02.3,0.00053215,0.00069809,0.01177597,0,
00:02.3,0.00053215,0.000652313,0.011781693,0,
00:02.3,0.000509262,0.000629425,0.011787415,0,
00:02.3,0.00050354,0.000623703,0.011810303,0,
00:02.3,0.00053215,0.000686646,0.011804581,0,
00:02.3,0.000520706,0.000669479,0.011787415,0,
00:02.3,0.00053215,0.000675201,0.011781693,0,
00:02.3,0.000526428,0.000686646,0.011781693,0,
00:02.3,0.000509262,0.000686646,0.011798859,0,
00:02.3,0.000520706,0.000652313,0.011770248,0,
00:02.3,0.000520706,0.000646591,0.011787415,0,
00:02.3,0.000526428,0.000720978,0.011793137,0,
00:02.3,0.000514984,0.000658035,0.011810303,0,
00:02.4,0.000514984,0.000617981,0.011810303,0,
00:02.4,0.000526428,0.000658035,0.011787415,0,
00:02.4,0.000526428,0.000663757,0.011793137,0,
00:02.4,0.000537872,0.00069809,0.011793137,0,
00:02.4,0.000549316,0.000680923,0.011798859,0,
00:02.4,0.000526428,0.000663757,0.011787415,0,
00:02.4,0.000514984,0.000680923,0.011810303,0,
00:02.4,0.000514984,0.000669479,0.011793137,0,
00:02.4,0.000509262,0.000652313,0.011804581,0,
00:02.4,0.000509262,0.000675201,0.011798859,0,
00:02.4,0.000526428,0.000692368,0.011804581,0,
00:02.4,0.000543594,0.000692368,0.011810303,0,
00:02.4,0.000543594,0.000686646,0.011798859,0,
00:02.4,0.000514984,0.000646591,0.011770248,0,
00:02.4,0.000497818,0.000635147,0.011816025,0,
00:02.4,0.000509262,0.000646591,0.011810303,0,
00:02.4,0.000526428,0.000675201,0.01177597,0,
00:02.4,0.000549316,0.00069809,0.011781693,0,
00:02.4,0.00053215,0.000715256,0.011821747,0,
00:02.4,0.00053215,0.00069809,0.011821747,0,
00:02.4,0.000514984,0.000646591,0.011810303,0,
00:02.4,0.000514984,0.000617981,0.011804581,0,
00:02.4,0.000526428,0.000652313,0.011787415,0,
00:02.4,0.000514984,0.000658035,0.011798859,0,
00:02.4,0.000520706,0.000658035,0.011821747,0,
00:02.5,0.000555038,0.000715256,0.011804581,0,
00:02.5,0.000537872,0.00069809,0.011804581,0,
00:02.5,0.000497818,0.000629425,0.011827469,0,
00:02.5,0.000520706,0.000669479,0.011798859,0,
00:02.5,0.000514984,0.000646591,0.011833191,0,
00:02.5,0.000526428,0.000658035,0.011838913,0,
00:02.5,0.00053215,0.000686646,0.011810303,0,
00:02.5,0.000549316,0.000732422,0.011810303,0,
00:02.5,0.000520706,0.000646591,0.011793137,0,
00:02.5,0.000526428,0.000669479,0.011816025,0,
00:02.5,0.00053215,0.000680923,0.011833191,0,
00:02.5,0.000520706,0.000663757,0.011816025,0,
00:02.5,0.000537872,0.000692368,0.011810303,0,
00:02.5,0.000537872,0.000692368,0.011798859,0,
00:02.5,0.000492096,0.000629425,0.011821747,0,
00:02.5,0.000514984,0.000652313,0.011844635,0,
00:02.5,0.000526428,0.000669479,0.011827469,0,
00:02.5,0.000543594,0.000720978,0.011804581,0,
00:02.5,0.000543594,0.000692368,0.011798859,0,
00:02.5,0.000509262,0.000629425,0.011810303,0,
00:02.5,0.000520706,0.000675201,0.011833191,0,
00:02.5,0.000514984,0.000675201,0.011816025,0,
00:02.5,0.00053215,0.000680923,0.011821747,0,
00:02.5,0.00053215,0.000675201,0.011833191,0,
00:02.5,0.000520706,0.000669479,0.011844635,0,
00:02.6,0.000526428,0.000686646,0.011827469,0,
00:02.6,0.000520706,0.000669479,0.011827469,0,
00:02.6,0.000526428,0.000652313,0.011821747,0,
00:02.6,0.00056076,0.000749588,0.011816025,0,
00:02.6,0.000549316,0.000715256,0.011798859,0,
00:02.6,0.000509262,0.000646591,0.011833191,0,
00:02.6,0.00053215,0.000686646,0.011838913,0,
00:02.6,0.00053215,0.000675201,0.011810303,0,
00:02.6,0.000543594,0.000675201,0.011827469,0,
00:02.6,0.000543594,0.000680923,0.011838913,0,
00:02.6,0.000526428,0.00069809,0.011838913,0,
00:02.6,0.000514984,0.000675201,0.011816025,0,
00:02.6,0.000526428,0.000686646,0.011827469,0,
00:02.6,0.000526428,0.000686646,0.011816025,0,
00:02.6,0.000526428,0.000652313,0.011833191,0,
00:02.6,0.000543594,0.000692368,0.011844635,0,
00:02.6,0.00053215,0.000658035,0.011827469,0,
00:02.6,0.000526428,0.000675201,0.011810303,0,
00:02.6,0.00053215,0.000680923,0.011821747,0,
00:02.6,0.000543594,0.000703812,0.011833191,0,
00:02.6,0.000543594,0.000686646,0.011838913,0,
00:02.6,0.000520706,0.000652313,0.011844635,0,
00:02.6,0.000526428,0.000680923,0.011827469,0,
00:02.6,0.000543594,0.000703812,0.011810303,0,
00:02.6,0.00053215,0.000686646,0.011833191,0,
00:02.7,0.000520706,0.000675201,0.011838913,0,
00:02.7,0.000543594,0.000703812,0.011816025,0,
00:02.7,0.00053215,0.000692368,0.011821747,0,
00:02.7,0.000526428,0.000675201,0.011827469,0,
00:02.7,0.000537872,0.000669479,0.011816025,0,
00:02.7,0.000537872,0.000692368,0.011821747,0,
00:02.7,0.000537872,0.000732422,0.011821747,0,
00:02.7,0.000537872,0.000720978,0.011816025,0,
00:02.7,0.00053215,0.000652313,0.011833191,0,
00:02.7,0.000526428,0.000658035,0.011833191,0,
00:02.7,0.00053215,0.000703812,0.011827469,0,
00:02.7,0.000537872,0.000686646,0.011821747,0,
00:02.7,0.000543594,0.000680923,0.011838913,0,
00:02.7,0.00053215,0.00069809,0.011838913,0,
00:02.7,0.000526428,0.000686646,0.011833191,0,
00:02.7,0.000537872,0.000686646,0.011827469,0,
00:02.7,0.000526428,0.000669479,0.011833191,0,
00:02.7,0.000537872,0.000686646,0.011833191,0,
00:02.7,0.000543594,0.000715256,0.011798859,0,
00:02.7,0.00053215,0.000686646,0.011816025,0,
00:02.7,0.00053215,0.000669479,0.011827469,0,
00:02.7,0.000543594,0.000720978,0.011821747,0,
00:02.7,0.000543594,0.000749588,0.011821747,0,
00:02.7,0.000537872,0.000646591,0.011821747,0,
00:02.7,0.000549316,0.000686646,0.011804581,0,
00:02.8,0.000537872,0.000680923,0.011827469,0,
00:02.8,0.000520706,0.000663757,0.011816025,0,
00:02.8,0.000543594,0.000732422,0.011827469,0,
00:02.8,0.000555038,0.000709534,0.011844635,0,
00:02.8,0.000526428,0.000669479,0.011867523,0,
00:02.8,0.000526428,0.000669479,0.011856079,0,
00:02.8,0.000549316,0.000703812,0.011838913,0,
00:02.8,0.000543594,0.000686646,0.011833191,0,
00:02.8,0.000509262,0.000663757,0.011838913,0,
00:02.8,0.000526428,0.000663757,0.011833191,0,
00:02.8,0.000543594,0.000663757,0.011850357,0,
00:02.8,0.000537872,0.000686646,0.011821747,0,
00:02.8,0.000526428,0.000680923,0.011833191,0,
00:02.8,0.000537872,0.000692368,0.011821747,0,
00:02.8,0.000543594,0.000686646,0.011821747,0,
00:02.8,0.00053215,0.000680923,0.011827469,0,
00:02.8,0.000526428,0.000646591,0.011838913,0,
00:02.8,0.00053215,0.000680923,0.011821747,0,
00:02.8,0.00053215,0.000686646,0.011827469,0,
00:02.8,0.000537872,0.00069809,0.011850357,0,
00:02.8,0.000555038,0.0007267,0.011833191,0,
00:02.8,0.00053215,0.000680923,0.011827469,0,
00:02.8,0.000537872,0.000703812,0.011798859,0,
00:02.8,0.000520706,0.000686646,0.011816025,0,
00:02.8,0.000537872,0.000658035,0.011850357,0,
00:02.9,0.000543594,0.00069809,0.011833191,0,
00:02.9,0.000526428,0.000680923,0.011816025,0,
00:02.9,0.00053215,0.000680923,0.011810303,0,
00:02.9,0.000543594,0.000703812,0.011793137,0,
00:02.9,0.000526428,0.000692368,0.011838913,0,
00:02.9,0.00053215,0.000675201,0.011838913,0,
00:02.9,0.000549316,0.000715256,0.011804581,0,
00:02.9,0.000543594,0.000686646,0.011810303,0,
00:02.9,0.00053215,0.000715256,0.011833191,0,
00:02.9,0.000537872,0.000692368,0.011833191,0,
00:02.9,0.000555038,0.000686646,0.011816025,0,
00:02.9,0.000509262,0.000663757,0.011827469,0,
00:02.9,0.000509262,0.000663757,0.011827469,0,
00:02.9,0.000537872,0.000680923,0.011827469,0,
00:02.9,0.000566483,0.000738144,0.011816025,0,
00:02.9,0.00053215,0.000703812,0.011827469,0,
00:02.9,0.000514984,0.000663757,0.011821747,0,
00:02.9,0.000537872,0.000715256,0.011804581,0,
00:02.9,0.000537872,0.000675201,0.011798859,0,
00:02.9,0.00053215,0.000669479,0.011816025,0,
00:02.9,0.00053215,0.00069809,0.011804581,0,
00:02.9,0.00056076,0.000738144,0.011781693,0,
00:02.9,0.000537872,0.000709534,0.011816025,0,
00:02.9,0.000543594,0.000703812,0.011810303,0,
00:02.9,0.00050354,0.000646591,0.011798859,0,
00:03.0,0.000526428,0.000686646,0.011816025,0,
00:03.0,0.000537872,0.00069809,0.011816025,0,
00:03.0,0.000520706,0.000675201,0.011810303,0,
00:03.0,0.000526428,0.000680923,0.011804581,0,
00:03.0,0.000555038,0.0007267,0.011793137,0,
00:03.0,0.000555038,0.000732422,0.011781693,0,
00:03.0,0.000520706,0.000680923,0.011781693,0,
00:03.0,0.000520706,0.000663757,0.011821747,0,
00:03.0,0.000526428,0.000686646,0.011810303,0,
00:03.0,0.00056076,0.000738144,0.011793137,0,
00:03.0,0.000543594,0.000709534,0.011793137,0,
00:03.0,0.000514984,0.000686646,0.011798859,0,
00:00:03,0.000526428,0.000640869,0.011798859,0,
00:03.0,0.000555038,0.0007267,0.011781693,0,
00:03.0,0.000514984,0.000669479,0.011793137,0,
00:03.0,0.00050354,0.000646591,0.011781693,0,
00:03.0,0.000514984,0.000663757,0.011793137,0,
00:03.0,0.00053215,0.000686646,0.011781693,0,
00:03.0,0.000549316,0.000720978,0.011787415,0,
00:03.0,0.00056076,0.000720978,0.011781693,0,
00:03.0,0.000537872,0.00069809,0.011770248,0,
00:03.0,0.00056076,0.000703812,0.011787415,0,
00:03.0,0.00053215,0.000692368,0.01177597,0,
00:03.0,0.000509262,0.000680923,0.011787415,0,
00:03.0,0.000520706,0.000692368,0.011787415,0,
00:03.1,0.000572205,0.000761032,0.011781693,0,
00:03.1,0.000543594,0.000703812,0.011753082,0,
00:03.1,0.000492096,0.000623703,0.011798859,0,
00:03.1,0.000520706,0.000675201,0.011793137,0,
00:03.1,0.000520706,0.000686646,0.011787415,0,
00:03.1,0.000543594,0.0007267,0.011764526,0,
00:03.1,0.000572205,0.000778198,0.011741638,0,
00:03.1,0.000514984,0.000675201,0.011798859,0,
00:03.1,0.000514984,0.000680923,0.011804581,0,
00:03.1,0.000543594,0.000715256,0.011793137,0,
00:03.1,0.00053215,0.000686646,0.01177597,0,
00:03.1,0.000520706,0.00069809,0.011770248,0,
00:03.1,0.00050354,0.000652313,0.011781693,0,
00:03.1,0.000526428,0.000686646,0.01177597,0,
00:03.1,0.000526428,0.000692368,0.011753082,0,
00:03.1,0.000537872,0.000692368,0.011753082,0,
00:03.1,0.000537872,0.000709534,0.011758804,0,
00:03.1,0.000520706,0.000715256,0.011764526,0,
00:03.1,0.00053215,0.000692368,0.011770248,0,
00:03.1,0.000514984,0.000663757,0.01174736,0,
00:03.1,0.000514984,0.000669479,0.011770248,0,
00:03.1,0.000549316,0.000738144,0.011764526,0,
00:03.1,0.000566483,0.000789642,0.011730194,0,
00:03.1,0.000514984,0.000658035,0.011753082,0,
00:03.1,0.00050354,0.000658035,0.011793137,0,
00:03.2,0.000526428,0.000686646,0.011753082,0,
00:03.2,0.000526428,0.000743866,0.01174736,0,
00:03.2,0.000549316,0.000709534,0.011753082,0,
00:03.2,0.000537872,0.000663757,0.011741638,0,
00:03.2,0.000492096,0.000663757,0.01174736,0,
00:03.2,0.000509262,0.00069809,0.011735916,0,
00:03.2,0.000509262,0.000715256,0.011724472,0,
00:03.2,0.000526428,0.00069809,0.011713028,0,
00:03.2,0.00053215,0.00069809,0.011741638,0,
00:03.2,0.00053215,0.000715256,0.011741638,0,
00:03.2,0.00053215,0.000709534,0.011735916,0,
00:03.2,0.000526428,0.000680923,0.01171875,0,
00:03.2,0.00053215,0.000692368,0.011735916,0,
00:03.2,0.000577927,0.000749588,0.011730194,0,
00:03.2,0.000520706,0.000686646,0.011735916,0,
00:03.2,0.000486374,0.000646591,0.011753082,0,
00:03.2,0.000497818,0.000635147,0.011735916,0,
00:03.2,0.000526428,0.000692368,0.01171875,0,
00:03.2,0.000526428,0.00069809,0.011724472,0,
00:03.2,0.000514984,0.000680923,0.011730194,0,
00:03.2,0.000509262,0.000675201,0.011707306,0,
00:03.2,0.000514984,0.000669479,0.011695862,0,
00:03.2,0.000549316,0.000738144,0.011701584,0,
00:03.2,0.00053215,0.0007267,0.011713028,0,
00:03.2,0.000509262,0.000640869,0.011724472,0,
00:03.3,0.000537872,0.00069809,0.011695862,0,
00:03.3,0.000543594,0.000715256,0.01171875,0,
00:03.3,0.000549316,0.0007267,0.011684418,0,
00:03.3,0.000520706,0.000703812,0.01171875,0,
00:03.3,0.000537872,0.000709534,0.01171875,0,
00:03.3,0.000486374,0.000623703,0.011695862,0,
00:03.3,0.000492096,0.000658035,0.011707306,0,
00:03.3,0.000537872,0.000732422,0.011701584,0,
00:03.3,0.000526428,0.000692368,0.011707306,0,
00:03.3,0.000514984,0.000669479,0.011695862,0,
00:03.3,0.000509262,0.000680923,0.011684418,0,
00:03.3,0.000509262,0.000658035,0.011713028,0,
00:03.3,0.000555038,0.000743866,0.01169014,0,
00:03.3,0.000600815,0.000846863,0.011672974,0,
00:03.3,0.000486374,0.000629425,0.011684418,0,
00:03.3,0.000492096,0.000646591,0.011684418,0,
00:03.3,0.000509262,0.000675201,0.011701584,0,
00:03.3,0.000526428,0.000738144,0.011667252,0,
00:03.3,0.000537872,0.000715256,0.011695862,0,
00:03.3,0.00050354,0.000635147,0.011713028,0,
00:03.3,0.000497818,0.000663757,0.011695862,0,
00:03.3,0.000520706,0.000686646,0.01166153,0,
00:03.3,0.000509262,0.000680923,0.011684418,0,
00:03.3,0.000537872,0.000715256,0.011684418,0,
00:03.3,0.000549316,0.000732422,0.011678696,0,
00:03.4,0.000486374,0.000680923,0.01169014,0,
00:03.4,0.000543594,0.000772476,0.011650085,0,
00:03.4,0.000509262,0.000663757,0.011667252,0,
00:03.4,0.000520706,0.000675201,0.011672974,0,
00:03.4,0.000537872,0.000732422,0.01166153,0,
00:03.4,0.000549316,0.000761032,0.011678696,0,
00:03.4,0.000492096,0.000663757,0.011678696,0,
00:03.4,0.000480652,0.000629425,0.011678696,0,
00:03.4,0.000514984,0.000680923,0.011672974,0,
00:03.4,0.000543594,0.000761032,0.011667252,0,
00:03.4,0.000520706,0.000709534,0.011667252,0,
00:03.4,0.000492096,0.000646591,0.01166153,0,
00:03.4,0.000514984,0.000686646,0.011632919,0,
00:03.4,0.00053215,0.000732422,0.01166153,0,
00:03.4,0.000537872,0.000720978,0.011650085,0,
00:03.4,0.00050354,0.000703812,0.011650085,0,
00:03.4,0.000492096,0.000652313,0.011667252,0,
00:03.4,0.00050354,0.000692368,0.011655807,0,
00:03.4,0.00050354,0.000686646,0.011667252,0,
00:03.4,0.00050354,0.000680923,0.011650085,0,
00:03.4,0.000526428,0.000720978,0.011644363,0,
00:03.4,0.000549316,0.000772476,0.011627197,0,
00:03.4,0.000509262,0.000669479,0.011644363,0,
00:03.4,0.00050354,0.000675201,0.011655807,0,
00:03.4,0.000526428,0.000680923,0.011621475,0,
00:03.5,0.000509262,0.000703812,0.011632919,0,
00:03.5,0.000509262,0.000709534,0.011621475,0,
00:03.5,0.00050354,0.000663757,0.011621475,0,
00:03.5,0.000526428,0.000703812,0.011644363,0,
00:03.5,0.000526428,0.000692368,0.011627197,0,
00:03.5,0.000497818,0.000652313,0.011644363,0,
00:03.5,0.000514984,0.000669479,0.011632919,0,
00:03.5,0.000514984,0.000743866,0.011638641,0,
00:03.5,0.000514984,0.0007267,0.011615753,0,
00:03.5,0.000520706,0.000715256,0.011632919,0,
00:03.5,0.000509262,0.000675201,0.011627197,0,
00:03.5,0.000514984,0.000675201,0.011598587,0,
00:03.5,0.000480652,0.000675201,0.011615753,0,
00:03.5,0.000486374,0.000669479,0.011650085,0,
00:03.5,0.00050354,0.000686646,0.011627197,0,
00:03.5,0.000537872,0.000720978,0.011592865,0,
00:03.5,0.000543594,0.000715256,0.011587143,0,
00:03.5,0.00047493,0.000686646,0.011604309,0,
00:03.5,0.000480652,0.000692368,0.011632919,0,
00:03.5,0.00050354,0.000658035,0.011615753,0,
00:03.5,0.00050354,0.000686646,0.011587143,0,
00:03.5,0.000543594,0.000761032,0.011587143,0,
00:03.5,0.00053215,0.000692368,0.011604309,0,
00:03.5,0.000486374,0.000652313,0.011615753,0,
00:03.5,0.000509262,0.000692368,0.011615753,0,
00:03.6,0.000537872,0.000732422,0.011610031,0,
00:03.6,0.000486374,0.000686646,0.011592865,0,
00:03.6,0.000509262,0.000680923,0.011581421,0,
00:03.6,0.00053215,0.000680923,0.011598587,0,
00:03.6,0.000463486,0.000635147,0.011615753,0,
00:03.6,0.000480652,0.000652313,0.011604309,0,
00:03.6,0.00050354,0.000680923,0.011610031,0,
00:03.6,0.000492096,0.000669479,0.011581421,0,
00:03.6,0.000509262,0.000703812,0.011592865,0,
00:03.6,0.000537872,0.000749588,0.011581421,0,
00:03.6,0.000509262,0.000680923,0.011575699,0,
00:03.6,0.000492096,0.000680923,0.011627197,0,
00:03.6,0.00050354,0.0007267,0.011581421,0,
00:03.6,0.000526428,0.000680923,0.011581421,0,
00:03.6,0.000492096,0.000652313,0.011615753,0,
00:03.6,0.00047493,0.000669479,0.011604309,0,
00:03.6,0.000463486,0.000658035,0.011564255,0,
00:03.6,0.000480652,0.000629425,0.011587143,0,
00:03.6,0.000520706,0.000658035,0.011627197,0,
00:03.6,0.000514984,0.000675201,0.011621475,0,
00:03.6,0.000469208,0.000692368,0.011615753,0,
00:03.6,0.000469208,0.000658035,0.011604309,0,
00:03.6,0.00047493,0.000675201,0.011598587,0,
00:03.6,0.000469208,0.000703812,0.011598587,0,
00:03.6,0.000509262,0.000640869,0.011575699,0,
00:03.7,0.000537872,0.000680923,0.011575699,0,
00:03.7,0.000514984,0.000669479,0.011587143,0,
00:03.7,0.000537872,0.000715256,0.011569977,0,
00:03.7,0.000526428,0.000709534,0.011575699,0,
00:03.7,0.000480652,0.000629425,0.011615753,0,
00:03.7,0.000486374,0.000629425,0.011610031,0,
00:03.7,0.000509262,0.000646591,0.011587143,0,
00:03.7,0.000543594,0.000686646,0.011587143,0,
00:03.7,0.000492096,0.000640869,0.011621475,0,
00:03.7,0.000497818,0.000686646,0.011615753,0,
00:03.7,0.000480652,0.000629425,0.011615753,0,
00:03.7,0.00050354,0.000663757,0.011621475,0,
00:03.7,0.000520706,0.000715256,0.011592865,0,
00:03.7,0.000497818,0.000640869,0.011615753,0,
00:03.7,0.000526428,0.000652313,0.011632919,0,
00:03.7,0.000486374,0.000635147,0.011627197,0,
00:03.7,0.000492096,0.000640869,0.011644363,0,
00:03.7,0.000497818,0.000612259,0.011632919,0,
00:03.7,0.000497818,0.000617981,0.011644363,0,
00:03.7,0.000509262,0.000652313,0.011638641,0,
00:03.7,0.000520706,0.000663757,0.011644363,0,
00:03.7,0.00050354,0.000640869,0.011650085,0,
00:03.7,0.000520706,0.000663757,0.011615753,0,
00:03.7,0.00050354,0.000629425,0.011655807,0,
00:03.7,0.000497818,0.000623703,0.011672974,0,
00:03.8,0.000514984,0.000640869,0.011655807,0,
00:03.8,0.00053215,0.000663757,0.011650085,0,
00:03.8,0.000566483,0.000715256,0.011678696,0,
00:03.8,0.000480652,0.000583649,0.011667252,0,
00:03.8,0.000463486,0.000543594,0.01169014,0,
00:03.8,0.000497818,0.000577927,0.011701584,0,
00:03.8,0.000520706,0.000640869,0.01169014,0,
00:03.8,0.00053215,0.000675201,0.011667252,0,
00:03.8,0.000543594,0.000669479,0.011695862,0,
00:03.8,0.000514984,0.000606537,0.011701584,0,
00:03.8,0.000486374,0.000612259,0.01171875,0,
00:03.8,0.000514984,0.000600815,0.01171875,0,
00:03.8,0.000526428,0.000606537,0.011724472,0,
00:03.8,0.00053215,0.000612259,0.011724472,0,
00:03.8,0.000520706,0.000600815,0.011713028,0,
00:03.8,0.000537872,0.000623703,0.011701584,0,
00:03.8,0.000497818,0.000589371,0.011724472,0,
00:03.8,0.000514984,0.000577927,0.011758804,0,
00:03.8,0.000520706,0.000595093,0.011758804,0,
00:03.8,0.000520706,0.000623703,0.011764526,0,
00:03.8,0.000520706,0.000589371,0.011770248,0,
00:03.8,0.00053215,0.000572205,0.011770248,0,
00:03.8,0.00056076,0.000617981,0.011753082,0,
00:03.8,0.000549316,0.000629425,0.011770248,0,
00:03.8,0.000520706,0.000583649,0.011781693,0,
00:03.9,0.00050354,0.000543594,0.011798859,0,
00:03.9,0.000520706,0.000566483,0.011793137,0,
00:03.9,0.000537872,0.000572205,0.011787415,0,
00:03.9,0.000600815,0.000663757,0.011787415,0,
00:03.9,0.000566483,0.000617981,0.011787415,0,
00:03.9,0.000486374,0.000509262,0.011844635,0,
00:03.9,0.000514984,0.000606537,0.011821747,0,
00:03.9,0.00053215,0.000583649,0.011816025,0,
00:03.9,0.000566483,0.000577927,0.011810303,0,
00:03.9,0.000555038,0.000566483,0.011838913,0,
00:03.9,0.000549316,0.000600815,0.011844635,0,
00:03.9,0.000537872,0.00056076,0.011890411,0,
00:03.9,0.00056076,0.000549316,0.011867523,0,
00:03.9,0.000589371,0.000600815,0.011867523,0,
00:03.9,0.000543594,0.000549316,0.011878967,0,
00:03.9,0.000520706,0.00050354,0.011901855,0,
00:03.9,0.000555038,0.000566483,0.011896133,0,
00:03.9,0.000595093,0.000629425,0.011890411,0,
00:03.9,0.00056076,0.00053215,0.011896133,0,
00:03.9,0.000549316,0.000492096,0.0119133,0,
00:03.9,0.000555038,0.00053215,0.011924744,0,
00:03.9,0.00056076,0.000537872,0.011924744,0,
00:03.9,0.000583649,0.000549316,0.011947632,0,
00:03.9,0.000612259,0.000583649,0.011924744,0,
00:03.9,0.00056076,0.000537872,0.011930466,0,
00:04.0,0.000549316,0.000486374,0.011976242,0,
00:04.0,0.000555038,0.000509262,0.011981964,0,
00:04.0,0.000589371,0.000555038,0.011959076,0,
00:04.0,0.000595093,0.000549316,0.011981964,0,
00:04.0,0.000577927,0.000526428,0.011987686,0,
00:04.0,0.000577927,0.000549316,0.011993408,0,
00:04.0,0.000566483,0.000509262,0.011981964,0,
00:04.0,0.000623703,0.00050354,0.012004852,0,
00:04.0,0.000629425,0.000555038,0.012022018,0,
00:04.0,0.000566483,0.000514984,0.012056351,0,
00:04.0,0.000583649,0.000480652,0.012050629,0,
00:04.0,0.000617981,0.000509262,0.012039185,0,
00:00:04,0.000595093,0.000492096,0.012050629,0,
00:04.0,0.000629425,0.000543594,0.012050629,0,
00:04.0,0.000635147,0.000549316,0.012062073,0,
00:04.0,0.000566483,0.00044632,0.012084961,0,
00:04.0,0.000589371,0.000486374,0.012090683,0,
00:04.0,0.000623703,0.00053215,0.012073517,0,
00:04.0,0.000617981,0.000492096,0.012096405,0,
00:04.0,0.000640869,0.00050354,0.012096405,0,
00:04.0,0.000640869,0.00050354,0.012113571,0,
00:04.0,0.000589371,0.000463486,0.012147903,0,
00:04.0,0.000606537,0.000486374,0.012136459,0,
00:04.0,0.000617981,0.00047493,0.012136459,0,
00:04.0,0.000623703,0.000480652,0.01216507,0,
00:04.1,0.000646591,0.00050354,0.012170792,0,
00:04.1,0.000629425,0.000457764,0.012170792,0,
00:04.1,0.000635147,0.000526428,0.012170792,0,
00:04.1,0.000623703,0.000452042,0.012187958,0,
00:04.1,0.000623703,0.00044632,0.01219368,0,
00:04.1,0.000640869,0.000469208,0.012228012,0,
00:04.1,0.000646591,0.000463486,0.012216568,0,
00:04.1,0.000680923,0.000555038,0.012216568,0,
00:04.1,0.000680923,0.000520706,0.012205124,0,
00:04.1,0.000600815,0.000394821,0.012268066,0,
00:04.1,0.000617981,0.000411987,0.012256622,0,
00:04.1,0.000646591,0.000440598,0.012245178,0,
00:04.1,0.000663757,0.00044632,0.012262344,0,
00:04.1,0.000680923,0.000509262,0.012256622,0,
00:04.1,0.000652313,0.000486374,0.012268066,0,
00:04.1,0.000629425,0.000394821,0.012273788,0,
00:04.1,0.000646591,0.000417709,0.012296677,0,
00:04.1,0.000663757,0.000440598,0.012302399,0,
00:04.1,0.000692368,0.00047493,0.012302399,0,
00:04.1,0.000675201,0.000457764,0.012313843,0,
00:04.1,0.000629425,0.000400543,0.012336731,0,
00:04.1,0.000680923,0.000434875,0.012342453,0,
00:04.1,0.000663757,0.000440598,0.012359619,0,
00:04.1,0.000686646,0.000463486,0.012353897,0,
00:04.1,0.000652313,0.000389099,0.012359619,0,
00:04.2,0.000658035,0.000394821,0.012359619,0,
00:04.2,0.000675201,0.000394821,0.012365341,0,
00:04.2,0.00069809,0.00044632,0.012371063,0,
00:04.2,0.000658035,0.000377655,0.012382507,0,
00:04.2,0.000669479,0.000383377,0.012399673,0,
00:04.2,0.000680923,0.000406265,0.012388229,0,
00:04.2,0.000703812,0.000429153,0.012382507,0,
00:04.2,0.000703812,0.000417709,0.012399673,0,
00:04.2,0.000686646,0.000411987,0.01241684,0,
00:04.2,0.000715256,0.000434875,0.012451172,0,
00:04.2,0.000703812,0.000394821,0.012456894,0,
00:04.2,0.00069809,0.000383377,0.012422562,0,
00:04.2,0.000686646,0.000354767,0.01244545,0,
00:04.2,0.000715256,0.000411987,0.012456894,0,
00:04.2,0.000720978,0.000434875,0.012468338,0,
00:04.2,0.000675201,0.000366211,0.01247406,0,
00:04.2,0.00069809,0.000366211,0.012462616,0,
00:04.2,0.000715256,0.000406265,0.012496948,0,
00:04.2,0.000738144,0.000389099,0.012491226,0,
00:04.2,0.000686646,0.000366211,0.012519836,0,
00:04.2,0.00069809,0.000337601,0.012514114,0,
00:04.2,0.000720978,0.000371933,0.012496948,0,
00:04.2,0.0007267,0.000383377,0.012508392,0,
00:04.2,0.000715256,0.000360489,0.012525558,0,
00:04.2,0.000743866,0.000394821,0.012525558,0,
00:04.3,0.000709534,0.000331879,0.012531281,0,
00:04.3,0.000732422,0.000354767,0.012554169,0,
00:04.3,0.0007267,0.000354767,0.012554169,0,
00:04.3,0.00075531,0.000371933,0.012554169,0,
00:04.3,0.00075531,0.000383377,0.012577057,0,
00:04.3,0.000703812,0.000320435,0.012554169,0,
00:04.3,0.000720978,0.000349045,0.012571335,0,
00:04.3,0.000732422,0.000349045,0.012594223,0,
00:04.3,0.000772476,0.000400543,0.012577057,0,
00:04.3,0.000749588,0.000360489,0.012588501,0,
00:04.3,0.000749588,0.000360489,0.012599945,0,
00:04.3,0.000766754,0.000354767,0.012594223,0,
00:04.3,0.00075531,0.000383377,0.012628555,0,
00:04.3,0.00075531,0.000337601,0.012622833,0,
00:04.3,0.000732422,0.00028038,0.012628555,0,
00:04.3,0.000749588,0.000326157,0.012611389,0,
00:04.3,0.00078392,0.000371933,0.012651443,0,
00:04.3,0.000749588,0.00030899,0.012645721,0,
00:04.3,0.000766754,0.000326157,0.012634277,0,
00:04.3,0.000772476,0.000354767,0.012662888,0,
00:04.3,0.00078392,0.000360489,0.012662888,0,
00:04.3,0.00078392,0.000394821,0.012657166,0,
00:04.3,0.00075531,0.000337601,0.012657166,0,
00:04.3,0.000761032,0.000268936,0.012685776,0,
00:04.3,0.00078392,0.000314713,0.012685776,0,
00:04.4,0.000772476,0.000291824,0.012691498,0,
00:04.4,0.000778198,0.00030899,0.012674332,0,
00:04.4,0.000801086,0.000326157,0.012685776,0,
00:04.4,0.000806808,0.00030899,0.012685776,0,
00:04.4,0.000772476,0.000291824,0.012708664,0,
00:04.4,0.000789642,0.000314713,0.012737274,0,
00:04.4,0.000801086,0.000314713,0.012720108,0,
00:04.4,0.000812531,0.000297546,0.012714386,0,
00:04.4,0.000795364,0.000291824,0.012720108,0,
00:04.4,0.000795364,0.000320435,0.012731552,0,
00:04.4,0.000801086,0.000320435,0.012748718,0,
00:04.4,0.000812531,0.000297546,0.012737274,0,
00:04.4,0.000818253,0.000263214,0.01272583,0,
00:04.4,0.000835419,0.000337601,0.012731552,0,
00:04.4,0.000801086,0.000314713,0.012771606,0,
00:04.4,0.000823975,0.000291824,0.012777328,0,
00:04.4,0.000835419,0.000268936,0.012765884,0,
00:04.4,0.000841141,0.00030899,0.012771606,0,
00:04.4,0.000818253,0.000291824,0.012783051,0,
00:04.4,0.000778198,0.000228882,0.012805939,0,
00:04.4,0.000818253,0.000268936,0.012788773,0,
00:04.4,0.000841141,0.000286102,0.012765884,0,
00:04.4,0.000846863,0.000297546,0.012794495,0,
00:04.4,0.000818253,0.000274658,0.012788773,0,
00:04.4,0.000835419,0.000291824,0.012788773,0,
00:04.5,0.000818253,0.000257492,0.012805939,0,
00:04.5,0.000841141,0.000303268,0.012805939,0,
00:04.5,0.000852585,0.000257492,0.012794495,0,
00:04.5,0.000841141,0.000240326,0.012805939,0,
00:04.5,0.000829697,0.000240326,0.012817383,0,
00:04.5,0.000881195,0.000297546,0.012805939,0,
00:04.5,0.000904083,0.000331879,0.012788773,0,
00:04.5,0.000801086,0.000200272,0.012823105,0,
00:04.5,0.000818253,0.000228882,0.012840271,0,
00:04.5,0.000846863,0.000274658,0.012817383,0,
00:04.5,0.000852585,0.00028038,0.012817383,0,
00:04.5,0.000864029,0.000286102,0.012828827,0,
00:04.5,0.000852585,0.000228882,0.012823105,0,
00:04.5,0.000875473,0.000257492,0.012834549,0,
00:04.5,0.000846863,0.000257492,0.012851715,0,
00:04.5,0.000858307,0.000246048,0.012857437,0,
00:04.5,0.000886917,0.000268936,0.012840271,0,
00:04.5,0.000875473,0.000263214,0.012840271,0,
00:04.5,0.000852585,0.000246048,0.012845993,0,
00:04.5,0.000823975,0.000188828,0.012840271,0,
00:04.5,0.000852585,0.000217438,0.012857437,0,
00:04.5,0.000898361,0.00028038,0.012834549,0,
00:04.5,0.000892639,0.000286102,0.012811661,0,
00:04.5,0.000869751,0.000240326,0.012868881,0,
00:04.5,0.000846863,0.000188828,0.012857437,0,
00:04.6,0.000864029,0.000228882,0.012868881,0,
00:04.6,0.000886917,0.000257492,0.012851715,0,
00:04.6,0.000909805,0.000291824,0.012845993,0,
00:04.6,0.000915527,0.000286102,0.012880325,0,
00:04.6,0.000829697,0.000177383,0.012880325,0,
00:04.6,0.000858307,0.000205994,0.012863159,0,
00:04.6,0.000864029,0.000217438,0.012863159,0,
00:04.6,0.000864029,0.000205994,0.012863159,0,
00:04.6,0.000886917,0.000234604,0.012863159,0,
00:04.6,0.000915527,0.000263214,0.012880325,0,
00:04.6,0.000881195,0.000211716,0.012874603,0,
00:04.6,0.000864029,0.00019455,0.012868881,0,
00:04.6,0.000869751,0.000200272,0.012880325,0,
00:04.6,0.000898361,0.000240326,0.012880325,0,
00:04.6,0.000915527,0.000257492,0.012891769,0,
00:04.6,0.000938416,0.000268936,0.012863159,0,
00:04.6,0.000886917,0.000240326,0.012868881,0,
00:04.6,0.000858307,0.000183105,0.012908936,0,
00:04.6,0.000875473,0.000188828,0.012903214,0,
00:04.6,0.000904083,0.00022316,0.012891769,0,
00:04.6,0.000938416,0.000286102,0.012874603,0,
00:04.6,0.000898361,0.000228882,0.012863159,0,
00:04.6,0.000915527,0.000246048,0.012886047,0,
00:04.6,0.000892639,0.000200272,0.012903214,0,
00:04.6,0.000858307,0.000143051,0.012914658,0,
00:04.7,0.000909805,0.000205994,0.012903214,0,
00:04.7,0.000938416,0.000268936,0.012863159,0,
00:04.7,0.000886917,0.000205994,0.012880325,0,
00:04.7,0.000932693,0.000268936,0.012891769,0,
00:04.7,0.000892639,0.000205994,0.012903214,0,
00:04.7,0.000904083,0.000177383,0.012908936,0,
00:04.7,0.000892639,0.000205994,0.012891769,0,
00:04.7,0.000909805,0.00019455,0.012897491,0,
00:04.7,0.000886917,0.000171661,0.012914658,0,
00:04.7,0.000898361,0.00019455,0.012908936,0,
00:04.7,0.000904083,0.000211716,0.012886047,0,
00:04.7,0.000892639,0.000188828,0.012897491,0,
00:04.7,0.000904083,0.000200272,0.012903214,0,
00:04.7,0.000921249,0.000205994,0.012886047,0,
00:04.7,0.000921249,0.000188828,0.012897491,0,
00:04.7,0.000926971,0.000205994,0.012903214,0,
00:04.7,0.000904083,0.000211716,0.012908936,0,
00:04.7,0.000898361,0.000188828,0.012908936,0,
00:04.7,0.000932693,0.000217438,0.012908936,0,
00:04.7,0.000944138,0.000200272,0.012897491,0,
00:04.7,0.000915527,0.000200272,0.012914658,0,
00:04.7,0.00094986,0.000268936,0.012891769,0,
00:04.7,0.000938416,0.000268936,0.012857437,0,
00:04.7,0.000852585,9.73E-05,0.012914658,0,
00:04.7,0.000886917,0.000120163,0.01292038,0,
00:04.8,0.000915527,0.000188828,0.012931824,0,
00:04.8,0.000921249,0.000183105,0.01292038,0,
00:04.8,0.000904083,0.000154495,0.012914658,0,
00:04.8,0.000915527,0.000177383,0.012914658,0,
00:04.8,0.000921249,0.000177383,0.012897491,0,
00:04.8,0.000915527,0.000188828,0.01292038,0,
00:04.8,0.000921249,0.00019455,0.012914658,0,
00:04.8,0.000932693,0.000183105,0.012908936,0,
00:04.8,0.000921249,0.000188828,0.012903214,0,
00:04.8,0.000926971,0.000183105,0.012903214,0,
00:04.8,0.000926971,0.000165939,0.012903214,0,
00:04.8,0.000932693,0.000165939,0.012908936,0,
00:04.8,0.000921249,0.000160217,0.012914658,0,
00:04.8,0.000938416,0.000217438,0.012908936,0,
00:04.8,0.000961304,0.000228882,0.012908936,0,
00:04.8,0.000915527,0.000137329,0.012926102,0,
00:04.8,0.000926971,0.000148773,0.012914658,0,
00:04.8,0.000955582,0.000188828,0.012908936,0,
00:04.8,0.000967026,0.000211716,0.012926102,0,
00:04.8,0.000961304,0.000200272,0.012914658,0,
00:04.8,0.000915527,0.000143051,0.012908936,0,
00:04.8,0.00094986,0.000200272,0.012897491,0,
00:04.8,0.000961304,0.000183105,0.012891769,0,
00:04.8,0.00094986,0.000177383,0.012891769,0,
00:04.8,0.000926971,0.000148773,0.012914658,0,
00:04.9,0.000926971,0.000154495,0.012926102,0,
00:04.9,0.000961304,0.000183105,0.012931824,0,
00:04.9,0.000955582,0.000183105,0.012926102,0,
00:04.9,0.000961304,0.000217438,0.012914658,0,
00:04.9,0.000938416,0.000148773,0.012914658,0,
00:04.9,0.000926971,0.000125885,0.012914658,0,
00:04.9,0.00094986,0.000154495,0.012903214,0,
00:04.9,0.000967026,0.000188828,0.012891769,0,
00:04.9,0.000984192,0.000188828,0.012903214,0,
00:04.9,0.000944138,0.000131607,0.012937546,0,
00:04.9,0.000938416,0.000154495,0.012908936,0,
00:04.9,0.00094986,0.000143051,0.012914658,0,
00:04.9,0.000926971,0.000120163,0.012914658,0,
00:04.9,0.000961304,0.000177383,0.012914658,0,
00:04.9,0.001012802,0.000240326,0.012908936,0,
00:04.9,0.000989914,0.000240326,0.012886047,0,
00:04.9,0.000921249,0.000108719,0.01292038,0,
00:04.9,0.000944138,0.000120163,0.01292038,0,
00:04.9,0.00094986,0.000125885,0.012937546,0,
00:04.9,0.000984192,0.000171661,0.012914658,0,
00:04.9,0.001001358,0.000211716,0.012903214,0,
00:04.9,0.000938416,0.000102997,0.012903214,0,
00:04.9,0.00094986,0.000120163,0.012937546,0,
00:04.9,0.000995636,0.000188828,0.012908936,0,
00:04.9,0.00094986,0.000148773,0.012903214,0,
00:05.0,0.000955582,0.000154495,0.012914658,0,
00:05.0,0.000984192,0.000183105,0.012891769,0,
00:05.0,0.000938416,0.000102997,0.012903214,0,
00:05.0,0.000955582,0.000137329,0.012897491,0,
00:05.0,0.000955582,0.000131607,0.012903214,0,
00:05.0,0.000961304,0.000114441,0.012931824,0,
00:05.0,0.000989914,0.000154495,0.012903214,0,
00:05.0,0.00100708,0.000211716,0.012891769,0,
00:05.0,0.00094986,0.000120163,0.012903214,0,
00:05.0,0.000944138,0.000102997,0.01292038,0,
00:05.0,0.000961304,0.000131607,0.01292038,0,
00:05.0,0.00100708,0.000177383,0.012886047,0,
00:00:05,0.00094986,0.000114441,0.012903214,0,
00:05.0,0.000938416,0.000108719,0.01292038,0,
00:05.0,0.000967026,0.000125885,0.012903214,0,
00:05.0,0.000967026,0.000120163,0.012903214,0,
00:05.0,0.000967026,0.000108719,0.012903214,0,
00:05.0,0.00097847,0.000137329,0.012886047,0,
00:05.0,0.000972748,0.000114441,0.012891769,0,
00:05.0,0.000984192,0.000120163,0.012897491,0,
00:05.0,0.000995636,0.000125885,0.012886047,0,
00:05.0,0.000967026,0.000131607,0.012863159,0,
00:05.0,0.000961304,0.000120163,0.012897491,0,
00:05.0,0.00097847,0.000120163,0.012908936,0,
00:05.0,0.000995636,0.000148773,0.012897491,0,
00:05.1,0.000967026,8.58E-05,0.012886047,0,
00:05.1,0.00097847,0.000114441,0.012891769,0,
00:05.1,0.00097847,0.000114441,0.012903214,0,
00:05.1,0.000961304,9.73E-05,0.012914658,0,
00:05.1,0.00097847,0.000131607,0.012897491,0,
00:05.1,0.000995636,0.000160217,0.012886047,0,
00:05.1,0.00097847,0.000102997,0.012886047,0,
00:05.1,0.000972748,0.000102997,0.012880325,0,
00:05.1,0.000984192,0.000148773,0.012880325,0,
00:05.1,0.000967026,0.000137329,0.012891769,0,
00:05.1,0.000967026,9.16E-05,0.012897491,0,
00:05.1,0.000989914,0.000114441,0.012886047,0,
00:05.1,0.001012802,0.000183105,0.012863159,0,
00:05.1,0.000984192,0.000165939,0.012845993,0,
00:05.1,0.000961304,6.29E-05,0.012891769,0,
00:05.1,0.00097847,8.58E-05,0.012886047,0,
00:05.1,0.000995636,0.000114441,0.012863159,0,
00:05.1,0.000995636,0.000114441,0.012863159,0,
00:05.1,0.000961304,8.58E-05,0.012891769,0,
00:05.1,0.000972748,0.000102997,0.012897491,0,
00:05.1,0.000989914,0.000102997,0.012880325,0,
00:05.1,0.00100708,0.000131607,0.012857437,0,
00:05.1,0.001001358,0.000131607,0.012868881,0,
00:05.1,0.00100708,0.000160217,0.012874603,0,
00:05.1,0.000972748,0.000114441,0.012863159,0,
00:05.2,0.00094986,4.58E-05,0.012880325,0,
00:05.2,0.000989914,0.000114441,0.012868881,0,
00:05.2,0.001001358,0.000148773,0.012868881,0,
00:05.2,0.000989914,0.000120163,0.012857437,0,
00:05.2,0.000995636,0.000108719,0.012840271,0,
00:05.2,0.00097847,0.000120163,0.012863159,0,
00:05.2,0.000995636,0.000131607,0.012857437,0,
00:05.2,0.000984192,8.58E-05,0.012868881,0,
00:05.2,0.000984192,0.000114441,0.012851715,0,
00:05.2,0.000989914,0.000137329,0.012863159,0,
00:05.2,0.000989914,0.000102997,0.012851715,0,
00:05.2,0.00097847,5.72E-05,0.012845993,0,
00:05.2,0.00097847,8.58E-05,0.012845993,0,
00:05.2,0.000995636,0.000114441,0.012851715,0,
00:05.2,0.000995636,0.000108719,0.012840271,0,
00:05.2,0.001012802,0.000131607,0.012857437,0,
00:05.2,0.000995636,0.000120163,0.012828827,0,
00:05.2,0.000995636,0.000102997,0.012834549,0,
00:05.2,0.000995636,9.16E-05,0.012851715,0,
00:05.2,0.001001358,0.000108719,0.012851715,0,
00:05.2,0.00097847,0.000125885,0.012851715,0,
00:05.2,0.000972748,9.16E-05,0.012834549,0,
00:05.2,0.000989914,0.000102997,0.012811661,0,
00:05.2,0.000995636,0.000108719,0.012823105,0,
00:05.2,0.000989914,0.000108719,0.012851715,0,
00:05.3,0.000995636,0.000137329,0.012840271,0,
00:05.3,0.001018524,0.000120163,0.012811661,0,
00:05.3,0.001001358,0.000102997,0.012828827,0,
00:05.3,0.000967026,7.44E-05,0.012834549,0,
00:05.3,0.000967026,6.87E-05,0.012840271,0,
00:05.3,0.000972748,8.58E-05,0.012840271,0,
00:05.3,0.000984192,0.000114441,0.012817383,0,
00:05.3,0.000995636,9.73E-05,0.012811661,0,
00:05.3,0.001024246,0.000114441,0.012800217,0,
00:05.3,0.000967026,0.000102997,0.012817383,0,
00:05.3,0.000967026,8.01E-05,0.012823105,0,
00:05.3,0.000972748,6.87E-05,0.012805939,0,
00:05.3,0.00097847,8.58E-05,0.012800217,0,
00:05.3,0.000989914,0.000102997,0.012788773,0,
00:05.3,0.001012802,0.000137329,0.012771606,0,
00:05.3,0.000984192,9.73E-05,0.012817383,0,
00:05.3,0.000995636,0.000108719,0.012794495,0,
00:05.3,0.00097847,8.58E-05,0.012788773,0,
00:05.3,0.00097847,7.44E-05,0.012805939,0,
00:05.3,0.00097847,0.000114441,0.012788773,0,
00:05.3,0.000984192,9.73E-05,0.012777328,0,
00:05.3,0.000984192,0.000131607,0.01275444,0,
00:05.3,0.00097847,6.87E-05,0.012811661,0,
00:05.3,0.00100708,0.000125885,0.012788773,0,
00:05.3,0.00097847,8.58E-05,0.012788773,0,
00:05.4,0.001001358,0.000108719,0.012783051,0,
00:05.4,0.000984192,0.000131607,0.012742996,0,
00:05.4,0.000989914,8.01E-05,0.012783051,0,
00:05.4,0.000984192,0.000102997,0.012771606,0,
00:05.4,0.000967026,7.44E-05,0.012794495,0,
00:05.4,0.000984192,8.58E-05,0.012788773,0,
00:05.4,0.000967026,9.73E-05,0.012742996,0,
00:05.4,0.000955582,3.43E-05,0.012742996,0,
00:05.4,0.00097847,8.58E-05,0.012777328,0,
00:05.4,0.000984192,0.000102997,0.012771606,0,
00:05.4,0.00097847,8.58E-05,0.01275444,0,
00:05.4,0.000961304,6.29E-05,0.01275444,0,
00:05.4,0.000989914,0.000102997,0.012737274,0,
00:05.4,0.000989914,9.16E-05,0.01275444,0,
00:05.4,0.000967026,9.73E-05,0.012742996,0,
00:05.4,0.000984192,8.58E-05,0.01275444,0,
00:05.4,0.000995636,0.000120163,0.012720108,0,
00:05.4,0.000989914,0.000131607,0.012685776,0,
00:05.4,0.000967026,0.000114441,0.012737274,0,
00:05.4,0.000967026,4.58E-05,0.01275444,0,
00:05.4,0.000932693,2.86E-05,0.012748718,0,
00:05.4,0.000967026,9.16E-05,0.012714386,0,
00:05.4,0.000995636,0.000108719,0.012708664,0,
00:05.4,0.001001358,0.000143051,0.012691498,0,
00:05.4,0.000967026,8.58E-05,0.012714386,0,
00:05.5,0.000926971,2.86E-05,0.012742996,0,
00:05.5,0.000955582,8.58E-05,0.01272583,0,
00:05.5,0.000972748,6.87E-05,0.012714386,0,
00:05.5,0.001012802,0.000160217,0.012685776,0,
00:05.5,0.000972748,6.87E-05,0.012691498,0,
00:05.5,0.000967026,9.16E-05,0.012714386,0,
00:05.5,0.000967026,9.73E-05,0.012708664,0,
00:05.5,0.000972748,9.16E-05,0.01269722,0,
00:05.5,0.000972748,8.01E-05,0.012702942,0,
00:05.5,0.00097847,8.01E-05,0.012702942,0,
00:05.5,0.000926971,4.01E-05,0.012714386,0,
00:05.5,0.000972748,0.000114441,0.012685776,0,
00:05.5,0.00097847,0.000131607,0.012674332,0,
00:05.5,0.000955582,4.58E-05,0.012685776,0,
00:05.5,0.000972748,9.73E-05,0.012685776,0,
00:05.5,0.000961304,0.000114441,0.012685776,0,
00:05.5,0.000961304,4.58E-05,0.012680054,0,
00:05.5,0.00100708,0.000108719,0.012662888,0,
00:05.5,0.000961304,7.44E-05,0.012674332,0,
00:05.5,0.000955582,6.29E-05,0.012674332,0,
00:05.5,0.000972748,9.73E-05,0.012657166,0,
00:05.5,0.001018524,0.000160217,0.012645721,0,
00:05.5,0.000984192,0.000131607,0.012639999,0,
00:05.5,0.000961304,5.15E-05,0.012702942,0,
00:05.5,0.000972748,0.000102997,0.012691498,0,
00:05.6,0.000967026,5.15E-05,0.012674332,0,
00:05.6,0.000989914,9.73E-05,0.012662888,0,
00:05.6,0.000932693,5.15E-05,0.012628555,0,
00:05.6,0.000938416,1.72E-05,0.01266861,0,
00:05.6,0.000972748,7.44E-05,0.012685776,0,
00:05.6,0.00097847,0.000131607,0.012662888,0,
00:05.6,0.000972748,6.29E-05,0.012651443,0,
00:05.6,0.000972748,8.01E-05,0.012639999,0,
00:05.6,0.000972748,8.58E-05,0.012657166,0,
00:05.6,0.00094986,5.72E-05,0.012657166,0,
00:05.6,0.000955582,6.29E-05,0.012628555,0,
00:05.6,0.000967026,6.87E-05,0.012634277,0,
00:05.6,0.000995636,0.000114441,0.012622833,0,
00:05.6,0.00097847,8.58E-05,0.012634277,0,
00:05.6,0.000961304,7.44E-05,0.012657166,0,
00:05.6,0.000972748,8.58E-05,0.012634277,0,
00:05.6,0.000984192,8.58E-05,0.012605667,0,
00:05.6,0.001024246,0.000131607,0.012617111,0,
00:05.6,0.000938416,5.15E-05,0.012599945,0,
00:05.6,0.000961304,4.01E-05,0.012628555,0,
00:05.6,0.000961304,7.44E-05,0.012645721,0,
00:05.6,0.000984192,0.000102997,0.012622833,0,
00:05.6,0.000984192,8.01E-05,0.012622833,0,
00:05.6,0.000984192,8.01E-05,0.012617111,0,
00:05.6,0.000995636,9.16E-05,0.012605667,0,
00:05.7,0.00097847,9.16E-05,0.012611389,0,
00:05.7,0.000932693,2.86E-05,0.012594223,0,
00:05.7,0.000961304,3.43E-05,0.012611389,0,
00:05.7,0.00097847,6.29E-05,0.012617111,0,
00:05.7,0.000972748,0.000102997,0.012599945,0,
00:05.7,0.000984192,0.000108719,0.012599945,0,
00:05.7,0.000984192,9.73E-05,0.012594223,0,
00:05.7,0.000961304,2.86E-05,0.012605667,0,
00:05.7,0.000967026,6.87E-05,0.012622833,0,
00:05.7,0.000955582,5.72E-05,0.012611389,0,
00:05.7,0.000972748,6.87E-05,0.012605667,0,
00:05.7,0.000967026,5.72E-05,0.012599945,0,
00:05.7,0.00097847,6.87E-05,0.012599945,0,
00:05.7,0.000995636,7.44E-05,0.012582779,0,
00:05.7,0.000984192,8.01E-05,0.012588501,0,
00:05.7,0.00097847,5.15E-05,0.012599945,0,
00:05.7,0.000984192,5.72E-05,0.012611389,0,
00:05.7,0.00097847,8.01E-05,0.012594223,0,
00:05.7,0.000989914,7.44E-05,0.012605667,0,
00:05.7,0.000984192,4.01E-05,0.012605667,0,
00:05.7,0.001001358,8.58E-05,0.012617111,0,
00:05.7,0.000984192,5.72E-05,0.012611389,0,
00:05.7,0.000972748,3.43E-05,0.012605667,0,
00:05.7,0.000984192,5.72E-05,0.012599945,0,
00:05.7,0.000989914,6.87E-05,0.012588501,0,
00:05.8,0.001024246,8.58E-05,0.012554169,0,
00:05.8,0.001018524,0.000148773,0.012559891,0,
00:05.8,0.001001358,6.87E-05,0.012588501,0,
00:05.8,0.000984192,5.72E-06,0.012622833,0,
00:05.8,0.000995636,5.72E-06,0.012628555,0,
00:05.8,0.000984192,5.72E-05,0.012628555,0,
00:05.8,0.000961304,1.72E-05,0.012634277,0,
00:05.8,0.000989914,5.72E-05,0.012605667,0,
00:05.8,0.000995636,5.15E-05,0.012617111,0,
00:05.8,0.000995636,5.15E-05,0.012599945,0,
00:05.8,0.001001358,5.72E-05,0.012599945,0,
00:05.8,0.000995636,5.15E-05,0.012599945,0,
00:05.8,0.001001358,5.15E-05,0.012599945,0,
00:05.8,0.000995636,4.58E-05,0.012605667,0,
00:05.8,0.001001358,2.86E-05,0.012599945,0,
00:05.8,0.001001358,1.14E-05,0.012594223,0,
00:05.8,0.001029968,6.29E-05,0.012577057,0,
00:05.8,0.001075745,0.000125885,0.012582779,0,
00:05.8,0.000984192,6.87E-05,0.012588501,0,
00:05.8,0.001001358,5.15E-05,0.012611389,0,
00:05.8,0.001001358,2.86E-05,0.012628555,0,
00:05.8,0.000984192,5.72E-06,0.012657166,0,
00:05.8,0.000995636,2.29E-05,0.012639999,0,
00:05.8,0.00100708,2.29E-05,0.012634277,0,
00:05.8,0.001012802,3.43E-05,0.012628555,0,
00:05.9,0.001012802,3.43E-05,0.012622833,0,
00:05.9,0.001012802,2.29E-05,0.012617111,0,
00:05.9,0.00100708,2.29E-05,0.012622833,0,
00:05.9,0.001001358,1.14E-05,0.012617111,0,
00:05.9,0.001012802,1.72E-05,0.012617111,0,
00:05.9,0.00103569,5.15E-05,0.012617111,0,
00:05.9,0.001115799,0.000160217,0.012599945,0,
00:05.9,0.001001358,2.29E-05,0.012611389,0,
00:05.9,0.001012802,9.73E-05,0.012628555,0,
00:05.9,0.001024246,1.72E-05,0.012662888,0,
00:05.9,0.000995636,-4.01E-05,0.012645721,0,
00:05.9,0.001029968,2.86E-05,0.012662888,0,
00:05.9,0.001029968,3.43E-05,0.012651443,0,
00:05.9,0.00100708,5.72E-06,0.012651443,0,
00:05.9,0.000984192,-1.14E-05,0.01266861,0,
00:05.9,0.001001358,5.72E-06,0.012651443,0,
00:05.9,0.00103569,1.72E-05,0.012622833,0,
00:05.9,0.00103569,2.86E-05,0.012639999,0,
00:05.9,0.00103569,2.29E-05,0.012657166,0,
00:05.9,0.001041412,2.86E-05,0.012662888,0,
00:05.9,0.001064301,5.72E-05,0.012651443,0,
00:05.9,0.001087189,0.000120163,0.012611389,0,
00:05.9,0.001070023,7.44E-05,0.012594223,0,
00:05.9,0.001012802,-2.29E-05,0.012639999,0,
00:05.9,0.001018524,-1.72E-05,0.01269722,0,
00:06.0,0.001081467,4.01E-05,0.012662888,0,
00:06.0,0.00100708,1.14E-05,0.01266861,0,
00:06.0,0.001001358,-1.72E-05,0.012662888,0,
00:06.0,0.001024246,-2.29E-05,0.012674332,0,
00:06.0,0.00103569,-5.72E-06,0.012662888,0,
00:06.0,0.001047134,0,0.012645721,0,
00:06.0,0.001029968,-5.72E-06,0.012645721,0,
00:06.0,0.001029968,-2.86E-05,0.012662888,0,
00:06.0,0.001041412,-5.72E-06,0.01266861,0,
00:06.0,0.001052856,2.29E-05,0.012657166,0,
00:06.0,0.001058578,2.29E-05,0.012657166,0,
00:06.0,0.001075745,3.43E-05,0.012651443,0,
00:00:06,0.001081467,1.72E-05,0.01266861,0,
00:06.0,0.00103569,-1.72E-05,0.012662888,0,
00:06.0,0.001029968,0,0.012657166,0,
00:06.0,0.001041412,-1.14E-05,0.012674332,0,
00:06.0,0.001070023,5.72E-06,0.01266861,0,
00:06.0,0.001087189,4.58E-05,0.012662888,0,
00:06.0,0.001058578,-2.29E-05,0.012674332,0,
00:06.0,0.001052856,-4.01E-05,0.012691498,0,
00:06.0,0.001058578,-2.29E-05,0.012680054,0,
00:06.0,0.001058578,-2.29E-05,0.01266861,0,
00:06.0,0.001070023,1.72E-05,0.012685776,0,
00:06.0,0.001087189,4.01E-05,0.012680054,0,
00:06.0,0.001047134,-2.86E-05,0.012674332,0,
00:06.1,0.001070023,-1.72E-05,0.01266861,0,
00:06.1,0.001058578,-4.01E-05,0.012685776,0,
00:06.1,0.001092911,1.14E-05,0.012708664,0,
00:06.1,0.001070023,0,0.012691498,0,
00:06.1,0.001052856,-4.01E-05,0.012708664,0,
00:06.1,0.001075745,-5.72E-06,0.01269722,0,
00:06.1,0.001047134,-8.01E-05,0.012708664,0,
00:06.1,0.001075745,-2.86E-05,0.012708664,0,
00:06.1,0.001081467,-1.14E-05,0.01269722,0,
00:06.1,0.001081467,-2.29E-05,0.01266861,0,
00:06.1,0.001064301,-5.72E-05,0.012685776,0,
00:06.1,0.001064301,-4.01E-05,0.012685776,0,
00:06.1,0.001070023,-5.72E-05,0.012702942,0,
00:06.1,0.001081467,-2.29E-05,0.012702942,0,
00:06.1,0.001092911,-1.14E-05,0.01269722,0,
00:06.1,0.001121521,4.58E-05,0.012685776,0,
00:06.1,0.001070023,-3.43E-05,0.012702942,0,
00:06.1,0.001092911,-4.58E-05,0.012731552,0,
00:06.1,0.001098633,0,0.012708664,0,
00:06.1,0.001064301,-8.01E-05,0.012714386,0,
00:06.1,0.001070023,-5.15E-05,0.012714386,0,
00:06.1,0.001087189,-6.87E-05,0.012702942,0,
00:06.1,0.001115799,-3.43E-05,0.012708664,0,
00:06.1,0.001110077,-1.72E-05,0.012720108,0,
00:06.1,0.001098633,0,0.012702942,0,
00:06.2,0.001110077,-3.43E-05,0.012720108,0,
00:06.2,0.001058578,-0.000120163,0.012737274,0,
00:06.2,0.001064301,-0.000102997,0.012737274,0,
00:06.2,0.001098633,-5.15E-05,0.012714386,0,
00:06.2,0.001115799,2.29E-05,0.012708664,0,
00:06.2,0.001104355,-5.15E-05,0.012714386,0,
00:06.2,0.001098633,-8.58E-05,0.01272583,0,
00:06.2,0.001110077,-4.58E-05,0.01272583,0,
00:06.2,0.001104355,-7.44E-05,0.012731552,0,
00:06.2,0.001092911,-9.16E-05,0.012714386,0,
00:06.2,0.001104355,-5.15E-05,0.012731552,0,
00:06.2,0.001115799,2.86E-05,0.012720108,0,
00:06.2,0.001121521,0,0.012737274,0,
00:06.2,0.001092911,-0.000114441,0.012742996,0,
00:06.2,0.001104355,-5.72E-05,0.012737274,0,
00:06.2,0.001098633,-9.16E-05,0.012720108,0,
00:06.2,0.001132965,-8.01E-05,0.012731552,0,
00:06.2,0.001127243,-5.72E-05,0.01272583,0,
00:06.2,0.001087189,-9.73E-05,0.01272583,0,
00:06.2,0.001092911,-9.16E-05,0.012771606,0,
00:06.2,0.001127243,-4.58E-05,0.012748718,0,
00:06.2,0.001150131,1.72E-05,0.012748718,0,
00:06.2,0.001104355,-9.16E-05,0.012742996,0,
00:06.2,0.001104355,-6.29E-05,0.01275444,0,
00:06.2,0.001110077,-7.44E-05,0.01275444,0,
00:06.3,0.001110077,-0.000114441,0.012748718,0,
00:06.3,0.001121521,-8.58E-05,0.012748718,0,
00:06.3,0.001115799,-8.58E-05,0.012765884,0,
00:06.3,0.001104355,-0.000114441,0.012760162,0,
00:06.3,0.001144409,-6.87E-05,0.012737274,0,
00:06.3,0.001213074,2.29E-05,0.012714386,0,
00:06.3,0.001138687,-2.86E-05,0.012771606,0,
00:06.3,0.001104355,-8.01E-05,0.012760162,0,
00:06.3,0.001098633,-0.000114441,0.01275444,0,
00:06.3,0.001127243,-8.58E-05,0.012788773,0,
00:06.3,0.001115799,-0.000102997,0.012765884,0,
00:06.3,0.001121521,-0.000108719,0.012771606,0,
00:06.3,0.001127243,-0.000102997,0.012777328,0,
00:06.3,0.001127243,-9.73E-05,0.012777328,0,
00:06.3,0.001127243,-0.000120163,0.012765884,0,
00:06.3,0.001127243,-0.000125885,0.012748718,0,
00:06.3,0.001138687,-8.01E-05,0.01272583,0,
00:06.3,0.001150131,-6.87E-05,0.012731552,0,
00:06.3,0.001155853,-8.58E-05,0.012765884,0,
00:06.3,0.001178741,-5.15E-05,0.012748718,0,
00:06.3,0.001138687,-8.58E-05,0.012805939,0,
00:06.3,0.001115799,-0.000102997,0.012805939,0,
00:06.3,0.001144409,-8.01E-05,0.012805939,0,
00:06.3,0.001155853,-6.29E-05,0.012794495,0,
00:06.3,0.001132965,-0.000143051,0.012788773,0,
00:06.4,0.001144409,-0.000137329,0.012777328,0,
00:06.4,0.001115799,-0.000160217,0.012777328,0,
00:06.4,0.001127243,-0.000120163,0.012783051,0,
00:06.4,0.001155853,-9.16E-05,0.012777328,0,
00:06.4,0.001184464,-3.43E-05,0.012765884,0,
00:06.4,0.001173019,-7.44E-05,0.01275444,0,
00:06.4,0.001138687,-0.000120163,0.012777328,0,
00:06.4,0.001132965,-0.000108719,0.012777328,0,
00:06.4,0.001150131,-9.73E-05,0.012794495,0,
00:06.4,0.001144409,-0.000114441,0.012794495,0,
00:06.4,0.001161575,-0.000102997,0.012783051,0,
00:06.4,0.001195908,-3.43E-05,0.012765884,0,
00:06.4,0.001138687,-0.000131607,0.012777328,0,
00:06.4,0.001155853,-0.000120163,0.012805939,0,
00:06.4,0.001150131,-9.16E-05,0.012788773,0,
00:06.4,0.001161575,-8.58E-05,0.012777328,0,
00:06.4,0.001144409,-0.000154495,0.012794495,0,
00:06.4,0.001155853,-0.000114441,0.012788773,0,
00:06.4,0.001138687,-0.000108719,0.012800217,0,
00:06.4,0.001150131,-0.000125885,0.012788773,0,
00:06.4,0.001161575,-0.000131607,0.012777328,0,
00:06.4,0.001167297,-0.000108719,0.012783051,0,
00:06.4,0.001161575,-0.000102997,0.012783051,0,
00:06.4,0.001155853,-0.000131607,0.012800217,0,
00:06.4,0.001173019,-0.000114441,0.012788773,0,
00:06.5,0.001167297,-0.000102997,0.012783051,0,
00:06.5,0.00125885,-5.72E-06,0.012771606,0,
00:06.5,0.001190186,-6.87E-05,0.012731552,0,
00:06.5,0.001092911,-0.000171661,0.012788773,0,
00:06.5,0.001138687,-0.000160217,0.012817383,0,
00:06.5,0.001161575,-0.000125885,0.012777328,0,
00:06.5,0.001161575,-0.000108719,0.012794495,0,
00:06.5,0.001167297,-0.000137329,0.012811661,0,
00:06.5,0.001167297,-0.000120163,0.012800217,0,
00:06.5,0.001167297,-0.000143051,0.012800217,0,
00:06.5,0.001161575,-0.000148773,0.012800217,0,
00:06.5,0.001190186,-8.01E-05,0.012788773,0,
00:06.5,0.001155853,-0.000131607,0.012794495,0,
00:06.5,0.001161575,-0.000120163,0.012805939,0,
00:06.5,0.001167297,-0.000131607,0.012794495,0,
00:06.5,0.001178741,-0.000120163,0.012788773,0,
00:06.5,0.001184464,-0.000108719,0.012777328,0,
00:06.5,0.001184464,-0.000108719,0.012788773,0,
00:06.5,0.00120163,-9.73E-05,0.012800217,0,
00:06.5,0.001155853,-0.000143051,0.012800217,0,
00:06.5,0.001161575,-0.000165939,0.012783051,0,
00:06.5,0.001167297,-0.000148773,0.012794495,0,
00:06.5,0.001184464,-0.000114441,0.012794495,0,
00:06.5,0.001190186,-0.000114441,0.012783051,0,
00:06.5,0.001178741,-0.000137329,0.012800217,0,
00:06.6,0.001184464,-0.000143051,0.012788773,0,
00:06.6,0.001173019,-0.000148773,0.012800217,0,
00:06.6,0.001173019,-0.000143051,0.012800217,0,
00:06.6,0.001178741,-0.000120163,0.012805939,0,
00:06.6,0.001195908,-0.000102997,0.012788773,0,
00:06.6,0.001190186,-0.000131607,0.012794495,0,
00:06.6,0.001184464,-0.000137329,0.012794495,0,
00:06.6,0.001190186,-0.000125885,0.012788773,0,
00:06.6,0.001190186,-0.000125885,0.012788773,0,
00:06.6,0.001190186,-0.000131607,0.012783051,0,
00:06.6,0.001218796,-0.000143051,0.012788773,0,
00:06.6,0.001218796,-0.000102997,0.012783051,0,
00:06.6,0.001173019,-8.58E-05,0.012788773,0,
00:06.6,0.001184464,-0.000148773,0.012805939,0,
00:06.6,0.001190186,-0.000154495,0.012805939,0,
00:06.6,0.001195908,-0.000148773,0.012800217,0,
00:06.6,0.001190186,-0.000148773,0.012794495,0,
00:06.6,0.001190186,-0.000160217,0.012794495,0,
00:06.6,0.001190186,-0.000160217,0.012788773,0,
00:06.6,0.001224518,-9.73E-05,0.012765884,0,
00:06.6,0.001247406,-5.72E-05,0.01275444,0,
00:06.6,0.00120163,-0.000102997,0.012783051,0,
00:06.6,0.001167297,-0.000177383,0.012794495,0,
00:06.6,0.001184464,-0.000165939,0.012794495,0,
00:06.6,0.001195908,-0.000154495,0.012800217,0,
00:06.7,0.001195908,-0.000160217,0.012794495,0,
00:06.7,0.001195908,-0.000165939,0.012783051,0,
00:06.7,0.001195908,-0.000154495,0.012788773,0,
00:06.7,0.001218796,-0.000137329,0.012783051,0,
00:06.7,0.001235962,-9.73E-05,0.012760162,0,
00:06.7,0.001224518,-0.000137329,0.012720108,0,
00:06.7,0.001213074,-0.000148773,0.01275444,0,
00:06.7,0.001218796,-0.000154495,0.012771606,0,
00:06.7,0.001195908,-0.000177383,0.012811661,0,
00:06.7,0.001195908,-0.000160217,0.012800217,0,
00:06.7,0.001213074,-0.000143051,0.012777328,0,
00:06.7,0.001218796,-0.000148773,0.012777328,0,
00:06.7,0.001213074,-0.000154495,0.012760162,0,
00:06.7,0.001213074,-0.000154495,0.012771606,0,
00:06.7,0.001213074,-0.000148773,0.012777328,0,
00:06.7,0.001270294,-9.16E-05,0.012742996,0,
00:06.7,0.00128746,-4.58E-05,0.012714386,0,
00:06.7,0.001190186,-0.000188828,0.012788773,0,
00:06.7,0.001178741,-0.000200272,0.012783051,0,
00:06.7,0.001207352,-0.000154495,0.012760162,0,
00:06.7,0.001213074,-0.000165939,0.012748718,0,
00:06.7,0.00120163,-0.000148773,0.012760162,0,
00:06.7,0.001213074,-0.000165939,0.012765884,0,
00:06.7,0.001218796,-0.000160217,0.012760162,0,
00:06.7,0.001224518,-0.000165939,0.01275444,0,
00:06.8,0.001247406,-0.000125885,0.012731552,0,
00:06.8,0.001253128,-0.000137329,0.01272583,0,
00:06.8,0.001235962,-0.000137329,0.012731552,0,
00:06.8,0.001235962,-0.000125885,0.012720108,0,
00:06.8,0.00123024,-0.000148773,0.012731552,0,
00:06.8,0.001224518,-0.000165939,0.012731552,0,
00:06.8,0.00123024,-0.000177383,0.012765884,0,
00:06.8,0.001207352,-0.000183105,0.012771606,0,
00:06.8,0.001224518,-0.000171661,0.012731552,0,
00:06.8,0.001213074,-0.000165939,0.012748718,0,
00:06.8,0.00123024,-0.000154495,0.012742996,0,
00:06.8,0.00123024,-0.000143051,0.012731552,0,
00:06.8,0.001235962,-0.000148773,0.012737274,0,
00:06.8,0.001218796,-0.000165939,0.01272583,0,
00:06.8,0.001235962,-0.000148773,0.012708664,0,
00:06.8,0.001241684,-0.000131607,0.012685776,0,
00:06.8,0.00123024,-0.000165939,0.01272583,0,
00:06.8,0.001235962,-0.000143051,0.012742996,0,
00:06.8,0.00125885,-0.000108719,0.01272583,0,
00:06.8,0.00123024,-0.000171661,0.012708664,0,
00:06.8,0.001224518,-0.000183105,0.012708664,0,
00:06.8,0.001235962,-0.000171661,0.012708664,0,
00:06.8,0.001253128,-0.000137329,0.01269722,0,
00:06.8,0.00125885,-0.000131607,0.012691498,0,
00:06.8,0.001224518,-0.000183105,0.012720108,0,
00:06.9,0.001241684,-0.000160217,0.012708664,0,
00:06.9,0.001224518,-0.000154495,0.012708664,0,
00:06.9,0.001224518,-0.000205994,0.012720108,0,
00:06.9,0.001241684,-0.000183105,0.012702942,0,
00:06.9,0.00128746,-8.58E-05,0.012685776,0,
00:06.9,0.00125885,-0.000108719,0.012680054,0,
00:06.9,0.001224518,-0.00019455,0.01269722,0,
00:06.9,0.001218796,-0.000188828,0.012702942,0,
00:06.9,0.001241684,-0.000177383,0.012691498,0,
00:06.9,0.00125885,-0.000160217,0.012674332,0,
00:06.9,0.00125885,-0.000143051,0.01269722,0,
00:06.9,0.001241684,-0.000154495,0.012685776,0,
00:06.9,0.001241684,-0.000171661,0.012685776,0,
00:06.9,0.001247406,-0.000143051,0.01266861,0,
00:06.9,0.001264572,-0.000102997,0.012685776,0,
00:06.9,0.001276016,-0.000120163,0.012685776,0,
00:06.9,0.00128746,-0.000125885,0.012651443,0,
00:06.9,0.001241684,-0.000148773,0.012680054,0,
00:06.9,0.001235962,-0.000205994,0.01266861,0,
00:06.9,0.001264572,-0.000131607,0.012680054,0,
00:06.9,0.001224518,-0.000240326,0.012680054,0,
00:06.9,0.001235962,-0.000217438,0.012662888,0,
00:06.9,0.00125885,-0.000165939,0.012674332,0,
00:06.9,0.00123024,-0.000205994,0.012662888,0,
00:06.9,0.001241684,-0.000171661,0.012662888,0,
00:07.0,0.001247406,-0.000177383,0.012662888,0,
00:07.0,0.001270294,-0.000160217,0.012645721,0,
00:07.0,0.001247406,-0.000171661,0.012645721,0,
00:07.0,0.001270294,-0.000143051,0.012628555,0,
00:07.0,0.00123024,-0.000200272,0.012674332,0,
00:07.0,0.00125885,-0.000165939,0.012651443,0,
00:07.0,0.001264572,-0.000154495,0.012651443,0,
00:07.0,0.001241684,-0.000171661,0.012651443,0,
00:07.0,0.001241684,-0.000211716,0.012651443,0,
00:07.0,0.001253128,-0.00019455,0.012645721,0,
00:07.0,0.00125885,-0.000171661,0.012634277,0,
00:07.0,0.00128746,-0.000125885,0.012628555,0,
00:00:07,0.001247406,-0.00019455,0.012628555,0,
00:07.0,0.001253128,-0.000183105,0.012639999,0,
00:07.0,0.001253128,-0.000171661,0.012628555,0,
00:07.0,0.001276016,-0.000143051,0.012605667,0,
00:07.0,0.00128746,-0.000137329,0.012622833,0,
00:07.0,0.001253128,-0.000177383,0.012628555,0,
00:07.0,0.001247406,-0.000205994,0.012639999,0,
00:07.0,0.00125885,-0.000188828,0.012617111,0,
00:07.0,0.001241684,-0.000200272,0.012628555,0,
00:07.0,0.001264572,-0.000177383,0.012628555,0,
00:07.0,0.001298904,-0.000137329,0.012605667,0,
00:07.0,0.001293182,-0.000131607,0.012588501,0,
00:07.0,0.001253128,-0.000188828,0.012617111,0,
00:07.1,0.001264572,-0.00019455,0.012588501,0,
00:07.1,0.001235962,-0.000200272,0.012605667,0,
00:07.1,0.001253128,-0.000154495,0.012599945,0,
00:07.1,0.001264572,-0.000171661,0.012594223,0,
00:07.1,0.001264572,-0.000200272,0.012599945,0,
00:07.1,0.001264572,-0.000200272,0.012594223,0,
00:07.1,0.001270294,-0.000171661,0.012605667,0,
00:07.1,0.001276016,-0.000154495,0.012605667,0,
00:07.1,0.001270294,-0.000183105,0.012594223,0,
00:07.1,0.001270294,-0.000183105,0.012582779,0,
00:07.1,0.001264572,-0.000165939,0.012571335,0,
00:07.1,0.001276016,-0.000177383,0.012577057,0,
00:07.1,0.001281738,-0.000188828,0.012571335,0,
00:07.1,0.001270294,-0.000200272,0.012588501,0,
00:07.1,0.001276016,-0.000171661,0.012577057,0,
00:07.1,0.001281738,-0.000137329,0.012571335,0,
00:07.1,0.001270294,-0.000137329,0.012559891,0,
00:07.1,0.00125885,-0.000177383,0.012559891,0,
00:07.1,0.001264572,-0.00022316,0.012571335,0,
00:07.1,0.001264572,-0.000217438,0.012559891,0,
00:07.1,0.001276016,-0.000165939,0.012548447,0,
00:07.1,0.001276016,-0.000160217,0.012525558,0,
00:07.1,0.001281738,-0.000177383,0.012559891,0,
00:07.1,0.001293182,-0.000183105,0.012559891,0,
00:07.1,0.001304626,-0.000143051,0.012491226,0,
00:07.2,0.001264572,-0.000217438,0.012554169,0,
00:07.2,0.001270294,-0.00019455,0.012554169,0,
00:07.2,0.00128746,-0.000160217,0.012537003,0,
00:07.2,0.00128746,-0.000160217,0.012531281,0,
00:07.2,0.001281738,-0.000165939,0.012508392,0,
00:07.2,0.001276016,-0.000165939,0.012508392,0,
00:07.2,0.001276016,-0.00019455,0.012514114,0,
00:07.2,0.001270294,-0.000211716,0.012519836,0,
00:07.2,0.001270294,-0.000211716,0.012514114,0,
00:07.2,0.001293182,-0.000148773,0.012525558,0,
00:07.2,0.00128746,-0.000165939,0.012508392,0,
00:07.2,0.00128746,-0.000171661,0.01250267,0,
00:07.2,0.001304626,-0.000125885,0.012496948,0,
00:07.2,0.001281738,-0.000154495,0.012485504,0,
00:07.2,0.001281738,-0.00019455,0.012485504,0,
00:07.2,0.001281738,-0.000177383,0.012491226,0,
00:07.2,0.001276016,-0.000148773,0.01247406,0,
00:07.2,0.00125885,-0.00019455,0.012491226,0,
00:07.2,0.001276016,-0.000154495,0.012485504,0,
00:07.2,0.00125885,-0.000240326,0.012491226,0,
00:07.2,0.001293182,-0.000183105,0.012468338,0,
00:07.2,0.001281738,-0.000154495,0.012456894,0,
00:07.2,0.001281738,-0.000188828,0.012485504,0,
00:07.2,0.001281738,-0.00019455,0.012479782,0,
00:07.2,0.001264572,-0.000177383,0.012462616,0,
00:07.3,0.001264572,-0.000188828,0.01244545,0,
00:07.3,0.001281738,-0.000165939,0.012439728,0,
00:07.3,0.001293182,-0.000165939,0.012462616,0,
00:07.3,0.001270294,-0.000200272,0.012462616,0,
00:07.3,0.001270294,-0.000177383,0.012462616,0,
00:07.3,0.001281738,-0.000137329,0.012439728,0,
00:07.3,0.001304626,-0.000120163,0.012434006,0,
00:07.3,0.00125885,-0.000211716,0.012434006,0,
00:07.3,0.001276016,-0.00019455,0.012451172,0,
00:07.3,0.00128746,-0.000177383,0.012428284,0,
00:07.3,0.001270294,-0.000200272,0.012411118,0,
00:07.3,0.001281738,-0.000183105,0.012451172,0,
00:07.3,0.001276016,-0.000171661,0.012434006,0,
00:07.3,0.001276016,-0.000120163,0.012422562,0,
00:07.3,0.001281738,-0.000200272,0.012428284,0,
00:07.3,0.001270294,-0.00019455,0.012422562,0,
00:07.3,0.001281738,-0.000171661,0.012411118,0,
00:07.3,0.001298904,-0.000131607,0.012411118,0,
00:07.3,0.001293182,-0.000171661,0.01241684,0,
00:07.3,0.00125885,-0.000200272,0.01241684,0,
00:07.3,0.001298904,-0.000148773,0.012393951,0,
00:07.3,0.001276016,-0.000160217,0.012376785,0,
00:07.3,0.001264572,-0.000205994,0.01241684,0,
00:07.3,0.001293182,-0.000171661,0.012434006,0,
00:07.3,0.001281738,-0.000143051,0.012399673,0,
00:07.4,0.001293182,-0.000160217,0.012388229,0,
00:07.4,0.00125885,-0.000183105,0.012405396,0,
00:07.4,0.00125885,-0.00022316,0.012382507,0,
00:07.4,0.001270294,-0.000183105,0.012393951,0,
00:07.4,0.001281738,-0.000160217,0.012405396,0,
00:07.4,0.001276016,-0.000188828,0.012382507,0,
00:07.4,0.001270294,-0.000188828,0.012371063,0,
00:07.4,0.001281738,-0.000183105,0.012382507,0,
00:07.4,0.00128746,-0.000154495,0.012376785,0,
00:07.4,0.001316071,-0.000120163,0.012342453,0,
00:07.4,0.001304626,-0.000143051,0.012353897,0,
00:07.4,0.001247406,-0.000217438,0.012399673,0,
00:07.4,0.001247406,-0.000217438,0.012393951,0,
00:07.4,0.00128746,-0.000160217,0.012376785,0,
00:07.4,0.001293182,-0.000143051,0.012342453,0,
00:07.4,0.001281738,-0.000177383,0.012348175,0,
00:07.4,0.001281738,-0.000177383,0.012365341,0,
00:07.4,0.001264572,-0.000177383,0.012371063,0,
00:07.4,0.001264572,-0.000154495,0.012348175,0,
00:07.4,0.001281738,-0.000160217,0.012348175,0,
00:07.4,0.001276016,-0.000165939,0.012348175,0,
00:07.4,0.001264572,-0.00019455,0.012342453,0,
00:07.4,0.001281738,-0.000165939,0.012348175,0,
00:07.4,0.001316071,-0.000160217,0.012331009,0,
00:07.4,0.001276016,-0.000177383,0.012336731,0,
00:07.5,0.001247406,-0.000160217,0.012342453,0,
00:07.5,0.00125885,-0.000171661,0.012342453,0,
00:07.5,0.001281738,-0.000160217,0.012331009,0,
00:07.5,0.001293182,-0.000160217,0.012319565,0,
00:07.5,0.001264572,-0.000188828,0.012319565,0,
00:07.5,0.001264572,-0.000171661,0.012308121,0,
00:07.5,0.001264572,-0.000177383,0.012353897,0,
00:07.5,0.001264572,-0.000188828,0.012331009,0,
00:07.5,0.001270294,-0.000171661,0.012319565,0,
00:07.5,0.001298904,-0.000154495,0.012308121,0,
00:07.5,0.00128746,-0.000148773,0.012285233,0,
00:07.5,0.00128746,-0.000148773,0.012302399,0,
00:07.5,0.001253128,-0.000211716,0.012313843,0,
00:07.5,0.001253128,-0.000217438,0.012308121,0,
00:07.5,0.001264572,-0.00019455,0.012302399,0,
00:07.5,0.001281738,-0.000160217,0.012290955,0,
00:07.5,0.00128746,-0.000154495,0.012308121,0,
00:07.5,0.001270294,-0.000171661,0.012302399,0,
00:07.5,0.001310349,-0.000114441,0.01227951,0,
00:07.5,0.001298904,-0.000137329,0.012273788,0,
00:07.5,0.001247406,-0.000246048,0.012290955,0,
00:07.5,0.00125885,-0.000200272,0.012268066,0,
00:07.5,0.001264572,-0.000177383,0.012290955,0,
00:07.5,0.001276016,-0.000165939,0.012296677,0,
00:07.5,0.001276016,-0.000165939,0.01227951,0,
00:07.6,0.001276016,-0.000177383,0.012262344,0,
00:07.6,0.001281738,-0.000160217,0.012256622,0,
00:07.6,0.001304626,-0.000148773,0.0122509,0,
00:07.6,0.001264572,-0.000188828,0.012273788,0,
00:07.6,0.001253128,-0.000183105,0.01227951,0,
00:07.6,0.001270294,-0.000148773,0.0122509,0,
00:07.6,0.001276016,-0.000148773,0.012245178,0,
00:07.6,0.001270294,-0.000183105,0.012245178,0,
00:07.6,0.001270294,-0.000177383,0.012256622,0,
00:07.6,0.001264572,-0.000171661,0.012256622,0,
00:07.6,0.001276016,-0.000148773,0.0122509,0,
00:07.6,0.001281738,-0.000143051,0.012239456,0,
00:07.6,0.00128746,-0.000148773,0.0122509,0,
00:07.6,0.001270294,-0.000171661,0.012239456,0,
00:07.6,0.001276016,-0.000165939,0.012239456,0,
00:07.6,0.00128746,-0.000165939,0.012228012,0,
00:07.6,0.00125885,-0.000183105,0.012233734,0,
00:07.6,0.001276016,-0.000165939,0.012228012,0,
00:07.6,0.001281738,-0.000148773,0.01222229,0,
00:07.6,0.001253128,-0.000183105,0.012205124,0,
00:07.6,0.001264572,-0.000165939,0.012216568,0,
00:07.6,0.00128746,-0.000148773,0.012187958,0,
00:07.6,0.001281738,-0.000148773,0.01222229,0,
00:07.6,0.001264572,-0.000183105,0.012233734,0,
00:07.6,0.001270294,-0.000165939,0.012199402,0,
00:07.7,0.001264572,-0.000154495,0.01219368,0,
00:07.7,0.001264572,-0.000165939,0.012210846,0,
00:07.7,0.001281738,-0.000154495,0.012210846,0,
00:07.7,0.001310349,-0.000108719,0.01219368,0,
00:07.7,0.00125885,-0.000177383,0.012199402,0,
00:07.7,0.001253128,-0.00019455,0.012187958,0,
00:07.7,0.001281738,-0.000154495,0.012187958,0,
00:07.7,0.00125885,-0.000171661,0.012199402,0,
00:07.7,0.001270294,-0.000137329,0.012182236,0,
00:07.7,0.001281738,-0.000148773,0.012159348,0,
00:07.7,0.001276016,-0.000177383,0.012176514,0,
00:07.7,0.001270294,-0.000160217,0.012170792,0,
00:07.7,0.00128746,-0.000120163,0.012136459,0,
00:07.7,0.00125885,-0.000177383,0.01216507,0,
00:07.7,0.001276016,-0.000171661,0.012159348,0,
00:07.7,0.001276016,-0.000165939,0.012176514,0,
00:07.7,0.00128746,-0.000154495,0.01219368,0,
00:07.7,0.001281738,-0.000120163,0.012170792,0,
00:07.7,0.00128746,-0.000120163,0.012159348,0,
00:07.7,0.00125885,-0.000160217,0.012153625,0,
00:07.7,0.001276016,-0.000120163,0.012142181,0,
00:07.7,0.001281738,-0.000131607,0.012147903,0,
00:07.7,0.001276016,-0.000188828,0.01216507,0,
00:07.7,0.001270294,-0.000160217,0.012153625,0,
00:07.7,0.001270294,-0.000137329,0.012136459,0,
00:07.8,0.001276016,-0.000125885,0.012142181,0,
00:07.8,0.00128746,-9.16E-05,0.012142181,0,
00:07.8,0.00125885,-0.000114441,0.012136459,0,
00:07.8,0.001264572,-0.000177383,0.012153625,0,
00:07.8,0.001270294,-0.00019455,0.012136459,0,
00:07.8,0.001264572,-0.000160217,0.012102127,0,
00:07.8,0.001293182,-0.000102997,0.012142181,0,
00:07.8,0.001270294,-0.000108719,0.012113571,0,
00:07.8,0.001241684,-0.000143051,0.012136459,0,
00:07.8,0.001270294,-0.000165939,0.012113571,0,
00:07.8,0.001264572,-0.000188828,0.012130737,0,
00:07.8,0.001276016,-0.000120163,0.012113571,0,
00:07.8,0.001316071,-1.72E-05,0.012067795,0,
00:07.8,0.001264572,-0.000148773,0.012125015,0,
00:07.8,0.001253128,-0.000200272,0.012130737,0,
00:07.8,0.001253128,-0.000177383,0.012113571,0,
00:07.8,0.001270294,-0.000137329,0.012119293,0,
00:07.8,0.001270294,-0.000131607,0.012102127,0,
00:07.8,0.00125885,-0.000148773,0.012062073,0,
00:07.8,0.00125885,-0.000160217,0.012096405,0,
00:07.8,0.00125885,-0.000143051,0.012119293,0,
00:07.8,0.001270294,-0.000125885,0.012102127,0,
00:07.8,0.001247406,-0.000154495,0.012096405,0,
00:07.8,0.001253128,-0.000148773,0.012084961,0,
00:07.8,0.00128746,-8.58E-05,0.012067795,0,
00:07.9,0.001276016,-0.000125885,0.012067795,0,
00:07.9,0.001247406,-0.000177383,0.012084961,0,
00:07.9,0.001241684,-0.000165939,0.012079239,0,
00:07.9,0.00125885,-0.000114441,0.012079239,0,
00:07.9,0.001298904,-2.29E-05,0.012044907,0,
00:07.9,0.001270294,-0.000154495,0.012056351,0,
00:07.9,0.001247406,-0.000177383,0.012073517,0,
00:07.9,0.001253128,-0.000131607,0.012062073,0,
00:07.9,0.001270294,-0.000108719,0.012056351,0,
00:07.9,0.001264572,-9.73E-05,0.012062073,0,
00:07.9,0.00123024,-0.000154495,0.012073517,0,
00:07.9,0.001253128,-0.000137329,0.012050629,0,
00:07.9,0.001281738,-9.16E-05,0.01202774,0,
00:07.9,0.001270294,-8.01E-05,0.012039185,0,
00:07.9,0.001224518,-0.00019455,0.012033463,0,
00:07.9,0.001235962,-0.000171661,0.012073517,0,
00:07.9,0.001253128,-0.000131607,0.012044907,0,
00:07.9,0.001264572,-0.000125885,0.012039185,0,
00:07.9,0.001253128,-0.000120163,0.012039185,0,
00:07.9,0.001264572,-0.000114441,0.012016296,0,
00:07.9,0.001270294,-6.29E-05,0.012010574,0,
00:07.9,0.00125885,-0.000102997,0.012016296,0,
00:07.9,0.001224518,-0.000188828,0.01202774,0,
00:07.9,0.001241684,-0.000131607,0.012039185,0,
00:07.9,0.001241684,-0.000108719,0.012033463,0,
00:08.0,0.00123024,-0.000154495,0.01202774,0,
00:08.0,0.001247406,-0.000125885,0.012022018,0,
00:08.0,0.00125885,-0.000131607,0.012016296,0,
00:08.0,0.00125885,-0.000125885,0.012004852,0,
00:08.0,0.001241684,-0.000125885,0.012010574,0,
00:08.0,0.00125885,-9.16E-05,0.011993408,0,
00:08.0,0.001264572,-0.000102997,0.01199913,0,
00:08.0,0.00123024,-0.000143051,0.01199913,0,
00:08.0,0.00123024,-0.000148773,0.012010574,0,
00:08.0,0.001264572,-6.87E-05,0.011993408,0,
00:08.0,0.001276016,-6.87E-05,0.011964798,0,
00:08.0,0.001235962,-0.000154495,0.011981964,0,
00:00:08,0.00123024,-0.000154495,0.01202774,0,
00:08.0,0.001247406,-0.000143051,0.012010574,0,
00:08.0,0.001235962,-0.000131607,0.011993408,0,
00:08.0,0.00125885,-0.000108719,0.011981964,0,
00:08.0,0.001253128,-9.16E-05,0.011976242,0,
00:08.0,0.001247406,-0.000120163,0.011976242,0,
00:08.0,0.001253128,-0.000114441,0.01197052,0,
00:08.0,0.001247406,-0.000120163,0.011959076,0,
00:08.0,0.001213074,-0.000131607,0.011987686,0,
00:08.0,0.00123024,-0.000137329,0.011981964,0,
00:08.0,0.001241684,-0.000137329,0.011981964,0,
00:08.0,0.001241684,-0.000114441,0.011964798,0,
00:08.0,0.001247406,-8.58E-05,0.01194191,0,
00:08.1,0.001241684,-0.000137329,0.011964798,0,
00:08.1,0.001247406,-0.000114441,0.011964798,0,
00:08.1,0.001281738,-1.72E-05,0.011953354,0,
00:08.1,0.00123024,-0.000148773,0.011953354,0,
00:08.1,0.00123024,-0.000160217,0.011947632,0,
00:08.1,0.001224518,-0.000137329,0.01194191,0,
00:08.1,0.001235962,-9.73E-05,0.011930466,0,
00:08.1,0.001264572,-2.86E-05,0.011924744,0,
00:08.1,0.001224518,-0.000160217,0.01197052,0,
00:08.1,0.001235962,-0.000154495,0.011953354,0,
00:08.1,0.001247406,-0.000102997,0.0119133,0,
00:08.1,0.001241684,-0.000114441,0.01194191,0,
00:08.1,0.001218796,-0.000131607,0.01194191,0,
00:08.1,0.001235962,-0.000108719,0.01194191,0,
00:08.1,0.001253128,-9.16E-05,0.011919022,0,
00:08.1,0.001270294,-6.29E-05,0.011896133,0,
00:08.1,0.001241684,-0.000131607,0.0119133,0,
00:08.1,0.001224518,-0.000125885,0.011930466,0,
00:08.1,0.00123024,-9.16E-05,0.011924744,0,
00:08.1,0.001207352,-0.000160217,0.011930466,0,
00:08.1,0.001247406,-0.000114441,0.011907578,0,
00:08.1,0.001276016,-4.58E-05,0.011901855,0,
00:08.1,0.001213074,-0.000143051,0.0119133,0,
00:08.1,0.001241684,-0.000108719,0.011919022,0,
00:08.1,0.001235962,-9.16E-05,0.011896133,0,
00:08.2,0.001235962,-0.000114441,0.0119133,0,
00:08.2,0.001241684,-0.000102997,0.011919022,0,
00:08.2,0.001241684,-9.16E-05,0.011907578,0,
00:08.2,0.001241684,-0.000114441,0.011896133,0,
00:08.2,0.001224518,-9.73E-05,0.011901855,0,
00:08.2,0.001235962,-6.87E-05,0.011896133,0,
00:08.2,0.001224518,-0.000137329,0.011896133,0,
00:08.2,0.00123024,-0.000137329,0.011907578,0,
00:08.2,0.001253128,-9.73E-05,0.011896133,0,
00:08.2,0.00125885,-6.29E-05,0.011878967,0,
00:08.2,0.001235962,-8.01E-05,0.011878967,0,
00:08.2,0.001235962,-0.000102997,0.011890411,0,
00:08.2,0.00123024,-0.000102997,0.011890411,0,
00:08.2,0.001224518,-0.000114441,0.011878967,0,
00:08.2,0.00123024,-0.000120163,0.011890411,0,
00:08.2,0.001235962,-7.44E-05,0.011861801,0,
00:08.2,0.001253128,-8.01E-05,0.011890411,0,
00:08.2,0.001218796,-0.000137329,0.011901855,0,
00:08.2,0.00123024,-6.87E-05,0.011873245,0,
00:08.2,0.001253128,-8.01E-05,0.011856079,0,
00:08.2,0.00123024,-0.000102997,0.011867523,0,
00:08.2,0.001224518,-0.000120163,0.011890411,0,
00:08.2,0.00123024,-0.000114441,0.011867523,0,
00:08.2,0.001241684,-7.44E-05,0.011878967,0,
00:08.2,0.00123024,-9.16E-05,0.011856079,0,
00:08.3,0.00123024,-8.58E-05,0.011838913,0,
00:08.3,0.001253128,-6.29E-05,0.011873245,0,
00:08.3,0.001241684,-9.73E-05,0.011873245,0,
00:08.3,0.001241684,-9.16E-05,0.011873245,0,
00:08.3,0.001195908,-0.000120163,0.011844635,0,
00:08.3,0.001218796,-0.000102997,0.011827469,0,
00:08.3,0.001253128,-7.44E-05,0.011856079,0,
00:08.3,0.001264572,-2.86E-05,0.011850357,0,
00:08.3,0.001241684,-4.01E-05,0.011844635,0,
00:08.3,0.001218796,-9.73E-05,0.011833191,0,
00:08.3,0.001218796,-0.000125885,0.011816025,0,
00:08.3,0.00120163,-0.000137329,0.011850357,0,
00:08.3,0.001195908,-0.000131607,0.011867523,0,
00:08.3,0.001218796,-0.000108719,0.011827469,0,
00:08.3,0.00123024,-8.01E-05,0.011850357,0,
00:08.3,0.001241684,-6.87E-05,0.011844635,0,
00:08.3,0.00123024,-9.16E-05,0.011844635,0,
00:08.3,0.001213074,-0.000108719,0.011833191,0,
00:08.3,0.001213074,-0.000108719,0.011838913,0,
00:08.3,0.001241684,-8.58E-05,0.011821747,0,
00:08.3,0.001235962,-7.44E-05,0.011816025,0,
00:08.3,0.001235962,-6.87E-05,0.011816025,0,
00:08.3,0.001224518,-9.73E-05,0.011821747,0,
00:08.3,0.001235962,-8.01E-05,0.011827469,0,
00:08.3,0.001247406,-6.29E-05,0.011821747,0,
00:08.4,0.00128746,-2.86E-05,0.011793137,0,
00:08.4,0.001218796,-9.16E-05,0.011816025,0,
00:08.4,0.001190186,-0.000125885,0.011810303,0,
00:08.4,0.00120163,-0.000120163,0.011838913,0,
00:08.4,0.00123024,-7.44E-05,0.011816025,0,
00:08.4,0.001241684,-5.15E-05,0.011816025,0,
00:08.4,0.001218796,-9.73E-05,0.011804581,0,
00:08.4,0.001213074,-9.73E-05,0.011816025,0,
00:08.4,0.001218796,-9.16E-05,0.011816025,0,
00:08.4,0.001224518,-8.58E-05,0.011798859,0,
00:08.4,0.001247406,-6.29E-05,0.011793137,0,
00:08.4,0.001270294,-4.58E-05,0.011798859,0,
00:08.4,0.001213074,-5.72E-05,0.011798859,0,
00:08.4,0.001235962,-6.29E-05,0.011781693,0,
00:08.4,0.001213074,-0.000114441,0.011798859,0,
00:08.4,0.001190186,-0.000108719,0.011798859,0,
00:08.4,0.001224518,-6.29E-05,0.011770248,0,
00:08.4,0.00120163,-0.000102997,0.011793137,0,
00:08.4,0.001207352,-0.000102997,0.011798859,0,
00:08.4,0.001224518,-4.01E-05,0.01177597,0,
00:08.4,0.001213074,-0.000114441,0.011770248,0,
00:08.4,0.00123024,-9.73E-05,0.011781693,0,
00:08.4,0.001224518,-4.58E-05,0.011781693,0,
00:08.4,0.001213074,-8.58E-05,0.011787415,0,
00:08.4,0.001224518,-8.58E-05,0.01177597,0,
00:08.5,0.001235962,-6.87E-05,0.011770248,0,
00:08.5,0.001213074,-8.58E-05,0.011770248,0,
00:08.5,0.00123024,-3.43E-05,0.011770248,0,
00:08.5,0.001235962,-6.87E-05,0.011764526,0,
00:08.5,0.001207352,-9.16E-05,0.01177597,0,
00:08.5,0.001241684,-5.72E-05,0.011758804,0,
00:08.5,0.001207352,-7.44E-05,0.011770248,0,
00:08.5,0.001213074,-9.16E-05,0.01177597,0,
00:08.5,0.001207352,-0.000102997,0.011758804,0,
00:08.5,0.001224518,-9.16E-05,0.011753082,0,
00:08.5,0.001213074,-5.72E-05,0.011753082,0,
00:08.5,0.001218796,-3.43E-05,0.011735916,0,
00:08.5,0.001264572,-1.72E-05,0.011753082,0,
00:08.5,0.001178741,-0.000108719,0.01174736,0,
00:08.5,0.001224518,-6.29E-05,0.011735916,0,
00:08.5,0.001218796,-6.87E-05,0.011758804,0,
00:08.5,0.001218796,-8.01E-05,0.011758804,0,
00:08.5,0.001218796,-7.44E-05,0.01174736,0,
00:08.5,0.00120163,-9.16E-05,0.011753082,0,
00:08.5,0.001195908,-0.000102997,0.011735916,0,
00:08.5,0.001224518,-9.16E-05,0.011741638,0,
00:08.5,0.001213074,-5.15E-05,0.011730194,0,
00:08.5,0.001207352,-9.16E-05,0.011730194,0,
00:08.5,0.00120163,-0.000102997,0.011741638,0,
00:08.5,0.001218796,-0.000102997,0.01174736,0,
00:08.6,0.001235962,-5.15E-05,0.011724472,0,
00:08.6,0.00120163,-8.58E-05,0.011741638,0,
00:08.6,0.001224518,-5.15E-05,0.011741638,0,
00:08.6,0.001241684,-5.15E-05,0.011730194,0,
00:08.6,0.001195908,-7.44E-05,0.011724472,0,
00:08.6,0.001207352,-7.44E-05,0.011735916,0,
00:08.6,0.001235962,-6.87E-05,0.011735916,0,
00:08.6,0.001218796,-4.58E-05,0.01171875,0,
00:08.6,0.001224518,-6.29E-05,0.011724472,0,
00:08.6,0.001218796,-6.29E-05,0.01171875,0,
00:08.6,0.001224518,-4.58E-05,0.011701584,0,
00:08.6,0.001207352,-0.000102997,0.011724472,0,
00:08.6,0.001213074,-0.000102997,0.01174736,0,
00:08.6,0.001224518,-7.44E-05,0.011741638,0,
00:08.6,0.001218796,-7.44E-05,0.011724472,0,
00:08.6,0.001241684,-4.58E-05,0.011695862,0,
00:08.6,0.001218796,-6.29E-05,0.011713028,0,
00:08.6,0.001213074,-6.29E-05,0.01171875,0,
00:08.6,0.001207352,-8.58E-05,0.011730194,0,
00:08.6,0.001207352,-6.29E-05,0.011730194,0,
00:08.6,0.001253128,-2.86E-05,0.011713028,0,
00:08.6,0.001235962,-6.87E-05,0.011707306,0,
00:08.6,0.001184464,-0.000108719,0.011724472,0,
00:08.6,0.001224518,-9.16E-05,0.011713028,0,
00:08.6,0.001218796,-6.29E-05,0.011707306,0,
00:08.7,0.001195908,-8.01E-05,0.011707306,0,
00:08.7,0.001218796,-6.29E-05,0.011707306,0,
00:08.7,0.001218796,-6.29E-05,0.011713028,0,
00:08.7,0.00120163,-9.16E-05,0.01169014,0,
00:08.7,0.00123024,-6.87E-05,0.011707306,0,
00:08.7,0.001241684,-4.01E-05,0.011707306,0,
00:08.7,0.001213074,-7.44E-05,0.011701584,0,
00:08.7,0.001224518,-2.29E-05,0.011707306,0,
00:08.7,0.001235962,-5.72E-05,0.011730194,0,
00:08.7,0.00123024,-2.86E-05,0.011707306,0,
00:08.7,0.001213074,-1.72E-05,0.011695862,0,
00:08.7,0.001241684,-1.14E-05,0.011695862,0,
00:08.7,0.001207352,-0.000114441,0.011735916,0,
00:08.7,0.001207352,-0.000108719,0.011730194,0,
00:08.7,0.001195908,-6.29E-05,0.01169014,0,
00:08.7,0.001207352,-7.44E-05,0.011724472,0,
00:08.7,0.001213074,-5.15E-05,0.011724472,0,
00:08.7,0.001213074,-8.01E-05,0.011707306,0,
00:08.7,0.001207352,-7.44E-05,0.011707306,0,
00:08.7,0.001195908,-9.16E-05,0.011701584,0,
00:08.7,0.001213074,-3.43E-05,0.011701584,0,
00:08.7,0.00123024,-1.72E-05,0.011713028,0,
00:08.7,0.00123024,-5.15E-05,0.011713028,0,
00:08.7,0.001195908,-8.58E-05,0.011707306,0,
00:08.7,0.00123024,-4.58E-05,0.011701584,0,
00:08.8,0.001224518,-7.44E-05,0.011701584,0,
00:08.8,0.001235962,-1.14E-05,0.011684418,0,
00:08.8,0.001247406,2.29E-05,0.011684418,0,
00:08.8,0.001218796,-0.000108719,0.011713028,0,
00:08.8,0.00120163,-8.58E-05,0.01169014,0,
00:08.8,0.001224518,-4.01E-05,0.011655807,0,
00:08.8,0.001207352,-8.58E-05,0.011713028,0,
00:08.8,0.001190186,-9.16E-05,0.011713028,0,
00:08.8,0.001207352,-4.58E-05,0.011650085,0,
00:08.8,0.001218796,-8.01E-05,0.011701584,0,
00:08.8,0.001213074,-6.87E-05,0.011707306,0,
00:08.8,0.001178741,-0.000114441,0.01171875,0,
00:08.8,0.00123024,-8.01E-05,0.011672974,0,
00:08.8,0.001253128,-1.14E-05,0.011672974,0,
00:08.8,0.001213074,-4.58E-05,0.011701584,0,
00:08.8,0.001195908,-5.72E-05,0.011707306,0,
00:08.8,0.001184464,-0.000108719,0.011707306,0,
00:08.8,0.001184464,-0.000102997,0.011713028,0,
00:08.8,0.00120163,-6.87E-05,0.011707306,0,
00:08.8,0.001207352,-6.87E-05,0.011701584,0,
00:08.8,0.001224518,-5.15E-05,0.011667252,0,
00:08.8,0.001224518,-5.15E-05,0.011667252,0,
00:08.8,0.001190186,-8.01E-05,0.011741638,0,
00:08.8,0.001207352,-5.15E-05,0.011713028,0,
00:08.8,0.001235962,-2.29E-05,0.01169014,0,
00:08.9,0.001213074,-6.87E-05,0.011684418,0,
00:08.9,0.00120163,-6.87E-05,0.011695862,0,
00:08.9,0.00123024,-1.14E-05,0.011713028,0,
00:08.9,0.001173019,-9.73E-05,0.011695862,0,
00:08.9,0.00120163,-7.44E-05,0.011707306,0,
00:08.9,0.00120163,-6.87E-05,0.011701584,0,
00:08.9,0.001218796,-4.01E-05,0.01169014,0,
00:08.9,0.001213074,-6.87E-05,0.01169014,0,
00:08.9,0.001195908,-8.01E-05,0.011701584,0,
00:08.9,0.001173019,-9.73E-05,0.011684418,0,
00:08.9,0.001207352,-7.44E-05,0.011678696,0,
00:08.9,0.001218796,-5.15E-05,0.011672974,0,
00:08.9,0.001213074,-8.01E-05,0.011667252,0,
00:08.9,0.001195908,-8.58E-05,0.011730194,0,
00:08.9,0.001195908,-4.01E-05,0.011707306,0,
00:08.9,0.001190186,-5.72E-05,0.011701584,0,
00:08.9,0.001207352,-8.01E-05,0.011707306,0,
00:08.9,0.001207352,-7.44E-05,0.01169014,0,
00:08.9,0.001190186,-8.01E-05,0.011695862,0,
00:08.9,0.001207352,-8.01E-05,0.011684418,0,
00:08.9,0.001195908,-6.87E-05,0.011672974,0,
00:08.9,0.001190186,-8.01E-05,0.01169014,0,
00:08.9,0.00120163,-6.87E-05,0.011695862,0,
00:08.9,0.001195908,-7.44E-05,0.011701584,0,
00:08.9,0.001195908,-5.15E-05,0.011684418,0,
00:09.0,0.001224518,-6.29E-05,0.011678696,0,
00:09.0,0.001218796,-3.43E-05,0.011672974,0,
00:09.0,0.001213074,-3.43E-05,0.01166153,0,
00:09.0,0.001190186,-5.72E-05,0.01169014,0,
00:09.0,0.001195908,-0.000102997,0.011701584,0,
00:09.0,0.001213074,-8.01E-05,0.011678696,0,
00:09.0,0.001235962,1.14E-05,0.01169014,0,
00:09.0,0.001173019,-0.000102997,0.011713028,0,
00:09.0,0.001173019,-8.58E-05,0.011707306,0,
00:09.0,0.00120163,-1.72E-05,0.01169014,0,
00:09.0,0.00120163,-8.01E-05,0.011678696,0,
00:09.0,0.001195908,-7.44E-05,0.01169014,0,
00:00:09,0.001190186,-8.01E-05,0.011701584,0,
00:09.0,0.001184464,-8.58E-05,0.01169014,0,
00:09.0,0.001218796,-6.87E-05,0.011684418,0,
00:09.0,0.001218796,-4.58E-05,0.011672974,0,
00:09.0,0.001184464,-0.000108719,0.011695862,0,
00:09.0,0.001178741,-6.87E-05,0.011695862,0,
00:09.0,0.001178741,-5.15E-05,0.011684418,0,
00:09.0,0.001184464,-0.000108719,0.01169014,0,
00:09.0,0.001195908,-9.16E-05,0.011684418,0,
00:09.0,0.00120163,-7.44E-05,0.01169014,0,
00:09.0,0.001190186,-7.44E-05,0.011672974,0,
00:09.0,0.001190186,-6.87E-05,0.011678696,0,
00:09.0,0.001207352,-2.86E-05,0.011650085,0,
00:09.1,0.001224518,-1.72E-05,0.011684418,0,
00:09.1,0.001218796,-5.72E-05,0.011707306,0,
00:09.1,0.001161575,-0.000108719,0.011707306,0,
00:09.1,0.001178741,-8.01E-05,0.011701584,0,
00:09.1,0.001190186,-7.44E-05,0.011672974,0,
00:09.1,0.001195908,-7.44E-05,0.011678696,0,
00:09.1,0.001190186,-6.87E-05,0.01169014,0,
00:09.1,0.001207352,-4.01E-05,0.011672974,0,
00:09.1,0.00123024,-5.72E-05,0.01166153,0,
00:09.1,0.001247406,-5.72E-06,0.011638641,0,
00:09.1,0.001190186,-1.14E-05,0.011713028,0,
00:09.1,0.001178741,-9.16E-05,0.011707306,0,
00:09.1,0.001161575,-0.000120163,0.011707306,0,
00:09.1,0.001178741,-0.000114441,0.011695862,0,
00:09.1,0.001190186,-8.01E-05,0.011684418,0,
00:09.1,0.001195908,-5.72E-05,0.011695862,0,
00:09.1,0.001190186,-6.87E-05,0.011701584,0,
00:09.1,0.001190186,-8.01E-05,0.011684418,0,
00:09.1,0.001190186,-6.29E-05,0.01166153,0,
00:09.1,0.001247406,1.14E-05,0.011667252,0,
00:09.1,0.001264572,3.43E-05,0.01166153,0,
00:09.1,0.001150131,-9.16E-05,0.011672974,0,
00:09.1,0.001178741,-9.16E-05,0.011701584,0,
00:09.1,0.001184464,-7.44E-05,0.011701584,0,
00:09.1,0.001224518,-6.87E-05,0.011684418,0,
00:09.2,0.001213074,-5.15E-05,0.011678696,0,
00:09.2,0.001190186,-2.29E-05,0.01169014,0,
00:09.2,0.001173019,-9.73E-05,0.011701584,0,
00:09.2,0.001167297,-9.73E-05,0.01169014,0,
00:09.2,0.001207352,-6.29E-05,0.011672974,0,
00:09.2,0.001207352,-3.43E-05,0.01166153,0,
00:09.2,0.001207352,-3.43E-05,0.011667252,0,
00:09.2,0.00123024,-4.58E-05,0.011672974,0,
00:09.2,0.001161575,-7.44E-05,0.011672974,0,
00:09.2,0.001155853,-8.58E-05,0.011684418,0,
00:09.2,0.00120163,-4.58E-05,0.011678696,0,
00:09.2,0.001218796,-1.72E-05,0.011667252,0,
00:09.2,0.001173019,-3.43E-05,0.011695862,0,
00:09.2,0.001167297,-5.15E-05,0.01169014,0,
00:09.2,0.001207352,-6.29E-05,0.011678696,0,
00:09.2,0.001173019,-9.73E-05,0.01166153,0,
00:09.2,0.001161575,-0.000120163,0.011672974,0,
00:09.2,0.001184464,-6.29E-05,0.011707306,0,
00:09.2,0.00120163,-4.01E-05,0.011678696,0,
00:09.2,0.001167297,-9.73E-05,0.011667252,0,
00:09.2,0.001184464,-7.44E-05,0.011667252,0,
00:09.2,0.001178741,-7.44E-05,0.011695862,0,
00:09.2,0.001184464,-5.72E-05,0.011667252,0,
00:09.2,0.001195908,-5.72E-05,0.011678696,0,
00:09.2,0.001184464,-5.15E-05,0.011672974,0,
00:09.3,0.001178741,-7.44E-05,0.011667252,0,
00:09.3,0.00120163,-5.72E-05,0.011627197,0,
00:09.3,0.001224518,-1.14E-05,0.011627197,0,
00:09.3,0.00120163,-5.15E-05,0.011707306,0,
00:09.3,0.001150131,-0.000108719,0.011695862,0,
00:09.3,0.001173019,-8.58E-05,0.011650085,0,
00:09.3,0.001213074,-2.86E-05,0.011667252,0,
00:09.3,0.00120163,-4.01E-05,0.011678696,0,
00:09.3,0.001195908,-5.15E-05,0.011644363,0,
00:09.3,0.001184464,-5.15E-05,0.011632919,0,
00:09.3,0.001173019,-8.58E-05,0.011655807,0,
00:09.3,0.001173019,-9.16E-05,0.011655807,0,
00:09.3,0.001190186,-5.15E-05,0.011667252,0,
00:09.3,0.001190186,-8.01E-05,0.011655807,0,
00:09.3,0.001190186,-6.87E-05,0.011650085,0,
00:09.3,0.001190186,-6.29E-05,0.01166153,0,
00:09.3,0.001195908,-6.29E-05,0.011672974,0,
00:09.3,0.00120163,-5.15E-05,0.01166153,0,
00:09.3,0.001184464,-6.29E-05,0.01166153,0,
00:09.3,0.001190186,-4.58E-05,0.011655807,0,
00:09.3,0.001184464,-8.58E-05,0.011650085,0,
00:09.3,0.001173019,-9.16E-05,0.011650085,0,
00:09.3,0.001195908,-5.72E-05,0.011650085,0,
00:09.3,0.001195908,-5.72E-05,0.011650085,0,
00:09.3,0.001195908,-5.15E-05,0.011650085,0,
00:09.4,0.001190186,-4.01E-05,0.011621475,0,
00:09.4,0.001195908,-5.15E-05,0.011655807,0,
00:09.4,0.001190186,-6.87E-05,0.011655807,0,
00:09.4,0.001190186,-5.72E-05,0.011638641,0,
00:09.4,0.001207352,-3.43E-05,0.011632919,0,
00:09.4,0.001224518,-2.86E-05,0.011610031,0,
00:09.4,0.001178741,-0.000102997,0.011621475,0,
00:09.4,0.001184464,-5.72E-05,0.01166153,0,
00:09.4,0.001195908,-5.72E-05,0.011644363,0,
00:09.4,0.00120163,-5.72E-05,0.011638641,0,
00:09.4,0.001207352,-3.43E-05,0.011627197,0,
00:09.4,0.001224518,2.29E-05,0.011610031,0,
00:09.4,0.00120163,-6.87E-05,0.011655807,0,
00:09.4,0.001161575,-0.000102997,0.011650085,0,
00:09.4,0.001190186,-8.01E-05,0.011621475,0,
00:09.4,0.00120163,-5.72E-05,0.011638641,0,
00:09.4,0.001190186,-6.87E-05,0.011638641,0,
00:09.4,0.001195908,-4.58E-05,0.011621475,0,
00:09.4,0.001213074,-4.58E-05,0.011604309,0,
00:09.4,0.001207352,-1.14E-05,0.011615753,0,
00:09.4,0.001178741,-8.58E-05,0.011650085,0,
00:09.4,0.001178741,-9.73E-05,0.011638641,0,
00:09.4,0.001184464,-8.58E-05,0.011610031,0,
00:09.4,0.001195908,-6.29E-05,0.011650085,0,
00:09.4,0.001207352,-4.58E-05,0.011638641,0,
00:09.5,0.00123024,-1.72E-05,0.011615753,0,
00:09.5,0.00120163,-4.58E-05,0.011621475,0,
00:09.5,0.001173019,-7.44E-05,0.011644363,0,
00:09.5,0.001195908,-5.72E-05,0.011621475,0,
00:09.5,0.001190186,-7.44E-05,0.011615753,0,
00:09.5,0.001207352,-4.01E-05,0.011610031,0,
00:09.5,0.001235962,-1.14E-05,0.011592865,0,
00:09.5,0.001213074,-4.01E-05,0.011587143,0,
00:09.5,0.001167297,-6.29E-05,0.011638641,0,
00:09.5,0.001178741,-8.01E-05,0.011655807,0,
00:09.5,0.001190186,-7.44E-05,0.011632919,0,
00:09.5,0.001207352,-6.29E-05,0.011627197,0,
00:09.5,0.001190186,-5.72E-05,0.011615753,0,
00:09.5,0.001207352,-4.58E-05,0.011604309,0,
00:09.5,0.001207352,-2.86E-05,0.011587143,0,
00:09.5,0.001184464,-8.01E-05,0.011615753,0,
00:09.5,0.001190186,-9.16E-05,0.011615753,0,
00:09.5,0.001184464,-6.29E-05,0.011621475,0,
00:09.5,0.001190186,-6.29E-05,0.011621475,0,
00:09.5,0.001195908,-6.29E-05,0.011615753,0,
00:09.5,0.00120163,-4.58E-05,0.011615753,0,
00:09.5,0.001195908,-6.87E-05,0.011615753,0,
00:09.5,0.001195908,-8.58E-05,0.011621475,0,
00:09.5,0.00120163,-5.72E-05,0.011610031,0,
00:09.5,0.001218796,-4.01E-05,0.011575699,0,
00:09.6,0.001184464,-8.01E-05,0.011592865,0,
00:09.6,0.00120163,-5.72E-05,0.011644363,0,
00:09.6,0.001195908,-6.87E-05,0.011644363,0,
00:09.6,0.001195908,-8.58E-05,0.011615753,0,
00:09.6,0.001190186,-0.000108719,0.011621475,0,
00:09.6,0.001213074,-5.15E-05,0.011627197,0,
00:09.6,0.001184464,-9.16E-05,0.011627197,0,
00:09.6,0.001213074,-3.43E-05,0.011598587,0,
00:09.6,0.001235962,-3.43E-05,0.011615753,0,
00:09.6,0.001195908,-9.16E-05,0.011615753,0,
00:09.6,0.001184464,-8.58E-05,0.011615753,0,
00:09.6,0.00120163,-9.16E-05,0.011587143,0,
00:09.6,0.001190186,-9.73E-05,0.011615753,0,
00:09.6,0.001190186,-6.87E-05,0.011644363,0,
00:09.6,0.001195908,-9.73E-05,0.011621475,0,
00:09.6,0.001207352,-8.01E-05,0.011610031,0,
00:09.6,0.001190186,-0.000108719,0.011621475,0,
00:09.6,0.001207352,-8.01E-05,0.011655807,0,
00:09.6,0.001207352,-9.16E-05,0.011632919,0,
00:09.6,0.00120163,-0.000102997,0.011627197,0,
00:09.6,0.00120163,-9.16E-05,0.011627197,0,
00:09.6,0.001224518,-5.72E-05,0.011632919,0,
00:09.6,0.001195908,-0.000108719,0.011627197,0,
00:09.6,0.00120163,-0.000114441,0.011610031,0,
00:09.6,0.001207352,-0.000108719,0.011621475,0,
00:09.7,0.001218796,-9.73E-05,0.011627197,0,
00:09.7,0.001235962,-7.44E-05,0.011638641,0,
00:09.7,0.001213074,-8.58E-05,0.011638641,0,
00:09.7,0.001241684,-8.01E-05,0.011615753,0,
00:09.7,0.00120163,-0.000131607,0.011627197,0,
00:09.7,0.001207352,-0.000125885,0.011650085,0,
00:09.7,0.001235962,-8.01E-05,0.011632919,0,
00:09.7,0.001235962,-9.73E-05,0.011632919,0,
00:09.7,0.001213074,-0.000131607,0.011650085,0,
00:09.7,0.001207352,-0.000131607,0.01166153,0,
00:09.7,0.001224518,-0.000125885,0.011650085,0,
00:09.7,0.001241684,-0.000114441,0.01166153,0,
00:09.7,0.001264572,-8.58E-05,0.01166153,0,
00:09.7,0.001207352,-0.000137329,0.01166153,0,
00:09.7,0.001224518,-0.000120163,0.011672974,0,
00:09.7,0.001224518,-0.000143051,0.01166153,0,
00:09.7,0.001241684,-0.000125885,0.01166153,0,
00:09.7,0.001224518,-0.000165939,0.011667252,0,
00:09.7,0.001235962,-0.000131607,0.01166153,0,
00:09.7,0.00125885,-0.000114441,0.01166153,0,
00:09.7,0.001241684,-0.000114441,0.011672974,0,
00:09.7,0.001241684,-0.000143051,0.011672974,0,
00:09.7,0.001224518,-0.000165939,0.01169014,0,
00:09.7,0.00125885,-0.000143051,0.011684418,0,
00:09.7,0.001264572,-0.000131607,0.011650085,0,
00:09.8,0.001218796,-0.000188828,0.011713028,0,
00:09.8,0.00123024,-0.000188828,0.011730194,0,
00:09.8,0.001281738,-0.000120163,0.011701584,0,
00:09.8,0.001276016,-0.000114441,0.011684418,0,
00:09.8,0.00125885,-0.000160217,0.011701584,0,
00:09.8,0.00125885,-0.000154495,0.011707306,0,
00:09.8,0.00123024,-0.000188828,0.011724472,0,
00:09.8,0.001241684,-0.00019455,0.01171875,0,
00:09.8,0.001253128,-0.000200272,0.01171875,0,
00:09.8,0.00125885,-0.000200272,0.011730194,0,
00:09.8,0.001281738,-0.000171661,0.011735916,0,
00:09.8,0.001264572,-0.00019455,0.01171875,0,
00:09.8,0.001276016,-0.000183105,0.011735916,0,
00:09.8,0.00125885,-0.000211716,0.011741638,0,
00:09.8,0.001281738,-0.000188828,0.01174736,0,
00:09.8,0.001281738,-0.000200272,0.011741638,0,
00:09.8,0.001304626,-0.000143051,0.011741638,0,
00:09.8,0.001276016,-0.00019455,0.011781693,0,
00:09.8,0.001276016,-0.000240326,0.011764526,0,
00:09.8,0.001270294,-0.000234604,0.01177597,0,
00:09.8,0.001276016,-0.000217438,0.011764526,0,
00:09.8,0.001276016,-0.000246048,0.011758804,0,
00:09.8,0.001293182,-0.000228882,0.011804581,0,
00:09.8,0.001293182,-0.000228882,0.011787415,0,
00:09.8,0.001304626,-0.00022316,0.011798859,0,
00:09.9,0.001321793,-0.000217438,0.011798859,0,
00:09.9,0.001327515,-0.00019455,0.011821747,0,
00:09.9,0.001327515,-0.000228882,0.011810303,0,
00:09.9,0.00128746,-0.000286102,0.011810303,0,
00:09.9,0.001281738,-0.000274658,0.011821747,0,
00:09.9,0.001304626,-0.000257492,0.011844635,0,
00:09.9,0.001316071,-0.00028038,0.011844635,0,
00:09.9,0.001316071,-0.000268936,0.011844635,0,
00:09.9,0.001310349,-0.000234604,0.011833191,0,
00:09.9,0.001304626,-0.000263214,0.011850357,0,
00:09.9,0.001310349,-0.000286102,0.011867523,0,
00:09.9,0.001333237,-0.000257492,0.011867523,0,
00:09.9,0.001327515,-0.00028038,0.011873245,0,
00:09.9,0.001316071,-0.000314713,0.011867523,0,
00:09.9,0.001327515,-0.000286102,0.011878967,0,
00:09.9,0.001327515,-0.00028038,0.011896133,0,
00:09.9,0.001327515,-0.000314713,0.011919022,0,
00:09.9,0.001333237,-0.00030899,0.011896133,0,
00:09.9,0.001356125,-0.000268936,0.011907578,0,
00:09.9,0.001356125,-0.000291824,0.0119133,0,
00:09.9,0.001379013,-0.000274658,0.011878967,0,
00:09.9,0.001350403,-0.00030899,0.011936188,0,
00:09.9,0.001327515,-0.000349045,0.011959076,0,
00:09.9,0.001327515,-0.000343323,0.011924744,0,
00:09.9,0.001356125,-0.00030899,0.01194191,0,
00:10.0,0.001361847,-0.000297546,0.01197052,0,
00:10.0,0.001390457,-0.000297546,0.011953354,0,
00:10.0,0.001379013,-0.000343323,0.01197052,0,
00:10.0,0.001350403,-0.000377655,0.011981964,0,
00:10.0,0.001350403,-0.000343323,0.011964798,0,
00:10.0,0.001379013,-0.000326157,0.011964798,0,
00:10.0,0.001367569,-0.000337601,0.012004852,0,
00:10.0,0.001390457,-0.000331879,0.011981964,0,
00:10.0,0.001379013,-0.000354767,0.011976242,0,
00:10.0,0.001367569,-0.000394821,0.012033463,0,
00:10.0,0.001390457,-0.000371933,0.012056351,0,
00:10.0,0.001384735,-0.000354767,0.01202774,0,
00:00:10,0.001390457,-0.000366211,0.012033463,0,
00:10.0,0.001390457,-0.000371933,0.012067795,0,
00:10.0,0.001396179,-0.000371933,0.012073517,0,
00:10.0,0.001396179,-0.000371933,0.012062073,0,
00:10.0,0.001390457,-0.000394821,0.012062073,0,
00:10.0,0.001413345,-0.000366211,0.012050629,0,
00:10.0,0.001419067,-0.000383377,0.012067795,0,
00:10.0,0.001413345,-0.000383377,0.012090683,0,
00:10.0,0.001447678,-0.000337601,0.012073517,0,
00:10.0,0.001424789,-0.000377655,0.012079239,0,
00:10.0,0.001413345,-0.000411987,0.012102127,0,
00:10.0,0.001441956,-0.000411987,0.012113571,0,
00:10.0,0.001413345,-0.000423431,0.012147903,0,
00:10.1,0.001419067,-0.000417709,0.012125015,0,
00:10.1,0.001424789,-0.000417709,0.012125015,0,
00:10.1,0.001419067,-0.000452042,0.012130737,0,
00:10.1,0.001419067,-0.000429153,0.012153625,0,
00:10.1,0.001447678,-0.000406265,0.012142181,0,
00:10.1,0.001436234,-0.000440598,0.012153625,0,
00:10.1,0.001447678,-0.00044632,0.012187958,0,
00:10.1,0.001447678,-0.000452042,0.012170792,0,
00:10.1,0.001447678,-0.000434875,0.01216507,0,
00:10.1,0.001464844,-0.000423431,0.01216507,0,
00:10.1,0.001470566,-0.000423431,0.012182236,0,
00:10.1,0.001476288,-0.000457764,0.012199402,0,
00:10.1,0.001464844,-0.000463486,0.012199402,0,
00:10.1,0.001459122,-0.000463486,0.012187958,0,
00:10.1,0.001470566,-0.000463486,0.012205124,0,
00:10.1,0.001470566,-0.000469208,0.012216568,0,
00:10.1,0.001476288,-0.000469208,0.01222229,0,
00:10.1,0.001499176,-0.000452042,0.01222229,0,
00:10.1,0.001504898,-0.000469208,0.012233734,0,
00:10.1,0.001470566,-0.000514984,0.012228012,0,
00:10.1,0.001493454,-0.000497818,0.012245178,0,
00:10.1,0.001522064,-0.000452042,0.012245178,0,
00:10.1,0.001522064,-0.000463486,0.012256622,0,
00:10.1,0.001527786,-0.000463486,0.012256622,0,
00:10.1,0.001504898,-0.000520706,0.012245178,0,
00:10.2,0.001499176,-0.000520706,0.012273788,0,
00:10.2,0.00151062,-0.000509262,0.012285233,0,
00:10.2,0.001516342,-0.00050354,0.012302399,0,
00:10.2,0.001522064,-0.00050354,0.012273788,0,
00:10.2,0.00151062,-0.000543594,0.012296677,0,
00:10.2,0.001522064,-0.000537872,0.012290955,0,
00:10.2,0.001544952,-0.00050354,0.012331009,0,
00:10.2,0.001550674,-0.000497818,0.012331009,0,
00:10.2,0.001516342,-0.000537872,0.012319565,0,
00:10.2,0.001527786,-0.000526428,0.012325287,0,
00:10.2,0.001533508,-0.000537872,0.012313843,0,
00:10.2,0.001533508,-0.000549316,0.012336731,0,
00:10.2,0.001522064,-0.000577927,0.012342453,0,
00:10.2,0.001527786,-0.000577927,0.012348175,0,
00:10.2,0.001544952,-0.000549316,0.012342453,0,
00:10.2,0.001579285,-0.000520706,0.012353897,0,
00:10.2,0.001550674,-0.000566483,0.012371063,0,
00:10.2,0.001527786,-0.000606537,0.012365341,0,
00:10.2,0.001550674,-0.000577927,0.012359619,0,
00:10.2,0.001573563,-0.000555038,0.012319565,0,
00:10.2,0.001573563,-0.000577927,0.012359619,0,
00:10.2,0.001556396,-0.000566483,0.012411118,0,
00:10.2,0.001556396,-0.000583649,0.012393951,0,
00:10.2,0.001556396,-0.000617981,0.012388229,0,
00:10.2,0.001562119,-0.000617981,0.012399673,0,
00:10.3,0.001556396,-0.000617981,0.012399673,0,
00:10.3,0.001550674,-0.000612259,0.012411118,0,
00:10.3,0.001562119,-0.000612259,0.01241684,0,
00:10.3,0.001585007,-0.000595093,0.012411118,0,
00:10.3,0.001567841,-0.000617981,0.012399673,0,
00:10.3,0.001550674,-0.000640869,0.012399673,0,
00:10.3,0.001556396,-0.000629425,0.012434006,0,
00:10.3,0.001567841,-0.000629425,0.012434006,0,
00:10.3,0.001579285,-0.000623703,0.01241684,0,
00:10.3,0.001585007,-0.000623703,0.012428284,0,
00:10.3,0.001602173,-0.000595093,0.012434006,0,
00:10.3,0.001579285,-0.000635147,0.01244545,0,
00:10.3,0.001573563,-0.000640869,0.012456894,0,
00:10.3,0.001579285,-0.000663757,0.012451172,0,
00:10.3,0.001590729,-0.000663757,0.012434006,0,
00:10.3,0.001590729,-0.000669479,0.01247406,0,
00:10.3,0.001579285,-0.000669479,0.012462616,0,
00:10.3,0.001590729,-0.000652313,0.012462616,0,
00:10.3,0.001596451,-0.000669479,0.012451172,0,
00:10.3,0.001607895,-0.000658035,0.012434006,0,
00:10.3,0.001613617,-0.000635147,0.012468338,0,
