Elapsed_Time,EMG1,EMG2,EMG3,BioRadio Event,Unnamed: 5
00:00:00,0.000377655,-0.002082825,0.009624481,0,
00:00.0,0.000320435,-0.002094269,0.009618759,0,
00:00.0,0.000349045,-0.002088547,0.009647369,0,
00:00.0,0.000366211,-0.002082825,0.009681702,0,
00:00.0,0.000394821,-0.002077103,0.009618759,0,
00:00.0,0.000383377,-0.002077103,0.009618759,0,
00:00.0,0.000377655,-0.002071381,0.009630203,0,
00:00.0,0.000371933,-0.002077103,0.009635925,0,
00:00.0,0.000366211,-0.002077103,0.009641647,0,
00:00.0,0.000371933,-0.002077103,0.009653091,0,
00:00.0,0.000371933,-0.002071381,0.009630203,0,
00:00.0,0.000377655,-0.002077103,0.009595871,0,
00:00.0,0.000366211,-0.002082825,0.009624481,0,
00:00.1,0.000366211,-0.002077103,0.009584427,0,
00:00.1,0.000360489,-0.002077103,0.009687424,0,
00:00.1,0.000354767,-0.002082825,0.009681702,0,
00:00.1,0.000354767,-0.002071381,0.009613037,0,
00:00.1,0.000354767,-0.002077103,0.009613037,0,
00:00.1,0.000371933,-0.002077103,0.009681702,0,
00:00.1,0.000360489,-0.002077103,0.009658813,0,
00:00.1,0.000354767,-0.002077103,0.009647369,0,
00:00.1,0.000383377,-0.002071381,0.009607315,0,
00:00.1,0.000371933,-0.002065659,0.009590149,0,
00:00.1,0.000360489,-0.002065659,0.009641647,0,
00:00.1,0.000383377,-0.002065659,0.009595871,0,
00:00.1,0.000366211,-0.002065659,0.009653091,0,
00:00.1,0.000337601,-0.002071381,0.00967598,0,
00:00.1,0.000360489,-0.002071381,0.00967598,0,
00:00.1,0.000389099,-0.002071381,0.009647369,0,
00:00.1,0.000371933,-0.002071381,0.009681702,0,
00:00.1,0.000354767,-0.002059937,0.009670258,0,
00:00.1,0.000354767,-0.002048492,0.009647369,0,
00:00.1,0.000360489,-0.002059937,0.009653091,0,
00:00.1,0.000366211,-0.002071381,0.009607315,0,
00:00.1,0.000349045,-0.002065659,0.009670258,0,
00:00.1,0.000331879,-0.002065659,0.00967598,0,
00:00.1,0.000314713,-0.002065659,0.009664536,0,
00:00.1,0.000354767,-0.002059937,0.009624481,0,
00:00.2,0.000371933,-0.002065659,0.009601593,0,
00:00.2,0.000326157,-0.002065659,0.009618759,0,
00:00.2,0.000349045,-0.002059937,0.00967598,0,
00:00.2,0.000366211,-0.002059937,0.009670258,0,
00:00.2,0.000366211,-0.002065659,0.009698868,0,
00:00.2,0.000354767,-0.002059937,0.009670258,0,
00:00.2,0.000343323,-0.002054214,0.009670258,0,
00:00.2,0.000366211,-0.002054214,0.009635925,0,
00:00.2,0.000349045,-0.002071381,0.009624481,0,
00:00.2,0.000331879,-0.002071381,0.009744644,0,
00:00.2,0.000366211,-0.002059937,0.009681702,0,
00:00.2,0.000371933,-0.002054214,0.009658813,0,
00:00.2,0.000371933,-0.002054214,0.00967598,0,
00:00.2,0.000383377,-0.002048492,0.009647369,0,
00:00.2,0.000337601,-0.002054214,0.00967598,0,
00:00.2,0.000337601,-0.002054214,0.00967598,0,
00:00.2,0.000354767,-0.002054214,0.009681702,0,
00:00.2,0.000371933,-0.002048492,0.009658813,0,
00:00.2,0.000360489,-0.002054214,0.009647369,0,
00:00.2,0.000349045,-0.002059937,0.009641647,0,
00:00.2,0.000331879,-0.002054214,0.009658813,0,
00:00.2,0.000349045,-0.002048492,0.009716034,0,
00:00.2,0.000343323,-0.002048492,0.009618759,0,
00:00.2,0.000349045,-0.002054214,0.009635925,0,
00:00.2,0.000360489,-0.002054214,0.009687424,0,
00:00.3,0.000354767,-0.002048492,0.009681702,0,
00:00.3,0.000360489,-0.00204277,0.009721756,0,
00:00.3,0.000331879,-0.00204277,0.009693146,0,
00:00.3,0.000354767,-0.00204277,0.00967598,0,
00:00.3,0.000360489,-0.002054214,0.009693146,0,
00:00.3,0.000354767,-0.002048492,0.009670258,0,
00:00.3,0.000320435,-0.002059937,0.009635925,0,
00:00.3,0.000360489,-0.002048492,0.009738922,0,
00:00.3,0.000349045,-0.00204277,0.009681702,0,
00:00.3,0.000331879,-0.00204277,0.009681702,0,
00:00.3,0.000320435,-0.002037048,0.009693146,0,
00:00.3,0.000343323,-0.00204277,0.009710312,0,
00:00.3,0.000360489,-0.002037048,0.009647369,0,
00:00.3,0.000331879,-0.002048492,0.009658813,0,
00:00.3,0.000360489,-0.00204277,0.009687424,0,
00:00.3,0.000349045,-0.00204277,0.009698868,0,
00:00.3,0.000349045,-0.002037048,0.009721756,0,
00:00.3,0.000349045,-0.00204277,0.009670258,0,
00:00.3,0.000349045,-0.002037048,0.009664536,0,
00:00.3,0.000343323,-0.00204277,0.009698868,0,
00:00.3,0.000337601,-0.002037048,0.009658813,0,
00:00.3,0.000366211,-0.002025604,0.009664536,0,
00:00.3,0.000349045,-0.002037048,0.009698868,0,
00:00.3,0.00030899,-0.00204277,0.00970459,0,
00:00.3,0.000320435,-0.002031326,0.00967598,0,
00:00.4,0.000354767,-0.002037048,0.00970459,0,
00:00.4,0.000343323,-0.002037048,0.009681702,0,
00:00.4,0.000343323,-0.002037048,0.0097332,0,
00:00.4,0.000320435,-0.002054214,0.00970459,0,
00:00.4,0.000320435,-0.002048492,0.009721756,0,
00:00.4,0.000349045,-0.002025604,0.009698868,0,
00:00.4,0.000349045,-0.002019882,0.009687424,0,
00:00.4,0.000331879,-0.002025604,0.009681702,0,
00:00.4,0.000360489,-0.00201416,0.009693146,0,
00:00.4,0.000349045,-0.002025604,0.009658813,0,
00:00.4,0.00030899,-0.00204277,0.00967598,0,
00:00.4,0.000286102,-0.002048492,0.0097332,0,
00:00.4,0.000383377,-0.002019882,0.009670258,0,
00:00.4,0.000366211,-0.002008438,0.009687424,0,
00:00.4,0.000349045,-0.002019882,0.009681702,0,
00:00.4,0.000320435,-0.002031326,0.009681702,0,
00:00.4,0.000343323,-0.002025604,0.009658813,0,
00:00.4,0.000314713,-0.002025604,0.009658813,0,
00:00.4,0.000337601,-0.00201416,0.009693146,0,
00:00.4,0.000360489,-0.00201416,0.009693146,0,
00:00.4,0.000320435,-0.002031326,0.009698868,0,
00:00.4,0.000320435,-0.002019882,0.009710312,0,
00:00.4,0.000314713,-0.002025604,0.009698868,0,
00:00.4,0.000354767,-0.00201416,0.009727478,0,
00:00.4,0.000354767,-0.002019882,0.00967598,0,
00:00.5,0.000343323,-0.002025604,0.009630203,0,
00:00.5,0.000320435,-0.002019882,0.009727478,0,
00:00.5,0.000326157,-0.002031326,0.009710312,0,
00:00.5,0.000326157,-0.002025604,0.00970459,0,
00:00.5,0.00030899,-0.002025604,0.00970459,0,
00:00.5,0.000320435,-0.002025604,0.009710312,0,
00:00.5,0.000371933,-0.002019882,0.009693146,0,
00:00.5,0.000360489,-0.00201416,0.009727478,0,
00:00.5,0.000337601,-0.002008438,0.009670258,0,
00:00.5,0.000326157,-0.002008438,0.009664536,0,
00:00.5,0.000337601,-0.00201416,0.009727478,0,
00:00.5,0.000326157,-0.002019882,0.009727478,0,
00:00.5,0.000326157,-0.002019882,0.009698868,0,
00:00.5,0.000343323,-0.00201416,0.009653091,0,
00:00.5,0.000326157,-0.002019882,0.009670258,0,
00:00.5,0.000337601,-0.002002716,0.0097332,0,
00:00.5,0.000360489,-0.002008438,0.009607315,0,
00:00.5,0.000326157,-0.002019882,0.009716034,0,
00:00.5,0.000326157,-0.00201416,0.009698868,0,
00:00.5,0.000303268,-0.00201416,0.009698868,0,
00:00.5,0.000303268,-0.002019882,0.009727478,0,
00:00.5,0.000337601,-0.00201416,0.009716034,0,
00:00.5,0.000354767,-0.00201416,0.009710312,0,
00:00.5,0.000349045,-0.002002716,0.009653091,0,
00:00.5,0.00030899,-0.002008438,0.009693146,0,
00:00.6,0.000257492,-0.002025604,0.009727478,0,
00:00.6,0.000337601,-0.00201416,0.009738922,0,
00:00.6,0.000366211,-0.001996994,0.009687424,0,
00:00.6,0.000343323,-0.001996994,0.009670258,0,
00:00.6,0.000326157,-0.002002716,0.009716034,0,
00:00.6,0.000320435,-0.00201416,0.009716034,0,
00:00.6,0.000326157,-0.00201416,0.009710312,0,
00:00.6,0.000354767,-0.001991272,0.009561539,0,
00:00.6,0.000337601,-0.002002716,0.009687424,0,
00:00.6,0.000314713,-0.002008438,0.009767532,0,
00:00.6,0.000320435,-0.002002716,0.009721756,0,
00:00.6,0.000314713,-0.002002716,0.009727478,0,
00:00.6,0.000314713,-0.002008438,0.0097332,0,
00:00.6,0.000320435,-0.002002716,0.009721756,0,
00:00.6,0.000320435,-0.001996994,0.009710312,0,
00:00.6,0.000326157,-0.001996994,0.009716034,0,
00:00.6,0.000303268,-0.002002716,0.009727478,0,
00:00.6,0.000320435,-0.001991272,0.009693146,0,
00:00.6,0.00030899,-0.002002716,0.009681702,0,
00:00.6,0.000343323,-0.001996994,0.009681702,0,
00:00.6,0.000320435,-0.001996994,0.009721756,0,
00:00.6,0.000303268,-0.002002716,0.009750366,0,
00:00.6,0.000303268,-0.001996994,0.009727478,0,
00:00.6,0.000303268,-0.001991272,0.009687424,0,
00:00.6,0.000314713,-0.001996994,0.009727478,0,
00:00.7,0.000320435,-0.001991272,0.009716034,0,
00:00.7,0.000320435,-0.002008438,0.009624481,0,
00:00.7,0.000349045,-0.001996994,0.009750366,0,
00:00.7,0.00030899,-0.001996994,0.009698868,0,
00:00.7,0.000263214,-0.001996994,0.009738922,0,
00:00.7,0.000343323,-0.00198555,0.009716034,0,
00:00.7,0.000337601,-0.00198555,0.009721756,0,
00:00.7,0.000314713,-0.001991272,0.009716034,0,
00:00.7,0.000291824,-0.001996994,0.0097332,0,
00:00.7,0.000314713,-0.001991272,0.009738922,0,
00:00.7,0.000303268,-0.00198555,0.0097332,0,
00:00.7,0.00030899,-0.001991272,0.009721756,0,
00:00.7,0.000337601,-0.001991272,0.009698868,0,
00:00.7,0.000320435,-0.001991272,0.009716034,0,
00:00.7,0.000314713,-0.001979828,0.009698868,0,
00:00.7,0.000303268,-0.001991272,0.009681702,0,
00:00.7,0.000303268,-0.001996994,0.009664536,0,
00:00.7,0.00030899,-0.001991272,0.009670258,0,
00:00.7,0.000297546,-0.00198555,0.009767532,0,
00:00.7,0.000331879,-0.00198555,0.009750366,0,
00:00.7,0.000320435,-0.00198555,0.00970459,0,
00:00.7,0.000331879,-0.001979828,0.00970459,0,
00:00.7,0.00030899,-0.001979828,0.009721756,0,
00:00.7,0.000291824,-0.001979828,0.009738922,0,
00:00.7,0.000331879,-0.001974106,0.009681702,0,
00:00.8,0.000297546,-0.00198555,0.009750366,0,
00:00.8,0.000303268,-0.001991272,0.009681702,0,
00:00.8,0.000291824,-0.001979828,0.009721756,0,
00:00.8,0.00030899,-0.001974106,0.009681702,0,
00:00.8,0.000291824,-0.001974106,0.009738922,0,
00:00.8,0.00028038,-0.001974106,0.009744644,0,
00:00.8,0.000297546,-0.001979828,0.009716034,0,
00:00.8,0.000326157,-0.001968384,0.009687424,0,
00:00.8,0.000331879,-0.001979828,0.009641647,0,
00:00.8,0.000303268,-0.00198555,0.0097332,0,
00:00.8,0.000297546,-0.001974106,0.009721756,0,
00:00.8,0.000297546,-0.001968384,0.00976181,0,
00:00.8,0.000286102,-0.001974106,0.009750366,0,
00:00.8,0.000297546,-0.001974106,0.009693146,0,
00:00.8,0.000320435,-0.001974106,0.009693146,0,
00:00.8,0.000286102,-0.001979828,0.009738922,0,
00:00.8,0.000314713,-0.001974106,0.009710312,0,
00:00.8,0.000303268,-0.001974106,0.009727478,0,
00:00.8,0.000297546,-0.001974106,0.009721756,0,
00:00.8,0.00030899,-0.001962662,0.00970459,0,
00:00.8,0.000286102,-0.001979828,0.009710312,0,
00:00.8,0.000297546,-0.001968384,0.009693146,0,
00:00.8,0.000337601,-0.001968384,0.00967598,0,
00:00.8,0.000286102,-0.001979828,0.0097332,0,
00:00.8,0.000291824,-0.001974106,0.009738922,0,
00:00.9,0.000268936,-0.001991272,0.009716034,0,
00:00.9,0.00030899,-0.001974106,0.00976181,0,
00:00.9,0.00030899,-0.001968384,0.00967598,0,
00:00.9,0.000268936,-0.001968384,0.009681702,0,
00:00.9,0.000303268,-0.00195694,0.009698868,0,
00:00.9,0.000314713,-0.001962662,0.009664536,0,
00:00.9,0.000297546,-0.001968384,0.009744644,0,
00:00.9,0.000314713,-0.001968384,0.009750366,0,
00:00.9,0.000297546,-0.001974106,0.009750366,0,
00:00.9,0.000263214,-0.001968384,0.009738922,0,
00:00.9,0.000286102,-0.00195694,0.009744644,0,
00:00.9,0.000291824,-0.00195694,0.009710312,0,
00:00.9,0.000314713,-0.001968384,0.009670258,0,
00:00.9,0.000291824,-0.001962662,0.009767532,0,
00:00.9,0.00028038,-0.00195694,0.009738922,0,
00:00.9,0.000291824,-0.00195694,0.009756088,0,
00:00.9,0.000320435,-0.001951218,0.009710312,0,
00:00.9,0.00030899,-0.001962662,0.009750366,0,
00:00.9,0.000286102,-0.001962662,0.009710312,0,
00:00.9,0.00030899,-0.001951218,0.009687424,0,
00:00.9,0.000274658,-0.001968384,0.0097332,0,
00:00.9,0.000274658,-0.001962662,0.0097332,0,
00:00.9,0.000286102,-0.001968384,0.0097332,0,
00:00.9,0.000246048,-0.001974106,0.009727478,0,
00:00.9,0.00030899,-0.001962662,0.009693146,0,
00:01.0,0.000314713,-0.001939774,0.00976181,0,
00:01.0,0.000314713,-0.001939774,0.0097332,0,
00:01.0,0.000303268,-0.001945496,0.009710312,0,
00:01.0,0.000297546,-0.001945496,0.009710312,0,
00:01.0,0.000314713,-0.001945496,0.009670258,0,
00:01.0,0.000274658,-0.001951218,0.009767532,0,
00:01.0,0.000268936,-0.00195694,0.009796143,0,
00:01.0,0.000291824,-0.001968384,0.009756088,0,
00:01.0,0.000297546,-0.00195694,0.009750366,0,
00:01.0,0.000268936,-0.00195694,0.009721756,0,
00:01.0,0.00028038,-0.00195694,0.009738922,0,
00:01.0,0.000268936,-0.001945496,0.009710312,0,
00:00:01,0.000297546,-0.001951218,0.0097332,0,
00:01.0,0.000297546,-0.001951218,0.009721756,0,
00:01.0,0.000274658,-0.001951218,0.009727478,0,
00:01.0,0.000291824,-0.001945496,0.0097332,0,
00:01.0,0.000314713,-0.001934052,0.00970459,0,
00:01.0,0.000274658,-0.00195694,0.0097332,0,
00:01.0,0.000274658,-0.001962662,0.009773254,0,
00:01.0,0.000286102,-0.001951218,0.009698868,0,
00:01.0,0.000297546,-0.001934052,0.009727478,0,
00:01.0,0.000268936,-0.001939774,0.009801865,0,
00:01.0,0.000268936,-0.001951218,0.009773254,0,
00:01.0,0.000291824,-0.001945496,0.00976181,0,
00:01.0,0.000291824,-0.001939774,0.009744644,0,
00:01.1,0.000274658,-0.001939774,0.009767532,0,
00:01.1,0.000314713,-0.001934052,0.009756088,0,
00:01.1,0.000303268,-0.001939774,0.009687424,0,
00:01.1,0.00028038,-0.001934052,0.009698868,0,
00:01.1,0.000274658,-0.001939774,0.009767532,0,
00:01.1,0.000268936,-0.001934052,0.009773254,0,
00:01.1,0.000268936,-0.001934052,0.009756088,0,
00:01.1,0.00025177,-0.001951218,0.009767532,0,
00:01.1,0.000268936,-0.001945496,0.009756088,0,
00:01.1,0.000274658,-0.001939774,0.00970459,0,
00:01.1,0.00030899,-0.001928329,0.009767532,0,
00:01.1,0.00028038,-0.001945496,0.009750366,0,
00:01.1,0.00025177,-0.001945496,0.009767532,0,
00:01.1,0.000274658,-0.001945496,0.009767532,0,
00:01.1,0.000303268,-0.001928329,0.009773254,0,
00:01.1,0.000263214,-0.001934052,0.009773254,0,
00:01.1,0.000291824,-0.001928329,0.009744644,0,
00:01.1,0.00028038,-0.001945496,0.00976181,0,
00:01.1,0.00028038,-0.001934052,0.009767532,0,
00:01.1,0.000286102,-0.001922607,0.009767532,0,
00:01.1,0.000286102,-0.001928329,0.009744644,0,
00:01.1,0.000263214,-0.001928329,0.009773254,0,
00:01.1,0.000274658,-0.001934052,0.009710312,0,
00:01.1,0.000263214,-0.001934052,0.009716034,0,
00:01.1,0.00025177,-0.001934052,0.009830475,0,
00:01.2,0.000268936,-0.001934052,0.009767532,0,
00:01.2,0.000291824,-0.001934052,0.009773254,0,
00:01.2,0.000274658,-0.001928329,0.009773254,0,
00:01.2,0.000211716,-0.001934052,0.00970459,0,
00:01.2,0.000257492,-0.001928329,0.009756088,0,
00:01.2,0.000274658,-0.001922607,0.00976181,0,
00:01.2,0.000297546,-0.001916885,0.009750366,0,
00:01.2,0.000286102,-0.001922607,0.009744644,0,
00:01.2,0.000286102,-0.001928329,0.009767532,0,
00:01.2,0.000240326,-0.001916885,0.009778976,0,
00:01.2,0.000274658,-0.001911163,0.00976181,0,
00:01.2,0.000297546,-0.001922607,0.009756088,0,
00:01.2,0.000274658,-0.001928329,0.009778976,0,
00:01.2,0.000286102,-0.001916885,0.009767532,0,
00:01.2,0.000268936,-0.001911163,0.009710312,0,
00:01.2,0.000268936,-0.001911163,0.009773254,0,
00:01.2,0.000257492,-0.001934052,0.009801865,0,
00:01.2,0.000240326,-0.001939774,0.009784698,0,
00:01.2,0.000246048,-0.001939774,0.009756088,0,
00:01.2,0.000263214,-0.001934052,0.009750366,0,
00:01.2,0.000274658,-0.001916885,0.009767532,0,
00:01.2,0.00028038,-0.001911163,0.0097332,0,
00:01.2,0.000257492,-0.001911163,0.009721756,0,
00:01.2,0.000263214,-0.001911163,0.0097332,0,
00:01.2,0.00028038,-0.001922607,0.009796143,0,
00:01.3,0.00025177,-0.001916885,0.009784698,0,
00:01.3,0.00025177,-0.001911163,0.009750366,0,
00:01.3,0.000257492,-0.001916885,0.009767532,0,
00:01.3,0.000257492,-0.001922607,0.009756088,0,
00:01.3,0.000263214,-0.001922607,0.009738922,0,
00:01.3,0.000268936,-0.001911163,0.009727478,0,
00:01.3,0.000263214,-0.001905441,0.009796143,0,
00:01.3,0.000274658,-0.001911163,0.00976181,0,
00:01.3,0.000263214,-0.001905441,0.009778976,0,
00:01.3,0.000268936,-0.001905441,0.009778976,0,
00:01.3,0.000263214,-0.001916885,0.009767532,0,
00:01.3,0.00025177,-0.001911163,0.009756088,0,
00:01.3,0.000263214,-0.001899719,0.009796143,0,
00:01.3,0.000274658,-0.001899719,0.009790421,0,
00:01.3,0.000257492,-0.001899719,0.009767532,0,
00:01.3,0.00025177,-0.001911163,0.009750366,0,
00:01.3,0.000257492,-0.001905441,0.009790421,0,
00:01.3,0.000268936,-0.001899719,0.009767532,0,
00:01.3,0.000263214,-0.001899719,0.00976181,0,
00:01.3,0.000257492,-0.001905441,0.009807587,0,
00:01.3,0.000263214,-0.001905441,0.009738922,0,
00:01.3,0.00022316,-0.001916885,0.009750366,0,
00:01.3,0.00025177,-0.001893997,0.009773254,0,
00:01.3,0.000257492,-0.001888275,0.009778976,0,
00:01.3,0.000263214,-0.001888275,0.009801865,0,
00:01.4,0.000211716,-0.001911163,0.009807587,0,
00:01.4,0.000246048,-0.001905441,0.0097332,0,
00:01.4,0.000263214,-0.001893997,0.009784698,0,
00:01.4,0.00025177,-0.001899719,0.00976181,0,
00:01.4,0.000268936,-0.001899719,0.009796143,0,
00:01.4,0.000274658,-0.001899719,0.009744644,0,
00:01.4,0.000257492,-0.001893997,0.009796143,0,
00:01.4,0.000228882,-0.001911163,0.009813309,0,
00:01.4,0.00028038,-0.001905441,0.009790421,0,
00:01.4,0.000274658,-0.001882553,0.009756088,0,
00:01.4,0.000246048,-0.001888275,0.009790421,0,
00:01.4,0.000268936,-0.001888275,0.009710312,0,
00:01.4,0.000240326,-0.001893997,0.009778976,0,
00:01.4,0.000217438,-0.001899719,0.009824753,0,
00:01.4,0.000246048,-0.001893997,0.00976181,0,
00:01.4,0.000240326,-0.001893997,0.009790421,0,
00:01.4,0.000246048,-0.001893997,0.009801865,0,
00:01.4,0.000257492,-0.001882553,0.009767532,0,
00:01.4,0.000263214,-0.001888275,0.009767532,0,
00:01.4,0.000268936,-0.001888275,0.009727478,0,
00:01.4,0.000246048,-0.001888275,0.009744644,0,
00:01.4,0.000234604,-0.001888275,0.009750366,0,
00:01.4,0.000234604,-0.001893997,0.009750366,0,
00:01.4,0.00025177,-0.001893997,0.009801865,0,
00:01.4,0.000246048,-0.001888275,0.009813309,0,
00:01.5,0.000240326,-0.001888275,0.009807587,0,
00:01.5,0.00025177,-0.001882553,0.009784698,0,
00:01.5,0.000257492,-0.001888275,0.0097332,0,
00:01.5,0.000240326,-0.001893997,0.009784698,0,
00:01.5,0.000246048,-0.001893997,0.009801865,0,
00:01.5,0.000274658,-0.001893997,0.009784698,0,
00:01.5,0.000257492,-0.001876831,0.009744644,0,
00:01.5,0.000240326,-0.001882553,0.009790421,0,
00:01.5,0.00022316,-0.001882553,0.009773254,0,
00:01.5,0.000246048,-0.001888275,0.009744644,0,
00:01.5,0.000240326,-0.001888275,0.009738922,0,
00:01.5,0.000268936,-0.001876831,0.009744644,0,
00:01.5,0.000246048,-0.001888275,0.009801865,0,
00:01.5,0.000240326,-0.001888275,0.009807587,0,
00:01.5,0.000228882,-0.001888275,0.009738922,0,
00:01.5,0.00025177,-0.001882553,0.00970459,0,
00:01.5,0.000257492,-0.001876831,0.009778976,0,
00:01.5,0.000240326,-0.001888275,0.009819031,0,
00:01.5,0.00022316,-0.001882553,0.009773254,0,
00:01.5,0.000211716,-0.001888275,0.009790421,0,
00:01.5,0.000274658,-0.001876831,0.009767532,0,
00:01.5,0.000268936,-0.001865387,0.009784698,0,
00:01.5,0.00025177,-0.001882553,0.009744644,0,
00:01.5,0.000234604,-0.001888275,0.009819031,0,
00:01.5,0.000234604,-0.001882553,0.009807587,0,
00:01.6,0.000234604,-0.001882553,0.009790421,0,
00:01.6,0.000217438,-0.001876831,0.009756088,0,
00:01.6,0.000217438,-0.001876831,0.009744644,0,
00:01.6,0.000240326,-0.001871109,0.009744644,0,
00:01.6,0.000268936,-0.001871109,0.009773254,0,
00:01.6,0.000240326,-0.001876831,0.009824753,0,
00:01.6,0.000246048,-0.001876831,0.009796143,0,
00:01.6,0.000246048,-0.001876831,0.009796143,0,
00:01.6,0.000240326,-0.001876831,0.009790421,0,
00:01.6,0.000240326,-0.001871109,0.009796143,0,
00:01.6,0.000240326,-0.001865387,0.009796143,0,
00:01.6,0.00019455,-0.001865387,0.009698868,0,
00:01.6,0.000234604,-0.001865387,0.009756088,0,
00:01.6,0.000274658,-0.001871109,0.009784698,0,
00:01.6,0.000257492,-0.001859665,0.009778976,0,
00:01.6,0.000240326,-0.001865387,0.009819031,0,
00:01.6,0.000234604,-0.001865387,0.009847641,0,
00:01.6,0.000234604,-0.001865387,0.009807587,0,
00:01.6,0.000234604,-0.001876831,0.009790421,0,
00:01.6,0.000234604,-0.001871109,0.009773254,0,
00:01.6,0.000234604,-0.001876831,0.009796143,0,
00:01.6,0.00022316,-0.001871109,0.009801865,0,
00:01.6,0.000234604,-0.001853943,0.009784698,0,
00:01.6,0.000234604,-0.001853943,0.009819031,0,
00:01.6,0.000246048,-0.001853943,0.00976181,0,
00:01.7,0.000171661,-0.001865387,0.009773254,0,
00:01.7,0.00022316,-0.001865387,0.009773254,0,
00:01.7,0.000257492,-0.001865387,0.009738922,0,
00:01.7,0.000234604,-0.001859665,0.009836197,0,
00:01.7,0.000286102,-0.001853943,0.009773254,0,
00:01.7,0.000246048,-0.001865387,0.009778976,0,
00:01.7,0.00022316,-0.001865387,0.009847641,0,
00:01.7,0.00022316,-0.001876831,0.009870529,0,
00:01.7,0.00022316,-0.001871109,0.009819031,0,
00:01.7,0.000217438,-0.001865387,0.009813309,0,
00:01.7,0.000228882,-0.001859665,0.009813309,0,
00:01.7,0.000228882,-0.001848221,0.009819031,0,
00:01.7,0.000228882,-0.001848221,0.009784698,0,
00:01.7,0.000240326,-0.001859665,0.009744644,0,
00:01.7,0.000205994,-0.001853943,0.009824753,0,
00:01.7,0.000211716,-0.001859665,0.009819031,0,
00:01.7,0.000263214,-0.001859665,0.009790421,0,
00:01.7,0.00025177,-0.001865387,0.009813309,0,
00:01.7,0.000234604,-0.001865387,0.009830475,0,
00:01.7,0.000211716,-0.001853943,0.009819031,0,
00:01.7,0.000228882,-0.001842499,0.009807587,0,
00:01.7,0.000246048,-0.001842499,0.009744644,0,
00:01.7,0.000217438,-0.001848221,0.00970459,0,
00:01.7,0.000188828,-0.001859665,0.009893417,0,
00:01.7,0.000205994,-0.001853943,0.009841919,0,
00:01.8,0.000240326,-0.001842499,0.009773254,0,
00:01.8,0.000217438,-0.001853943,0.009790421,0,
00:01.8,0.00022316,-0.001848221,0.009824753,0,
00:01.8,0.000246048,-0.001836777,0.009767532,0,
00:01.8,0.000240326,-0.001842499,0.009796143,0,
00:01.8,0.000234604,-0.001842499,0.009830475,0,
00:01.8,0.000246048,-0.001853943,0.009836197,0,
00:01.8,0.000217438,-0.001871109,0.009836197,0,
00:01.8,0.00019455,-0.001865387,0.009836197,0,
00:01.8,0.000217438,-0.001848221,0.009801865,0,
00:01.8,0.000228882,-0.001836777,0.009813309,0,
00:01.8,0.000228882,-0.001848221,0.009836197,0,
00:01.8,0.00022316,-0.001848221,0.009767532,0,
00:01.8,0.000217438,-0.001848221,0.009807587,0,
00:01.8,0.000211716,-0.001848221,0.009847641,0,
00:01.8,0.000205994,-0.001842499,0.009801865,0,
00:01.8,0.000234604,-0.001836777,0.009836197,0,
00:01.8,0.00022316,-0.001853943,0.009790421,0,
00:01.8,0.000205994,-0.001853943,0.009813309,0,
00:01.8,0.000165939,-0.001859665,0.009830475,0,
00:01.8,0.000240326,-0.001848221,0.009813309,0,
00:01.8,0.000240326,-0.001831055,0.009784698,0,
00:01.8,0.000211716,-0.001831055,0.009876251,0,
00:01.8,0.000217438,-0.001825333,0.009813309,0,
00:01.8,0.000240326,-0.001819611,0.009824753,0,
00:01.9,0.00022316,-0.001836777,0.009847641,0,
00:01.9,0.00019455,-0.001848221,0.009807587,0,
00:01.9,0.000211716,-0.001836777,0.009824753,0,
00:01.9,0.000211716,-0.001842499,0.009853363,0,
00:01.9,0.000217438,-0.001842499,0.009853363,0,
00:01.9,0.000211716,-0.001836777,0.009847641,0,
00:01.9,0.000205994,-0.001831055,0.009836197,0,
00:01.9,0.000205994,-0.001831055,0.009830475,0,
00:01.9,0.00022316,-0.001831055,0.009824753,0,
00:01.9,0.00022316,-0.001831055,0.009830475,0,
00:01.9,0.000200272,-0.001831055,0.009836197,0,
00:01.9,0.000217438,-0.001842499,0.009853363,0,
00:01.9,0.000217438,-0.001842499,0.009830475,0,
00:01.9,0.000211716,-0.001836777,0.009847641,0,
00:01.9,0.000211716,-0.001831055,0.009864807,0,
00:01.9,0.000200272,-0.001825333,0.009847641,0,
00:01.9,0.000211716,-0.001836777,0.009824753,0,
00:01.9,0.00022316,-0.001831055,0.009819031,0,
00:01.9,0.000228882,-0.001831055,0.009773254,0,
00:01.9,0.000200272,-0.001836777,0.009847641,0,
00:01.9,0.000188828,-0.001836777,0.009864807,0,
00:01.9,0.00019455,-0.001836777,0.009899139,0,
00:01.9,0.000188828,-0.001825333,0.009859085,0,
00:01.9,0.000217438,-0.001808167,0.009853363,0,
00:01.9,0.000211716,-0.001819611,0.009847641,0,
00:02.0,0.000211716,-0.001825333,0.009830475,0,
00:02.0,0.000183105,-0.001831055,0.009916306,0,
00:02.0,0.00022316,-0.001819611,0.009876251,0,
00:02.0,0.000183105,-0.001819611,0.009881973,0,
00:02.0,0.000217438,-0.001825333,0.009881973,0,
00:02.0,0.000228882,-0.001831055,0.009864807,0,
00:02.0,0.00022316,-0.001825333,0.009841919,0,
00:02.0,0.000217438,-0.001819611,0.009830475,0,
00:02.0,0.000205994,-0.001831055,0.00992775,0,
00:02.0,0.000211716,-0.001831055,0.009893417,0,
00:02.0,0.000217438,-0.001819611,0.009876251,0,
00:02.0,0.000211716,-0.001813889,0.009876251,0,
00:00:02,0.00019455,-0.001825333,0.009876251,0,
00:02.0,0.000200272,-0.001819611,0.009904861,0,
00:02.0,0.00019455,-0.001825333,0.009887695,0,
00:02.0,0.000188828,-0.001825333,0.009916306,0,
00:02.0,0.000205994,-0.001831055,0.009870529,0,
00:02.0,0.00019455,-0.001836777,0.009887695,0,
00:02.0,0.000183105,-0.001831055,0.009887695,0,
00:02.0,0.000217438,-0.001808167,0.009893417,0,
00:02.0,0.000205994,-0.001819611,0.009859085,0,
00:02.0,0.000211716,-0.001813889,0.009899139,0,
00:02.0,0.000205994,-0.001813889,0.00992775,0,
00:02.0,0.000183105,-0.001825333,0.009904861,0,
00:02.0,0.00019455,-0.001819611,0.009910583,0,
00:02.1,0.000217438,-0.001813889,0.009887695,0,
00:02.1,0.00025177,-0.001825333,0.009899139,0,
00:02.1,0.000211716,-0.001825333,0.009899139,0,
00:02.1,0.000188828,-0.001813889,0.009939194,0,
00:02.1,0.00019455,-0.001813889,0.00992775,0,
00:02.1,0.00019455,-0.001831055,0.009893417,0,
00:02.1,0.000211716,-0.001831055,0.009870529,0,
00:02.1,0.000200272,-0.001825333,0.009899139,0,
00:02.1,0.00019455,-0.001813889,0.009916306,0,
00:02.1,0.000177383,-0.001813889,0.009876251,0,
00:02.1,0.000205994,-0.001802444,0.00995636,0,
00:02.1,0.000200272,-0.001819611,0.009922028,0,
00:02.1,0.00019455,-0.001819611,0.009939194,0,
00:02.1,0.000200272,-0.001819611,0.009933472,0,
00:02.1,0.000200272,-0.001819611,0.009910583,0,
00:02.1,0.000200272,-0.001819611,0.009933472,0,
00:02.1,0.00019455,-0.001819611,0.009950638,0,
00:02.1,0.000200272,-0.001825333,0.009933472,0,
00:02.1,0.000200272,-0.001819611,0.009904861,0,
00:02.1,0.000200272,-0.001819611,0.009922028,0,
00:02.1,0.00019455,-0.001825333,0.009939194,0,
00:02.1,0.000183105,-0.001819611,0.00992775,0,
00:02.1,0.000200272,-0.001808167,0.009950638,0,
00:02.1,0.00022316,-0.001808167,0.009944916,0,
00:02.1,0.000200272,-0.001819611,0.00992775,0,
00:02.2,0.00019455,-0.001825333,0.009939194,0,
00:02.2,0.00019455,-0.001819611,0.00995636,0,
00:02.2,0.000200272,-0.001819611,0.009962082,0,
00:02.2,0.00019455,-0.001825333,0.009939194,0,
00:02.2,0.000183105,-0.001825333,0.009950638,0,
00:02.2,0.000183105,-0.001813889,0.009950638,0,
00:02.2,0.00022316,-0.001808167,0.009944916,0,
00:02.2,0.000217438,-0.001813889,0.009950638,0,
00:02.2,0.000183105,-0.001813889,0.009962082,0,
00:02.2,0.000200272,-0.001819611,0.009944916,0,
00:02.2,0.000217438,-0.001825333,0.009933472,0,
00:02.2,0.000183105,-0.001825333,0.00998497,0,
00:02.2,0.000188828,-0.001831055,0.009922028,0,
00:02.2,0.000177383,-0.001831055,0.010019302,0,
00:02.2,0.000183105,-0.001836777,0.010019302,0,
00:02.2,0.000177383,-0.001831055,0.010007858,0,
00:02.2,0.000188828,-0.001819611,0.009979248,0,
00:02.2,0.000188828,-0.001819611,0.009996414,0,
00:02.2,0.000211716,-0.001813889,0.009979248,0,
00:02.2,0.00019455,-0.001825333,0.009996414,0,
00:02.2,0.000200272,-0.001813889,0.009990692,0,
00:02.2,0.000205994,-0.001819611,0.009933472,0,
00:02.2,0.000200272,-0.001831055,0.01001358,0,
00:02.2,0.00019455,-0.001825333,0.00998497,0,
00:02.2,0.000183105,-0.001819611,0.010025024,0,
00:02.3,0.00019455,-0.001825333,0.010025024,0,
00:02.3,0.00019455,-0.001825333,0.00998497,0,
00:02.3,0.00022316,-0.001819611,0.009944916,0,
00:02.3,0.00019455,-0.001825333,0.010036469,0,
00:02.3,0.000205994,-0.001831055,0.010036469,0,
00:02.3,0.000188828,-0.001831055,0.010025024,0,
00:02.3,0.000183105,-0.001825333,0.010047913,0,
00:02.3,0.000183105,-0.001831055,0.010047913,0,
00:02.3,0.000160217,-0.001842499,0.010036469,0,
00:02.3,0.000205994,-0.001836777,0.009996414,0,
00:02.3,0.00022316,-0.001825333,0.010002136,0,
00:02.3,0.000205994,-0.001813889,0.009990692,0,
00:02.3,0.00019455,-0.001808167,0.010076523,0,
00:02.3,0.000188828,-0.001831055,0.010087967,0,
00:02.3,0.000188828,-0.001836777,0.010076523,0,
00:02.3,0.000183105,-0.001848221,0.010070801,0,
00:02.3,0.000188828,-0.001848221,0.010076523,0,
00:02.3,0.000171661,-0.001842499,0.010065079,0,
00:02.3,0.000160217,-0.001825333,0.010065079,0,
00:02.3,0.00025177,-0.001802444,0.010030746,0,
00:02.3,0.000263214,-0.001808167,0.009950638,0,
00:02.3,0.000228882,-0.001813889,0.010070801,0,
00:02.3,0.00019455,-0.001825333,0.010082245,0,
00:02.3,0.000188828,-0.001831055,0.010110855,0,
00:02.3,0.000188828,-0.001825333,0.010116577,0,
00:02.4,0.000183105,-0.001825333,0.010105133,0,
00:02.4,0.00019455,-0.001825333,0.010065079,0,
00:02.4,0.000183105,-0.001842499,0.010122299,0,
00:02.4,0.000143051,-0.001848221,0.010122299,0,
00:02.4,0.000200272,-0.001825333,0.010065079,0,
00:02.4,0.000234604,-0.001831055,0.010065079,0,
00:02.4,0.000234604,-0.001831055,0.010087967,0,
00:02.4,0.000205994,-0.001831055,0.010133743,0,
00:02.4,0.000200272,-0.001836777,0.010110855,0,
00:02.4,0.000188828,-0.001831055,0.010139465,0,
00:02.4,0.00019455,-0.001831055,0.010139465,0,
00:02.4,0.000200272,-0.001836777,0.010128021,0,
00:02.4,0.00019455,-0.001842499,0.010139465,0,
00:02.4,0.000165939,-0.001848221,0.010139465,0,
00:02.4,0.000217438,-0.001825333,0.010070801,0,
00:02.4,0.00022316,-0.001831055,0.010133743,0,
00:02.4,0.00022316,-0.001825333,0.010145187,0,
00:02.4,0.000205994,-0.001831055,0.010116577,0,
00:02.4,0.000211716,-0.001836777,0.010093689,0,
00:02.4,0.000183105,-0.001848221,0.010173798,0,
00:02.4,0.000188828,-0.001842499,0.010225296,0,
00:02.4,0.00019455,-0.001842499,0.010219574,0,
00:02.4,0.000177383,-0.001848221,0.010190964,0,
00:02.4,0.00019455,-0.001836777,0.010185242,0,
00:02.4,0.000200272,-0.001831055,0.010173798,0,
00:02.5,0.00022316,-0.001836777,0.010145187,0,
00:02.5,0.00022316,-0.001831055,0.010168076,0,
00:02.5,0.000217438,-0.001842499,0.010190964,0,
00:02.5,0.000205994,-0.001848221,0.010213852,0,
00:02.5,0.00019455,-0.001848221,0.010190964,0,
00:02.5,0.000205994,-0.001848221,0.01020813,0,
00:02.5,0.000211716,-0.001842499,0.010185242,0,
00:02.5,0.000217438,-0.001831055,0.010219574,0,
00:02.5,0.000183105,-0.001853943,0.010213852,0,
00:02.5,0.000171661,-0.001859665,0.010190964,0,
00:02.5,0.000240326,-0.001842499,0.010128021,0,
00:02.5,0.000234604,-0.001836777,0.010196686,0,
00:02.5,0.000211716,-0.001853943,0.010299683,0,
00:02.5,0.000205994,-0.001853943,0.010282516,0,
00:02.5,0.000205994,-0.001842499,0.010248184,0,
00:02.5,0.000205994,-0.001853943,0.010253906,0,
00:02.5,0.000205994,-0.001836777,0.01023674,0,
00:02.5,0.000205994,-0.001848221,0.010225296,0,
00:02.5,0.000200272,-0.001853943,0.010242462,0,
00:02.5,0.000228882,-0.001836777,0.01020813,0,
00:02.5,0.000211716,-0.001842499,0.010225296,0,
00:02.5,0.000188828,-0.001853943,0.010276794,0,
00:02.5,0.000217438,-0.001848221,0.010253906,0,
00:02.5,0.000211716,-0.001853943,0.01023674,0,
00:02.5,0.000211716,-0.001848221,0.010248184,0,
00:02.6,0.00022316,-0.001853943,0.010322571,0,
00:02.6,0.00022316,-0.001853943,0.010288239,0,
00:02.6,0.000217438,-0.001848221,0.010271072,0,
00:02.6,0.00022316,-0.001848221,0.010231018,0,
00:02.6,0.000211716,-0.001859665,0.010305405,0,
00:02.6,0.000200272,-0.001865387,0.010299683,0,
00:02.6,0.000200272,-0.001848221,0.010293961,0,
00:02.6,0.000228882,-0.001842499,0.010282516,0,
00:02.6,0.00022316,-0.001853943,0.010276794,0,
00:02.6,0.00022316,-0.001853943,0.010305405,0,
00:02.6,0.000228882,-0.001848221,0.010334015,0,
00:02.6,0.000228882,-0.001853943,0.010334015,0,
00:02.6,0.000211716,-0.001865387,0.010316849,0,
00:02.6,0.000217438,-0.001853943,0.010276794,0,
00:02.6,0.000217438,-0.001848221,0.010293961,0,
00:02.6,0.000211716,-0.001842499,0.010351181,0,
00:02.6,0.000205994,-0.001865387,0.010339737,0,
00:02.6,0.000200272,-0.001859665,0.010316849,0,
00:02.6,0.000205994,-0.001871109,0.010322571,0,
00:02.6,0.000211716,-0.001865387,0.010328293,0,
00:02.6,0.000205994,-0.001871109,0.010299683,0,
00:02.6,0.000211716,-0.001871109,0.010374069,0,
00:02.6,0.00022316,-0.001871109,0.010379791,0,
00:02.6,0.000240326,-0.001859665,0.010362625,0,
00:02.6,0.000234604,-0.001853943,0.010356903,0,
00:02.7,0.000205994,-0.001871109,0.010351181,0,
00:02.7,0.000205994,-0.001865387,0.010362625,0,
00:02.7,0.000217438,-0.001859665,0.010374069,0,
00:02.7,0.000205994,-0.001859665,0.010362625,0,
00:02.7,0.000228882,-0.001859665,0.010345459,0,
00:02.7,0.00022316,-0.001853943,0.010374069,0,
00:02.7,0.000217438,-0.001865387,0.010385513,0,
00:02.7,0.000246048,-0.001865387,0.010345459,0,
00:02.7,0.000228882,-0.001853943,0.010356903,0,
00:02.7,0.000234604,-0.001853943,0.010414124,0,
00:02.7,0.000228882,-0.001853943,0.010379791,0,
00:02.7,0.000228882,-0.001871109,0.010339737,0,
00:02.7,0.000217438,-0.001871109,0.010362625,0,
00:02.7,0.000217438,-0.001859665,0.010448456,0,
00:02.7,0.000205994,-0.001859665,0.010414124,0,
00:02.7,0.000217438,-0.001865387,0.010408401,0,
00:02.7,0.000217438,-0.001871109,0.010356903,0,
00:02.7,0.000257492,-0.001859665,0.010374069,0,
00:02.7,0.00022316,-0.001865387,0.010356903,0,
00:02.7,0.000234604,-0.001865387,0.010408401,0,
00:02.7,0.000228882,-0.001871109,0.010414124,0,
00:02.7,0.000205994,-0.001871109,0.010482788,0,
00:02.7,0.00019455,-0.001865387,0.01043129,0,
00:02.7,0.000234604,-0.001876831,0.010402679,0,
00:02.7,0.000228882,-0.001876831,0.01043129,0,
00:02.8,0.00025177,-0.001865387,0.010419846,0,
00:02.8,0.000234604,-0.001865387,0.010448456,0,
00:02.8,0.000246048,-0.001859665,0.01043129,0,
00:02.8,0.000240326,-0.001871109,0.010396957,0,
00:02.8,0.000211716,-0.001876831,0.010448456,0,
00:02.8,0.000217438,-0.001871109,0.0104599,0,
00:02.8,0.000234604,-0.001859665,0.010402679,0,
00:02.8,0.00025177,-0.001853943,0.010442734,0,
00:02.8,0.000228882,-0.001859665,0.010482788,0,
00:02.8,0.00022316,-0.001865387,0.010465622,0,
00:02.8,0.000234604,-0.001871109,0.010454178,0,
00:02.8,0.000228882,-0.001876831,0.01043129,0,
00:02.8,0.000211716,-0.001882553,0.01048851,0,
00:02.8,0.000211716,-0.001882553,0.010471344,0,
00:02.8,0.000200272,-0.001888275,0.010482788,0,
00:02.8,0.000211716,-0.001882553,0.010482788,0,
00:02.8,0.000257492,-0.001859665,0.010437012,0,
00:02.8,0.000228882,-0.001865387,0.010448456,0,
00:02.8,0.00022316,-0.001871109,0.010482788,0,
00:02.8,0.000240326,-0.001859665,0.010414124,0,
00:02.8,0.000246048,-0.001865387,0.010437012,0,
00:02.8,0.000240326,-0.001882553,0.010499954,0,
00:02.8,0.000240326,-0.001882553,0.010505676,0,
00:02.8,0.000246048,-0.001876831,0.01048851,0,
00:02.8,0.000228882,-0.001871109,0.010499954,0,
00:02.9,0.000234604,-0.001865387,0.010494232,0,
00:02.9,0.000240326,-0.001865387,0.01051712,0,
00:02.9,0.000211716,-0.001876831,0.01048851,0,
00:02.9,0.000217438,-0.001882553,0.010494232,0,
00:02.9,0.000234604,-0.001888275,0.010499954,0,
00:02.9,0.000234604,-0.001876831,0.010505676,0,
00:02.9,0.000246048,-0.001876831,0.010494232,0,
00:02.9,0.000228882,-0.001876831,0.010522842,0,
00:02.9,0.000234604,-0.001876831,0.010505676,0,
00:02.9,0.000234604,-0.001882553,0.010540009,0,
00:02.9,0.000234604,-0.001888275,0.01051712,0,
00:02.9,0.00022316,-0.001876831,0.010505676,0,
00:02.9,0.000240326,-0.001871109,0.010505676,0,
00:02.9,0.00022316,-0.001882553,0.010494232,0,
00:02.9,0.000246048,-0.001876831,0.01051712,0,
00:02.9,0.000240326,-0.001876831,0.010551453,0,
00:02.9,0.000263214,-0.001876831,0.010522842,0,
00:02.9,0.000211716,-0.001893997,0.010534286,0,
00:02.9,0.000240326,-0.001888275,0.010505676,0,
00:02.9,0.000246048,-0.001876831,0.010534286,0,
00:02.9,0.000234604,-0.001876831,0.010562897,0,
00:02.9,0.000228882,-0.001865387,0.010540009,0,
00:02.9,0.000246048,-0.001871109,0.010574341,0,
00:02.9,0.000240326,-0.001888275,0.010540009,0,
00:02.9,0.000228882,-0.001882553,0.010540009,0,
00:03.0,0.000234604,-0.001888275,0.010528564,0,
00:03.0,0.000240326,-0.001888275,0.010465622,0,
00:03.0,0.000240326,-0.001882553,0.010562897,0,
00:03.0,0.000246048,-0.001882553,0.010585785,0,
00:03.0,0.000234604,-0.001876831,0.010545731,0,
00:03.0,0.00022316,-0.001865387,0.010545731,0,
00:03.0,0.000246048,-0.001876831,0.010545731,0,
00:03.0,0.000234604,-0.001893997,0.010528564,0,
00:03.0,0.000240326,-0.001893997,0.010545731,0,
00:03.0,0.000240326,-0.001882553,0.010597229,0,
00:03.0,0.000246048,-0.001882553,0.010585785,0,
00:03.0,0.000263214,-0.001876831,0.010568619,0,
00:00:03,0.000246048,-0.001876831,0.010494232,0,
00:03.0,0.000228882,-0.001893997,0.010528564,0,
00:03.0,0.000205994,-0.001888275,0.010597229,0,
00:03.0,0.000240326,-0.001871109,0.010614395,0,
00:03.0,0.000217438,-0.001882553,0.010597229,0,
00:03.0,0.000246048,-0.001876831,0.010591507,0,
00:03.0,0.000240326,-0.001876831,0.010585785,0,
00:03.0,0.000228882,-0.001876831,0.010574341,0,
00:03.0,0.000240326,-0.001882553,0.010568619,0,
00:03.0,0.000257492,-0.001871109,0.010545731,0,
00:03.0,0.00025177,-0.001871109,0.010511398,0,
00:03.0,0.000240326,-0.001882553,0.010545731,0,
00:03.0,0.000228882,-0.001893997,0.010568619,0,
00:03.1,0.000246048,-0.001876831,0.010671616,0,
00:03.1,0.000246048,-0.001876831,0.010614395,0,
00:03.1,0.000234604,-0.001888275,0.010597229,0,
00:03.1,0.000228882,-0.001882553,0.010597229,0,
00:03.1,0.00022316,-0.001888275,0.010591507,0,
00:03.1,0.000234604,-0.001888275,0.010585785,0,
00:03.1,0.000286102,-0.001871109,0.010574341,0,
00:03.1,0.000234604,-0.001876831,0.010557175,0,
00:03.1,0.000240326,-0.001882553,0.01051712,0,
00:03.1,0.000240326,-0.001882553,0.010545731,0,
00:03.1,0.000234604,-0.001882553,0.010574341,0,
00:03.1,0.00022316,-0.001876831,0.010648727,0,
00:03.1,0.00022316,-0.001893997,0.010637283,0,
00:03.1,0.00022316,-0.001893997,0.010637283,0,
00:03.1,0.000246048,-0.001882553,0.010620117,0,
00:03.1,0.000240326,-0.001882553,0.010614395,0,
00:03.1,0.000240326,-0.001876831,0.010597229,0,
00:03.1,0.000211716,-0.001871109,0.010597229,0,
00:03.1,0.000211716,-0.001871109,0.010568619,0,
00:03.1,0.000274658,-0.001865387,0.010568619,0,
00:03.1,0.000291824,-0.001871109,0.010602951,0,
00:03.1,0.00028038,-0.001871109,0.010557175,0,
00:03.1,0.00025177,-0.001888275,0.010562897,0,
00:03.1,0.000263214,-0.001876831,0.01048851,0,
00:03.1,0.000217438,-0.001876831,0.01071167,0,
00:03.2,0.00022316,-0.001876831,0.010688782,0,
00:03.2,0.000228882,-0.001893997,0.010637283,0,
00:03.2,0.00022316,-0.001899719,0.010631561,0,
00:03.2,0.000240326,-0.001893997,0.010614395,0,
00:03.2,0.000228882,-0.001882553,0.010614395,0,
00:03.2,0.00025177,-0.001865387,0.010597229,0,
00:03.2,0.000268936,-0.001859665,0.010608673,0,
00:03.2,0.000234604,-0.001871109,0.010597229,0,
00:03.2,0.000263214,-0.001871109,0.010585785,0,
00:03.2,0.000234604,-0.001871109,0.010608673,0,
00:03.2,0.000234604,-0.001876831,0.010631561,0,
00:03.2,0.000228882,-0.001888275,0.010637283,0,
00:03.2,0.000234604,-0.001882553,0.010608673,0,
00:03.2,0.000263214,-0.001865387,0.010591507,0,
00:03.2,0.000263214,-0.001865387,0.010574341,0,
00:03.2,0.000240326,-0.001871109,0.010602951,0,
00:03.2,0.000246048,-0.001865387,0.010631561,0,
00:03.2,0.000211716,-0.001888275,0.010648727,0,
00:03.2,0.00025177,-0.001876831,0.010660172,0,
00:03.2,0.00025177,-0.001871109,0.010660172,0,
00:03.2,0.000246048,-0.001865387,0.010643005,0,
00:03.2,0.000246048,-0.001882553,0.010591507,0,
00:03.2,0.000240326,-0.001888275,0.010602951,0,
00:03.2,0.000240326,-0.001876831,0.010648727,0,
00:03.2,0.000234604,-0.001871109,0.010648727,0,
00:03.3,0.000240326,-0.001871109,0.010625839,0,
00:03.3,0.00025177,-0.001871109,0.010608673,0,
00:03.3,0.000234604,-0.001899719,0.010614395,0,
00:03.3,0.000211716,-0.001899719,0.010602951,0,
00:03.3,0.000234604,-0.001882553,0.010637283,0,
00:03.3,0.000246048,-0.001871109,0.010688782,0,
00:03.3,0.000240326,-0.001888275,0.010648727,0,
00:03.3,0.00025177,-0.001876831,0.010625839,0,
00:03.3,0.000234604,-0.001876831,0.010620117,0,
00:03.3,0.000240326,-0.001876831,0.010637283,0,
00:03.3,0.000246048,-0.001876831,0.010631561,0,
00:03.3,0.00025177,-0.001876831,0.010625839,0,
00:03.3,0.000234604,-0.001876831,0.010665894,0,
00:03.3,0.00025177,-0.001871109,0.010648727,0,
00:03.3,0.000263214,-0.001871109,0.010597229,0,
00:03.3,0.00028038,-0.001859665,0.010637283,0,
00:03.3,0.00025177,-0.001865387,0.010660172,0,
00:03.3,0.000228882,-0.001876831,0.010625839,0,
00:03.3,0.000234604,-0.001876831,0.010585785,0,
00:03.3,0.00022316,-0.001876831,0.010671616,0,
00:03.3,0.000240326,-0.001876831,0.010660172,0,
00:03.3,0.00022316,-0.001882553,0.010631561,0,
00:03.3,0.000205994,-0.001888275,0.010648727,0,
00:03.3,0.000228882,-0.001876831,0.010631561,0,
00:03.3,0.000240326,-0.001876831,0.01068306,0,
00:03.4,0.000240326,-0.001888275,0.010643005,0,
00:03.4,0.000246048,-0.001871109,0.010665894,0,
00:03.4,0.000246048,-0.001871109,0.010694504,0,
00:03.4,0.00022316,-0.001882553,0.010654449,0,
00:03.4,0.000200272,-0.001876831,0.010648727,0,
00:03.4,0.000257492,-0.001871109,0.010643005,0,
00:03.4,0.000274658,-0.001876831,0.010614395,0,
00:03.4,0.000246048,-0.001871109,0.010631561,0,
00:03.4,0.000234604,-0.001871109,0.01068306,0,
00:03.4,0.000246048,-0.001871109,0.010677338,0,
00:03.4,0.000240326,-0.001859665,0.010660172,0,
00:03.4,0.000234604,-0.001871109,0.010631561,0,
00:03.4,0.00025177,-0.001871109,0.01068306,0,
00:03.4,0.00025177,-0.001865387,0.010637283,0,
00:03.4,0.000234604,-0.001871109,0.01071167,0,
00:03.4,0.000234604,-0.001876831,0.010705948,0,
00:03.4,0.000234604,-0.001876831,0.010665894,0,
00:03.4,0.000240326,-0.001865387,0.010625839,0,
00:03.4,0.000228882,-0.001871109,0.010660172,0,
00:03.4,0.000217438,-0.001871109,0.010665894,0,
00:03.4,0.000240326,-0.001876831,0.010648727,0,
00:03.4,0.000228882,-0.001871109,0.01068306,0,
00:03.4,0.00025177,-0.001865387,0.01068306,0,
00:03.4,0.000257492,-0.001865387,0.010654449,0,
00:03.4,0.000240326,-0.001871109,0.010648727,0,
00:03.5,0.000234604,-0.001871109,0.010671616,0,
00:03.5,0.000234604,-0.001871109,0.010700226,0,
00:03.5,0.000228882,-0.001882553,0.010660172,0,
00:03.5,0.000234604,-0.001882553,0.010620117,0,
00:03.5,0.000234604,-0.001865387,0.010677338,0,
00:03.5,0.000240326,-0.001865387,0.010688782,0,
00:03.5,0.000228882,-0.001859665,0.010688782,0,
00:03.5,0.000234604,-0.001865387,0.01068306,0,
00:03.5,0.00025177,-0.001859665,0.01068306,0,
00:03.5,0.000234604,-0.001859665,0.010625839,0,
00:03.5,0.00022316,-0.001865387,0.010631561,0,
00:03.5,0.000246048,-0.001865387,0.010660172,0,
00:03.5,0.000240326,-0.001871109,0.010705948,0,
00:03.5,0.000217438,-0.001859665,0.010700226,0,
00:03.5,0.00022316,-0.001859665,0.010671616,0,
00:03.5,0.000217438,-0.001859665,0.010705948,0,
00:03.5,0.000211716,-0.001876831,0.010677338,0,
00:03.5,0.00025177,-0.001871109,0.010677338,0,
00:03.5,0.000240326,-0.001859665,0.01068306,0,
00:03.5,0.000234604,-0.001865387,0.010677338,0,
00:03.5,0.000246048,-0.001859665,0.010660172,0,
00:03.5,0.000246048,-0.001859665,0.010637283,0,
00:03.5,0.000217438,-0.001859665,0.010694504,0,
00:03.5,0.000240326,-0.001859665,0.010625839,0,
00:03.5,0.000240326,-0.001859665,0.010654449,0,
00:03.6,0.000228882,-0.001853943,0.010677338,0,
00:03.6,0.000205994,-0.001865387,0.010705948,0,
00:03.6,0.000217438,-0.001865387,0.010688782,0,
00:03.6,0.000246048,-0.001859665,0.010677338,0,
00:03.6,0.00022316,-0.001871109,0.010677338,0,
00:03.6,0.00022316,-0.001865387,0.01068306,0,
00:03.6,0.000205994,-0.001859665,0.01068306,0,
00:03.6,0.000211716,-0.001859665,0.010677338,0,
00:03.6,0.000234604,-0.001853943,0.01068306,0,
00:03.6,0.000228882,-0.001865387,0.010677338,0,
00:03.6,0.000246048,-0.001859665,0.010648727,0,
00:03.6,0.00022316,-0.001859665,0.010671616,0,
00:03.6,0.000234604,-0.001848221,0.010705948,0,
00:03.6,0.000240326,-0.001848221,0.010643005,0,
00:03.6,0.00022316,-0.001853943,0.010677338,0,
00:03.6,0.000246048,-0.001848221,0.010654449,0,
00:03.6,0.000228882,-0.001859665,0.010677338,0,
00:03.6,0.000188828,-0.001865387,0.010677338,0,
00:03.6,0.00025177,-0.001842499,0.010648727,0,
00:03.6,0.000246048,-0.001842499,0.010723114,0,
00:03.6,0.00022316,-0.001848221,0.010694504,0,
00:03.6,0.000205994,-0.001859665,0.010677338,0,
00:03.6,0.000228882,-0.001853943,0.010694504,0,
00:03.6,0.000240326,-0.001853943,0.01071167,0,
00:03.6,0.000234604,-0.001853943,0.010688782,0,
00:03.7,0.000234604,-0.001853943,0.010688782,0,
00:03.7,0.000200272,-0.001859665,0.010637283,0,
00:03.7,0.000217438,-0.001842499,0.010654449,0,
00:03.7,0.000246048,-0.001836777,0.010688782,0,
00:03.7,0.00022316,-0.001853943,0.010694504,0,
00:03.7,0.000217438,-0.001853943,0.01068306,0,
00:03.7,0.000228882,-0.001848221,0.010694504,0,
00:03.7,0.000211716,-0.001853943,0.010688782,0,
00:03.7,0.000240326,-0.001842499,0.010677338,0,
00:03.7,0.000234604,-0.001842499,0.010660172,0,
00:03.7,0.000228882,-0.001848221,0.010694504,0,
00:03.7,0.000200272,-0.001865387,0.010700226,0,
00:03.7,0.000211716,-0.001853943,0.01068306,0,
00:03.7,0.000234604,-0.001842499,0.01068306,0,
00:03.7,0.000200272,-0.001848221,0.01068306,0,
00:03.7,0.000217438,-0.001836777,0.010665894,0,
00:03.7,0.000228882,-0.001831055,0.010625839,0,
00:03.7,0.000205994,-0.001853943,0.010705948,0,
00:03.7,0.000205994,-0.001848221,0.01068306,0,
00:03.7,0.000234604,-0.001836777,0.010671616,0,
00:03.7,0.000211716,-0.001836777,0.010700226,0,
00:03.7,0.000205994,-0.001848221,0.010694504,0,
00:03.7,0.00022316,-0.001848221,0.010688782,0,
00:03.7,0.000228882,-0.001842499,0.010677338,0,
00:03.7,0.000228882,-0.001819611,0.010608673,0,
00:03.8,0.000200272,-0.001836777,0.010677338,0,
00:03.8,0.000205994,-0.001848221,0.01071167,0,
00:03.8,0.000211716,-0.001842499,0.01071167,0,
00:03.8,0.000211716,-0.001836777,0.010700226,0,
00:03.8,0.000211716,-0.001836777,0.010654449,0,
00:03.8,0.000228882,-0.001831055,0.010671616,0,
00:03.8,0.00019455,-0.001853943,0.010728836,0,
00:03.8,0.000211716,-0.001848221,0.01071167,0,
00:03.8,0.000205994,-0.001831055,0.010705948,0,
00:03.8,0.000200272,-0.001842499,0.01071167,0,
00:03.8,0.000211716,-0.001842499,0.010665894,0,
00:03.8,0.00022316,-0.001831055,0.010648727,0,
00:03.8,0.000205994,-0.001842499,0.010723114,0,
00:03.8,0.000211716,-0.001825333,0.010694504,0,
00:03.8,0.000217438,-0.001825333,0.010723114,0,
00:03.8,0.000154495,-0.001836777,0.010728836,0,
00:03.8,0.000205994,-0.001848221,0.010688782,0,
00:03.8,0.000234604,-0.001836777,0.010677338,0,
00:03.8,0.000217438,-0.001836777,0.010700226,0,
00:03.8,0.00019455,-0.001842499,0.010688782,0,
00:03.8,0.000217438,-0.001831055,0.010717392,0,
00:03.8,0.00022316,-0.001825333,0.010705948,0,
00:03.8,0.00022316,-0.001825333,0.010688782,0,
00:03.8,0.000188828,-0.001842499,0.010694504,0,
00:03.8,0.000200272,-0.001836777,0.010774612,0,
00:03.9,0.000188828,-0.001831055,0.010717392,0,
00:03.9,0.000183105,-0.001836777,0.01071167,0,
00:03.9,0.00019455,-0.001836777,0.01071167,0,
00:03.9,0.000228882,-0.001831055,0.010694504,0,
00:03.9,0.00022316,-0.001831055,0.010700226,0,
00:03.9,0.000188828,-0.001831055,0.01074028,0,
00:03.9,0.000200272,-0.001813889,0.01071167,0,
00:03.9,0.000200272,-0.001819611,0.010671616,0,
00:03.9,0.00019455,-0.001842499,0.010660172,0,
00:03.9,0.000188828,-0.001842499,0.010705948,0,
00:03.9,0.000183105,-0.001831055,0.010734558,0,
00:03.9,0.00019455,-0.001825333,0.010694504,0,
00:03.9,0.00019455,-0.001842499,0.01071167,0,
00:03.9,0.000188828,-0.001836777,0.010705948,0,
00:03.9,0.000171661,-0.001825333,0.010677338,0,
00:03.9,0.000211716,-0.001825333,0.010688782,0,
00:03.9,0.000205994,-0.001825333,0.010723114,0,
00:03.9,0.000200272,-0.001825333,0.010717392,0,
00:03.9,0.000188828,-0.001825333,0.010677338,0,
00:03.9,0.000160217,-0.001825333,0.010728836,0,
00:03.9,0.000200272,-0.001825333,0.01071167,0,
00:03.9,0.000205994,-0.001825333,0.010620117,0,
00:03.9,0.000205994,-0.001813889,0.01068306,0,
00:03.9,0.000205994,-0.001819611,0.010728836,0,
00:03.9,0.000217438,-0.001825333,0.010688782,0,
00:04.0,0.000171661,-0.001836777,0.010717392,0,
00:04.0,0.000171661,-0.001825333,0.010700226,0,
00:04.0,0.000188828,-0.001808167,0.010694504,0,
00:04.0,0.000183105,-0.001808167,0.010717392,0,
00:04.0,0.00019455,-0.001813889,0.010705948,0,
00:04.0,0.000188828,-0.001819611,0.010717392,0,
00:04.0,0.00019455,-0.001819611,0.010677338,0,
00:04.0,0.00019455,-0.001819611,0.01071167,0,
00:04.0,0.000188828,-0.001813889,0.010665894,0,
00:04.0,0.000200272,-0.001808167,0.010677338,0,
00:04.0,0.000171661,-0.001808167,0.01071167,0,
00:04.0,0.000160217,-0.001802444,0.010705948,0,
00:00:04,0.000183105,-0.001813889,0.01068306,0,
00:04.0,0.00019455,-0.001813889,0.010705948,0,
00:04.0,0.000188828,-0.001813889,0.010688782,0,
00:04.0,0.000177383,-0.001813889,0.010705948,0,
00:04.0,0.000217438,-0.001808167,0.010688782,0,
00:04.0,0.000188828,-0.001825333,0.01068306,0,
00:04.0,0.000171661,-0.001813889,0.010728836,0,
00:04.0,0.000188828,-0.001808167,0.010688782,0,
00:04.0,0.000177383,-0.001819611,0.01068306,0,
00:04.0,0.000165939,-0.001813889,0.01071167,0,
00:04.0,0.00019455,-0.001808167,0.010700226,0,
00:04.0,0.000188828,-0.001808167,0.010648727,0,
00:04.0,0.000160217,-0.001808167,0.010723114,0,
00:04.1,0.000183105,-0.001813889,0.010734558,0,
00:04.1,0.000200272,-0.001808167,0.010723114,0,
00:04.1,0.000188828,-0.001802444,0.010717392,0,
00:04.1,0.000188828,-0.001808167,0.010677338,0,
00:04.1,0.000177383,-0.001813889,0.010625839,0,
00:04.1,0.000171661,-0.001802444,0.010700226,0,
00:04.1,0.000171661,-0.001791,0.010723114,0,
00:04.1,0.000177383,-0.001796722,0.010705948,0,
00:04.1,0.000177383,-0.001796722,0.010717392,0,
00:04.1,0.000171661,-0.001813889,0.010688782,0,
00:04.1,0.000183105,-0.001802444,0.010717392,0,
00:04.1,0.000165939,-0.001813889,0.010723114,0,
00:04.1,0.000165939,-0.001808167,0.010717392,0,
00:04.1,0.000177383,-0.001802444,0.010688782,0,
00:04.1,0.000177383,-0.001802444,0.01071167,0,
00:04.1,0.000183105,-0.001802444,0.010625839,0,
00:04.1,0.000154495,-0.001808167,0.010734558,0,
00:04.1,0.000177383,-0.001802444,0.010734558,0,
00:04.1,0.000160217,-0.001802444,0.010705948,0,
00:04.1,0.000171661,-0.001802444,0.010723114,0,
00:04.1,0.000188828,-0.001808167,0.010688782,0,
00:04.1,0.000205994,-0.001796722,0.010665894,0,
00:04.1,0.00019455,-0.001791,0.010677338,0,
00:04.1,0.000177383,-0.001796722,0.010677338,0,
00:04.1,0.000165939,-0.001802444,0.010717392,0,
00:04.2,0.000148773,-0.001802444,0.010728836,0,
00:04.2,0.000177383,-0.001802444,0.010717392,0,
00:04.2,0.000165939,-0.001808167,0.010665894,0,
00:04.2,0.000165939,-0.001808167,0.010734558,0,
00:04.2,0.000171661,-0.001802444,0.010700226,0,
00:04.2,0.000171661,-0.001802444,0.010723114,0,
00:04.2,0.000171661,-0.001808167,0.010631561,0,
00:04.2,0.000171661,-0.001802444,0.010688782,0,
00:04.2,0.000177383,-0.001796722,0.010717392,0,
00:04.2,0.000160217,-0.001796722,0.010688782,0,
00:04.2,0.000154495,-0.001796722,0.010723114,0,
00:04.2,0.000177383,-0.001802444,0.01071167,0,
00:04.2,0.000171661,-0.001802444,0.010688782,0,
00:04.2,0.000171661,-0.001796722,0.01071167,0,
00:04.2,0.000154495,-0.001796722,0.010700226,0,
00:04.2,0.000120163,-0.001813889,0.010705948,0,
00:04.2,0.000188828,-0.001796722,0.010585785,0,
00:04.2,0.000165939,-0.001802444,0.010723114,0,
00:04.2,0.000171661,-0.001802444,0.010728836,0,
00:04.2,0.000148773,-0.001808167,0.010734558,0,
00:04.2,0.00019455,-0.001802444,0.010705948,0,
00:04.2,0.000183105,-0.001808167,0.010705948,0,
00:04.2,0.000171661,-0.001808167,0.010705948,0,
00:04.2,0.000160217,-0.001813889,0.01071167,0,
00:04.2,0.000160217,-0.001819611,0.010705948,0,
00:04.3,0.000171661,-0.001808167,0.010694504,0,
00:04.3,0.000171661,-0.001808167,0.010688782,0,
00:04.3,0.000160217,-0.001813889,0.01071167,0,
00:04.3,0.000165939,-0.001813889,0.010677338,0,
00:04.3,0.000154495,-0.001819611,0.010734558,0,
00:04.3,0.000171661,-0.001802444,0.010728836,0,
00:04.3,0.000171661,-0.001813889,0.010665894,0,
00:04.3,0.000160217,-0.001825333,0.010677338,0,
00:04.3,0.000160217,-0.001813889,0.010757446,0,
00:04.3,0.000165939,-0.001802444,0.010734558,0,
00:04.3,0.000154495,-0.001819611,0.01071167,0,
00:04.3,0.000154495,-0.001825333,0.010660172,0,
00:04.3,0.000160217,-0.001825333,0.010700226,0,
00:04.3,0.000148773,-0.001836777,0.010734558,0,
00:04.3,0.000143051,-0.001825333,0.010723114,0,
00:04.3,0.000114441,-0.001825333,0.010746002,0,
00:04.3,0.000188828,-0.001819611,0.010723114,0,
00:04.3,0.000177383,-0.001831055,0.01071167,0,
00:04.3,0.000183105,-0.001836777,0.010688782,0,
00:04.3,0.000183105,-0.001825333,0.010643005,0,
00:04.3,0.000165939,-0.001813889,0.010717392,0,
00:04.3,0.000148773,-0.001819611,0.010786057,0,
00:04.3,0.000165939,-0.001831055,0.01074028,0,
00:04.3,0.000165939,-0.001831055,0.010677338,0,
00:04.3,0.000160217,-0.001836777,0.010734558,0,
00:04.4,0.000171661,-0.001842499,0.010751724,0,
00:04.4,0.000171661,-0.001842499,0.01076889,0,
00:04.4,0.000160217,-0.001842499,0.01074028,0,
00:04.4,0.000154495,-0.001842499,0.01074028,0,
00:04.4,0.000177383,-0.001842499,0.01074028,0,
00:04.4,0.000177383,-0.001848221,0.010677338,0,
00:04.4,0.000165939,-0.001859665,0.010723114,0,
00:04.4,0.000154495,-0.001859665,0.010786057,0,
00:04.4,0.000137329,-0.001853943,0.01076889,0,
00:04.4,0.000171661,-0.001848221,0.010728836,0,
00:04.4,0.000154495,-0.001859665,0.010746002,0,
00:04.4,0.000177383,-0.001853943,0.010734558,0,
00:04.4,0.000165939,-0.001859665,0.010734558,0,
00:04.4,0.000160217,-0.001865387,0.01076889,0,
00:04.4,0.000154495,-0.001865387,0.010763168,0,
00:04.4,0.000160217,-0.001871109,0.010786057,0,
00:04.4,0.000183105,-0.001871109,0.010774612,0,
00:04.4,0.000183105,-0.001871109,0.010751724,0,
00:04.4,0.000177383,-0.001871109,0.010780334,0,
00:04.4,0.000171661,-0.001871109,0.010780334,0,
00:04.4,0.000148773,-0.001882553,0.010780334,0,
00:04.4,0.000160217,-0.001888275,0.010757446,0,
00:04.4,0.000188828,-0.001888275,0.010774612,0,
00:04.4,0.000177383,-0.001893997,0.010791779,0,
00:04.4,0.000160217,-0.001899719,0.010786057,0,
00:04.5,0.000171661,-0.001899719,0.010780334,0,
00:04.5,0.000165939,-0.001905441,0.010746002,0,
00:04.5,0.000165939,-0.001911163,0.010814667,0,
00:04.5,0.000177383,-0.001905441,0.010820389,0,
00:04.5,0.000171661,-0.001899719,0.010797501,0,
00:04.5,0.000160217,-0.001911163,0.010820389,0,
00:04.5,0.000177383,-0.001911163,0.010803223,0,
00:04.5,0.000160217,-0.001916885,0.010814667,0,
00:04.5,0.000143051,-0.001922607,0.010814667,0,
00:04.5,0.000188828,-0.001911163,0.010791779,0,
00:04.5,0.000211716,-0.001916885,0.010803223,0,
00:04.5,0.00019455,-0.001928329,0.010820389,0,
00:04.5,0.000188828,-0.001928329,0.010866165,0,
00:04.5,0.000177383,-0.001934052,0.010860443,0,
00:04.5,0.000171661,-0.001934052,0.010814667,0,
00:04.5,0.000171661,-0.001939774,0.010871887,0,
00:04.5,0.000165939,-0.001951218,0.010848999,0,
00:04.5,0.00019455,-0.001945496,0.010814667,0,
00:04.5,0.000183105,-0.001945496,0.010854721,0,
00:04.5,0.000183105,-0.001951218,0.010866165,0,
00:04.5,0.00019455,-0.001968384,0.010848999,0,
00:04.5,0.000205994,-0.001951218,0.010860443,0,
00:04.5,0.000177383,-0.001962662,0.010883331,0,
00:04.5,0.000160217,-0.001974106,0.010877609,0,
00:04.5,0.000165939,-0.001974106,0.010923386,0,
00:04.6,0.000177383,-0.001979828,0.010860443,0,
00:04.6,0.00019455,-0.001991272,0.010877609,0,
00:04.6,0.000211716,-0.001979828,0.010877609,0,
00:04.6,0.000183105,-0.001991272,0.010889053,0,
00:04.6,0.000200272,-0.00198555,0.010929108,0,
00:04.6,0.000205994,-0.00198555,0.010923386,0,
00:04.6,0.000228882,-0.001991272,0.010889053,0,
00:04.6,0.000200272,-0.00201416,0.010911942,0,
00:04.6,0.000177383,-0.002019882,0.010940552,0,
00:04.6,0.000183105,-0.00201416,0.010923386,0,
00:04.6,0.000205994,-0.002008438,0.010900497,0,
00:04.6,0.000211716,-0.00201416,0.010929108,0,
00:04.6,0.000200272,-0.002025604,0.010940552,0,
00:04.6,0.000211716,-0.002031326,0.010900497,0,
00:04.6,0.00019455,-0.002031326,0.010877609,0,
00:04.6,0.000188828,-0.002037048,0.011043549,0,
00:04.6,0.000200272,-0.00204277,0.010986328,0,
00:04.6,0.000205994,-0.002048492,0.01096344,0,
00:04.6,0.000211716,-0.002048492,0.01096344,0,
00:04.6,0.000217438,-0.00204277,0.01096344,0,
00:04.6,0.000217438,-0.00204277,0.010969162,0,
00:04.6,0.00022316,-0.002054214,0.010946274,0,
00:04.6,0.000205994,-0.002059937,0.01099205,0,
00:04.6,0.000177383,-0.002065659,0.01099205,0,
00:04.6,0.000217438,-0.002059937,0.011003494,0,
00:04.7,0.000217438,-0.002065659,0.011009216,0,
00:04.7,0.000228882,-0.002077103,0.01102066,0,
00:04.7,0.000240326,-0.002077103,0.011003494,0,
00:04.7,0.000234604,-0.002077103,0.010986328,0,
00:04.7,0.000188828,-0.002077103,0.01099205,0,
00:04.7,0.000148773,-0.002099991,0.011032104,0,
00:04.7,0.000246048,-0.002088547,0.011083603,0,
00:04.7,0.000246048,-0.002099991,0.011060715,0,
00:04.7,0.000228882,-0.002111435,0.011060715,0,
00:04.7,0.000217438,-0.002111435,0.01102066,0,
00:04.7,0.000228882,-0.002111435,0.01099205,0,
00:04.7,0.000234604,-0.002128601,0.011043549,0,
00:04.7,0.000234604,-0.002134323,0.011077881,0,
00:04.7,0.000234604,-0.002122879,0.011106491,0,
00:04.7,0.000228882,-0.002122879,0.011100769,0,
00:04.7,0.00025177,-0.002122879,0.011083603,0,
00:04.7,0.000240326,-0.002134323,0.011077881,0,
00:04.7,0.000246048,-0.002134323,0.01102066,0,
00:04.7,0.00025177,-0.002134323,0.011100769,0,
00:04.7,0.00025177,-0.002134323,0.011123657,0,
00:04.7,0.000234604,-0.002157211,0.011089325,0,
00:04.7,0.00025177,-0.002168655,0.011003494,0,
00:04.7,0.000234604,-0.002168655,0.011100769,0,
00:04.7,0.000217438,-0.002174377,0.01115799,0,
00:04.7,0.000240326,-0.002174377,0.011163712,0,
00:04.8,0.000257492,-0.002168655,0.011112213,0,
00:04.8,0.000240326,-0.002180099,0.011106491,0,
00:04.8,0.000228882,-0.002191544,0.011152267,0,
00:04.8,0.000263214,-0.002185822,0.011152267,0,
00:04.8,0.000257492,-0.002185822,0.011152267,0,
00:04.8,0.000257492,-0.002191544,0.011152267,0,
00:04.8,0.00022316,-0.002214432,0.011135101,0,
00:04.8,0.000257492,-0.002202988,0.011152267,0,
00:04.8,0.000274658,-0.002197266,0.011140823,0,
00:04.8,0.00028038,-0.002197266,0.01115799,0,
00:04.8,0.000268936,-0.002214432,0.011135101,0,
00:04.8,0.000263214,-0.002225876,0.011152267,0,
00:04.8,0.00028038,-0.002214432,0.011152267,0,
00:04.8,0.000268936,-0.002225876,0.01121521,0,
00:04.8,0.000274658,-0.00223732,0.011192322,0,
00:04.8,0.000274658,-0.002243042,0.01115799,0,
00:04.8,0.000257492,-0.00223732,0.01121521,0,
00:04.8,0.000263214,-0.00223732,0.01121521,0,
00:04.8,0.00028038,-0.00223732,0.011180878,0,
00:04.8,0.000274658,-0.002248764,0.011129379,0,
00:04.8,0.00028038,-0.002260208,0.011192322,0,
00:04.8,0.000257492,-0.00226593,0.011232376,0,
00:04.8,0.000274658,-0.002254486,0.011249542,0,
00:04.8,0.000286102,-0.002254486,0.011249542,0,
00:04.8,0.000291824,-0.002260208,0.011220932,0,
00:04.9,0.000274658,-0.002283096,0.011249542,0,
00:04.9,0.00025177,-0.00229454,0.011238098,0,
00:04.9,0.000291824,-0.002277374,0.01124382,0,
00:04.9,0.00028038,-0.002271652,0.011220932,0,
00:04.9,0.000274658,-0.002283096,0.01121521,0,
00:04.9,0.000291824,-0.002288818,0.011278152,0,
00:04.9,0.000297546,-0.002283096,0.011260986,0,
00:04.9,0.000286102,-0.00229454,0.011255264,0,
00:04.9,0.000257492,-0.002305984,0.011255264,0,
00:04.9,0.000257492,-0.002300262,0.01124382,0,
00:04.9,0.000291824,-0.002305984,0.01124382,0,
00:04.9,0.000268936,-0.002311707,0.011301041,0,
00:04.9,0.00028038,-0.002311707,0.011278152,0,
00:04.9,0.000337601,-0.002305984,0.011278152,0,
00:04.9,0.000291824,-0.002311707,0.011312485,0,
00:04.9,0.00028038,-0.002305984,0.011283875,0,
00:04.9,0.000314713,-0.002328873,0.011306763,0,
00:04.9,0.000320435,-0.002334595,0.011278152,0,
00:04.9,0.000303268,-0.002328873,0.011306763,0,
00:04.9,0.000274658,-0.002340317,0.011341095,0,
00:04.9,0.000303268,-0.002340317,0.011301041,0,
00:04.9,0.000326157,-0.002340317,0.011295319,0,
00:04.9,0.000314713,-0.002340317,0.011301041,0,
00:04.9,0.000320435,-0.002340317,0.011306763,0,
00:04.9,0.000320435,-0.002340317,0.011306763,0,
00:05.0,0.000297546,-0.002357483,0.011329651,0,
00:05.0,0.000314713,-0.002357483,0.011312485,0,
00:05.0,0.000297546,-0.002363205,0.011323929,0,
00:05.0,0.000326157,-0.002363205,0.011358261,0,
00:05.0,0.000320435,-0.002368927,0.011329651,0,
00:05.0,0.000297546,-0.002374649,0.011312485,0,
00:05.0,0.000314713,-0.002368927,0.011363983,0,
00:05.0,0.000343323,-0.002363205,0.011352539,0,
00:05.0,0.000337601,-0.002363205,0.011329651,0,
00:05.0,0.000314713,-0.002374649,0.011358261,0,
00:05.0,0.000303268,-0.002380371,0.011363983,0,
00:05.0,0.000303268,-0.002386093,0.011335373,0,
00:00:05,0.000337601,-0.002380371,0.011375427,0,
00:05.0,0.000314713,-0.002391815,0.011404037,0,
00:05.0,0.000320435,-0.002386093,0.011381149,0,
00:05.0,0.000360489,-0.002386093,0.011283875,0,
00:05.0,0.000331879,-0.002397537,0.011358261,0,
00:05.0,0.00028038,-0.002420425,0.01140976,0,
00:05.0,0.000331879,-0.002408981,0.011426926,0,
00:05.0,0.000349045,-0.002391815,0.011404037,0,
00:05.0,0.000371933,-0.002403259,0.011415482,0,
00:05.0,0.000331879,-0.002414703,0.011386871,0,
00:05.0,0.00030899,-0.002414703,0.011398315,0,
00:05.0,0.000331879,-0.002408981,0.011421204,0,
00:05.0,0.000326157,-0.002426147,0.011392593,0,
00:05.1,0.000326157,-0.002426147,0.011398315,0,
00:05.1,0.000326157,-0.002426147,0.011415482,0,
00:05.1,0.000331879,-0.002414703,0.01143837,0,
00:05.1,0.000349045,-0.002426147,0.011386871,0,
00:05.1,0.000343323,-0.00243187,0.011404037,0,
00:05.1,0.000377655,-0.002426147,0.011449814,0,
00:05.1,0.000337601,-0.002437592,0.011444092,0,
00:05.1,0.000337601,-0.002437592,0.011398315,0,
00:05.1,0.000337601,-0.002443314,0.011415482,0,
00:05.1,0.000337601,-0.002449036,0.011415482,0,
00:05.1,0.000331879,-0.002443314,0.011444092,0,
00:05.1,0.000349045,-0.00243187,0.011461258,0,
00:05.1,0.000371933,-0.002449036,0.011432648,0,
00:05.1,0.000354767,-0.002466202,0.011415482,0,
00:05.1,0.000343323,-0.002454758,0.011455536,0,
00:05.1,0.000371933,-0.002449036,0.011432648,0,
00:05.1,0.000354767,-0.00246048,0.01140976,0,
00:05.1,0.000337601,-0.00246048,0.011461258,0,
00:05.1,0.000343323,-0.00246048,0.011449814,0,
00:05.1,0.000354767,-0.00246048,0.011478424,0,
00:05.1,0.000371933,-0.002466202,0.011455536,0,
00:05.1,0.000383377,-0.002466202,0.011444092,0,
00:05.1,0.000349045,-0.002477646,0.01143837,0,
00:05.1,0.000354767,-0.00248909,0.011455536,0,
00:05.1,0.000343323,-0.002477646,0.011478424,0,
00:05.2,0.000371933,-0.002466202,0.011455536,0,
00:05.2,0.000389099,-0.002466202,0.01140976,0,
00:05.2,0.000360489,-0.002483368,0.011461258,0,
00:05.2,0.000349045,-0.002477646,0.011512756,0,
00:05.2,0.000354767,-0.002494812,0.01149559,0,
00:05.2,0.000354767,-0.002500534,0.011461258,0,
00:05.2,0.000377655,-0.002494812,0.01146698,0,
00:05.2,0.000360489,-0.00248909,0.011461258,0,
00:05.2,0.000389099,-0.002483368,0.011392593,0,
00:05.2,0.000383377,-0.002494812,0.011426926,0,
00:05.2,0.000377655,-0.002506256,0.011529922,0,
00:05.2,0.000360489,-0.002511978,0.011512756,0,
00:05.2,0.000360489,-0.002500534,0.011461258,0,
00:05.2,0.000360489,-0.002506256,0.011484146,0,
00:05.2,0.000366211,-0.0025177,0.011444092,0,
00:05.2,0.000389099,-0.002511978,0.011449814,0,
00:05.2,0.000371933,-0.002511978,0.011507034,0,
00:05.2,0.000383377,-0.002506256,0.011501312,0,
00:05.2,0.000383377,-0.002500534,0.011478424,0,
00:05.2,0.000383377,-0.0025177,0.011472702,0,
00:05.2,0.000377655,-0.002534866,0.011478424,0,
00:05.2,0.000360489,-0.002534866,0.011518478,0,
00:05.2,0.000366211,-0.002511978,0.011489868,0,
00:05.2,0.000411987,-0.002506256,0.011421204,0,
00:05.2,0.000377655,-0.002523422,0.011484146,0,
00:05.3,0.000389099,-0.002523422,0.011512756,0,
00:05.3,0.000394821,-0.002523422,0.011489868,0,
00:05.3,0.000389099,-0.002540588,0.01149559,0,
00:05.3,0.000394821,-0.00254631,0.011501312,0,
00:05.3,0.000377655,-0.002552032,0.011518478,0,
00:05.3,0.000349045,-0.00254631,0.011501312,0,
00:05.3,0.000389099,-0.002534866,0.01143837,0,
00:05.3,0.000411987,-0.002529144,0.011398315,0,
00:05.3,0.000406265,-0.002540588,0.011518478,0,
00:05.3,0.000400543,-0.002540588,0.0115242,0,
00:05.3,0.000389099,-0.00254631,0.0115242,0,
00:05.3,0.000383377,-0.00254631,0.011507034,0,
00:05.3,0.000389099,-0.002552032,0.011501312,0,
00:05.3,0.000366211,-0.002557755,0.011501312,0,
00:05.3,0.000337601,-0.002569199,0.011489868,0,
00:05.3,0.000389099,-0.002557755,0.011472702,0,
00:05.3,0.000434875,-0.00254631,0.011472702,0,
00:05.3,0.000429153,-0.00254631,0.011432648,0,
00:05.3,0.000417709,-0.002552032,0.011489868,0,
00:05.3,0.000394821,-0.002557755,0.011529922,0,
00:05.3,0.000377655,-0.002563477,0.011535645,0,
00:05.3,0.000389099,-0.002569199,0.011512756,0,
00:05.3,0.000366211,-0.002569199,0.0115242,0,
00:05.3,0.000389099,-0.002557755,0.011518478,0,
00:05.3,0.000400543,-0.002569199,0.01149559,0,
00:05.4,0.000417709,-0.002563477,0.011507034,0,
00:05.4,0.000417709,-0.002574921,0.011501312,0,
00:05.4,0.000400543,-0.002586365,0.01149559,0,
00:05.4,0.000394821,-0.002580643,0.011512756,0,
00:05.4,0.000411987,-0.002580643,0.01149559,0,
00:05.4,0.000400543,-0.002586365,0.011478424,0,
00:05.4,0.000394821,-0.002586365,0.01149559,0,
00:05.4,0.000406265,-0.002586365,0.01149559,0,
00:05.4,0.000394821,-0.002586365,0.011478424,0,
00:05.4,0.000400543,-0.002603531,0.0115242,0,
00:05.4,0.000383377,-0.002614975,0.011501312,0,
00:05.4,0.000406265,-0.002603531,0.011478424,0,
00:05.4,0.000400543,-0.002586365,0.011569977,0,
00:05.4,0.000394821,-0.002597809,0.011529922,0,
00:05.4,0.000389099,-0.002592087,0.011501312,0,
00:05.4,0.000406265,-0.002592087,0.011507034,0,
00:05.4,0.000400543,-0.002603531,0.011518478,0,
00:05.4,0.000383377,-0.002614975,0.011512756,0,
00:05.4,0.000406265,-0.002609253,0.011518478,0,
00:05.4,0.000406265,-0.002609253,0.011484146,0,
00:05.4,0.000411987,-0.002603531,0.01149559,0,
00:05.4,0.000417709,-0.002603531,0.011518478,0,
00:05.4,0.000400543,-0.002609253,0.011541367,0,
00:05.4,0.000411987,-0.002614975,0.01149559,0,
00:05.4,0.000417709,-0.002603531,0.011484146,0,
00:05.5,0.000423431,-0.002603531,0.011489868,0,
00:05.5,0.000411987,-0.002620697,0.01146698,0,
00:05.5,0.000377655,-0.002632141,0.011558533,0,
00:05.5,0.000406265,-0.002632141,0.011518478,0,
00:05.5,0.000411987,-0.002620697,0.01149559,0,
00:05.5,0.000411987,-0.002620697,0.01149559,0,
00:05.5,0.000400543,-0.002620697,0.0115242,0,
00:05.5,0.000411987,-0.002614975,0.011489868,0,
00:05.5,0.000389099,-0.002632141,0.011484146,0,
00:05.5,0.000406265,-0.002632141,0.011552811,0,
00:05.5,0.000406265,-0.002626419,0.011552811,0,
00:05.5,0.000406265,-0.002632141,0.011518478,0,
00:05.5,0.000394821,-0.002637863,0.01149559,0,
00:05.5,0.000389099,-0.002655029,0.011529922,0,
00:05.5,0.000411987,-0.002643585,0.011518478,0,
00:05.5,0.000400543,-0.002626419,0.01146698,0,
00:05.5,0.000411987,-0.002626419,0.011432648,0,
00:05.5,0.000434875,-0.002626419,0.011512756,0,
00:05.5,0.000411987,-0.002632141,0.011518478,0,
00:05.5,0.000411987,-0.002643585,0.011535645,0,
00:05.5,0.000411987,-0.002637863,0.011541367,0,
00:05.5,0.000406265,-0.002632141,0.011512756,0,
00:05.5,0.000411987,-0.002632141,0.011501312,0,
00:05.5,0.000400543,-0.002666473,0.011484146,0,
00:05.5,0.000371933,-0.002672195,0.011512756,0,
00:05.6,0.000423431,-0.002649307,0.011529922,0,
00:05.6,0.000417709,-0.002643585,0.011501312,0,
00:05.6,0.000411987,-0.002643585,0.01149559,0,
00:05.6,0.000411987,-0.002643585,0.011489868,0,
00:05.6,0.000411987,-0.002655029,0.011507034,0,
00:05.6,0.000406265,-0.002660751,0.011478424,0,
00:05.6,0.000383377,-0.002666473,0.011541367,0,
00:05.6,0.000389099,-0.002660751,0.01146698,0,
00:05.6,0.000406265,-0.002660751,0.011501312,0,
00:05.6,0.000429153,-0.002660751,0.011529922,0,
00:05.6,0.000429153,-0.002660751,0.011541367,0,
00:05.6,0.000406265,-0.002660751,0.011501312,0,
00:05.6,0.000406265,-0.002672195,0.011512756,0,
00:05.6,0.000417709,-0.002660751,0.011507034,0,
00:05.6,0.000423431,-0.002655029,0.01146698,0,
00:05.6,0.000429153,-0.002672195,0.011489868,0,
00:05.6,0.000406265,-0.00268364,0.011507034,0,
00:05.6,0.000394821,-0.00268364,0.011507034,0,
00:05.6,0.000411987,-0.00268364,0.011541367,0,
00:05.6,0.000423431,-0.00268364,0.011501312,0,
00:05.6,0.000423431,-0.002689362,0.0115242,0,
00:05.6,0.000429153,-0.002695084,0.011529922,0,
00:05.6,0.000411987,-0.002706528,0.011529922,0,
00:05.6,0.000411987,-0.002695084,0.011501312,0,
00:05.6,0.000411987,-0.002695084,0.01149559,0,
00:05.7,0.000411987,-0.002689362,0.011564255,0,
00:05.7,0.000417709,-0.002695084,0.011535645,0,
00:05.7,0.000423431,-0.002700806,0.011518478,0,
00:05.7,0.000423431,-0.002700806,0.011507034,0,
00:05.7,0.000417709,-0.002706528,0.011529922,0,
00:05.7,0.000423431,-0.002706528,0.011512756,0,
00:05.7,0.000423431,-0.002700806,0.011518478,0,
00:05.7,0.000417709,-0.002723694,0.011501312,0,
00:05.7,0.000429153,-0.002723694,0.011518478,0,
00:05.7,0.000429153,-0.00271225,0.011558533,0,
00:05.7,0.000417709,-0.002717972,0.011564255,0,
00:05.7,0.000389099,-0.002735138,0.011541367,0,
00:05.7,0.00044632,-0.002723694,0.011529922,0,
00:05.7,0.000434875,-0.00274086,0.0115242,0,
00:05.7,0.000434875,-0.00274086,0.0115242,0,
00:05.7,0.00044632,-0.002723694,0.011547089,0,
00:05.7,0.000463486,-0.002723694,0.011512756,0,
00:05.7,0.000452042,-0.002729416,0.011507034,0,
00:05.7,0.00044632,-0.002729416,0.01149559,0,
00:05.7,0.000434875,-0.00274086,0.0115242,0,
00:05.7,0.000423431,-0.002752304,0.011541367,0,
00:05.7,0.000434875,-0.002746582,0.011547089,0,
00:05.7,0.000423431,-0.002752304,0.011575699,0,
00:05.7,0.000452042,-0.002746582,0.011575699,0,
00:05.7,0.000440598,-0.002752304,0.011564255,0,
00:05.8,0.000440598,-0.002758026,0.011541367,0,
00:05.8,0.00044632,-0.002752304,0.011552811,0,
00:05.8,0.000417709,-0.002763748,0.011541367,0,
00:05.8,0.000429153,-0.002775192,0.011547089,0,
00:05.8,0.000434875,-0.002758026,0.011587143,0,
00:05.8,0.00044632,-0.002763748,0.011598587,0,
00:05.8,0.000411987,-0.002780914,0.011598587,0,
00:05.8,0.000400543,-0.002780914,0.011587143,0,
00:05.8,0.000486374,-0.00276947,0.011575699,0,
00:05.8,0.000509262,-0.00276947,0.011569977,0,
00:05.8,0.000452042,-0.002780914,0.011564255,0,
00:05.8,0.000480652,-0.002775192,0.011592865,0,
00:05.8,0.00047493,-0.002792358,0.011564255,0,
00:05.8,0.000457764,-0.002792358,0.011575699,0,
00:05.8,0.000457764,-0.002792358,0.011541367,0,
00:05.8,0.000452042,-0.002803802,0.011598587,0,
00:05.8,0.000469208,-0.00279808,0.011598587,0,
00:05.8,0.00047493,-0.002792358,0.011592865,0,
00:05.8,0.00047493,-0.00279808,0.011569977,0,
00:05.8,0.000480652,-0.002803802,0.011541367,0,
00:05.8,0.000457764,-0.002815247,0.011655807,0,
00:05.8,0.000486374,-0.002803802,0.011610031,0,
00:05.8,0.000497818,-0.002809525,0.011558533,0,
00:05.8,0.000457764,-0.002815247,0.011610031,0,
00:05.8,0.000457764,-0.002820969,0.011627197,0,
00:05.9,0.000469208,-0.002826691,0.011621475,0,
00:05.9,0.00047493,-0.002832413,0.011587143,0,
00:05.9,0.000452042,-0.002838135,0.011569977,0,
00:05.9,0.000457764,-0.002832413,0.011598587,0,
00:05.9,0.000486374,-0.002832413,0.011615753,0,
00:05.9,0.000497818,-0.002849579,0.011558533,0,
00:05.9,0.000509262,-0.002838135,0.011610031,0,
00:05.9,0.000497818,-0.002838135,0.011621475,0,
00:05.9,0.000497818,-0.002838135,0.011632919,0,
00:05.9,0.000497818,-0.002843857,0.011632919,0,
00:05.9,0.000497818,-0.002843857,0.011621475,0,
00:05.9,0.000509262,-0.002843857,0.011604309,0,
00:05.9,0.000509262,-0.002866745,0.011610031,0,
00:05.9,0.000509262,-0.002866745,0.011581421,0,
00:05.9,0.00047493,-0.002866745,0.011655807,0,
00:05.9,0.000497818,-0.002861023,0.011621475,0,
00:05.9,0.00053215,-0.002855301,0.011598587,0,
00:05.9,0.000537872,-0.002843857,0.011604309,0,
00:05.9,0.00053215,-0.002855301,0.011604309,0,
00:05.9,0.000509262,-0.002883911,0.011655807,0,
00:05.9,0.000492096,-0.002889633,0.011667252,0,
00:05.9,0.00050354,-0.002889633,0.011592865,0,
00:05.9,0.000520706,-0.002895355,0.011610031,0,
00:05.9,0.00053215,-0.002895355,0.01166153,0,
00:05.9,0.000509262,-0.002878189,0.011604309,0,
00:06.0,0.00050354,-0.002889633,0.011667252,0,
00:06.0,0.000509262,-0.002901077,0.011667252,0,
00:06.0,0.000514984,-0.002901077,0.011621475,0,
00:06.0,0.000549316,-0.002912521,0.011615753,0,
00:06.0,0.000514984,-0.002912521,0.011672974,0,
00:06.0,0.000520706,-0.002906799,0.011655807,0,
00:06.0,0.000549316,-0.002901077,0.011655807,0,
00:06.0,0.000537872,-0.002901077,0.011667252,0,
00:06.0,0.000526428,-0.002906799,0.011667252,0,
00:06.0,0.00053215,-0.002912521,0.011650085,0,
00:06.0,0.00056076,-0.002918243,0.011587143,0,
00:06.0,0.000555038,-0.002918243,0.011638641,0,
00:00:06,0.000543594,-0.002918243,0.011701584,0,
00:06.0,0.000543594,-0.002918243,0.011672974,0,
00:06.0,0.000549316,-0.002918243,0.011695862,0,
00:06.0,0.000543594,-0.002923965,0.011678696,0,
00:06.0,0.000549316,-0.002941132,0.011667252,0,
00:06.0,0.000555038,-0.002946854,0.011638641,0,
00:06.0,0.000572205,-0.002941132,0.011667252,0,
00:06.0,0.000577927,-0.00293541,0.011672974,0,
00:06.0,0.000543594,-0.002941132,0.011701584,0,
00:06.0,0.000555038,-0.002946854,0.011672974,0,
00:06.0,0.000543594,-0.002952576,0.011678696,0,
00:06.0,0.000555038,-0.002958298,0.01169014,0,
00:06.0,0.000566483,-0.002958298,0.011678696,0,
00:06.1,0.000566483,-0.002969742,0.011684418,0,
00:06.1,0.000566483,-0.00296402,0.011701584,0,
00:06.1,0.000566483,-0.00296402,0.011678696,0,
00:06.1,0.000572205,-0.002969742,0.01169014,0,
00:06.1,0.00056076,-0.002969742,0.011684418,0,
00:06.1,0.000577927,-0.002969742,0.011667252,0,
00:06.1,0.000589371,-0.002975464,0.011672974,0,
00:06.1,0.000583649,-0.00299263,0.011707306,0,
00:06.1,0.000577927,-0.002998352,0.011735916,0,
00:06.1,0.000589371,-0.002998352,0.011713028,0,
00:06.1,0.000572205,-0.002998352,0.011678696,0,
00:06.1,0.000612259,-0.00299263,0.011638641,0,
00:06.1,0.000612259,-0.002998352,0.011730194,0,
00:06.1,0.000583649,-0.002998352,0.011735916,0,
00:06.1,0.000572205,-0.003009796,0.011730194,0,
00:06.1,0.000572205,-0.00302124,0.011753082,0,
00:06.1,0.000600815,-0.003015518,0.011713028,0,
00:06.1,0.000600815,-0.00302124,0.011695862,0,
00:06.1,0.000600815,-0.003032684,0.011695862,0,
00:06.1,0.000606537,-0.003044128,0.011707306,0,
00:06.1,0.000595093,-0.003055573,0.011713028,0,
00:06.1,0.000583649,-0.00304985,0.011713028,0,
00:06.1,0.000595093,-0.003055573,0.011735916,0,
00:06.1,0.000623703,-0.00304985,0.011730194,0,
00:06.1,0.000617981,-0.00304985,0.011701584,0,
00:06.2,0.000600815,-0.003067017,0.011758804,0,
00:06.2,0.000600815,-0.003067017,0.011735916,0,
00:06.2,0.000600815,-0.003055573,0.011730194,0,
00:06.2,0.000617981,-0.003055573,0.011735916,0,
00:06.2,0.000595093,-0.003061295,0.011724472,0,
00:06.2,0.000617981,-0.003067017,0.011735916,0,
00:06.2,0.000617981,-0.003078461,0.01171875,0,
00:06.2,0.000595093,-0.003078461,0.011724472,0,
00:06.2,0.000629425,-0.003072739,0.011753082,0,
00:06.2,0.000623703,-0.003084183,0.011758804,0,
00:06.2,0.000629425,-0.003078461,0.011730194,0,
00:06.2,0.000623703,-0.003084183,0.011735916,0,
00:06.2,0.000623703,-0.003084183,0.01174736,0,
00:06.2,0.000635147,-0.003078461,0.011707306,0,
00:06.2,0.000629425,-0.003078461,0.011667252,0,
00:06.2,0.000629425,-0.003089905,0.011764526,0,
00:06.2,0.000629425,-0.003095627,0.011787415,0,
00:06.2,0.000629425,-0.003095627,0.011753082,0,
00:06.2,0.000635147,-0.003089905,0.01174736,0,
00:06.2,0.000623703,-0.003084183,0.011735916,0,
00:06.2,0.000640869,-0.003089905,0.01174736,0,
00:06.2,0.000635147,-0.003101349,0.011758804,0,
00:06.2,0.000640869,-0.003101349,0.011758804,0,
00:06.2,0.000652313,-0.003101349,0.011730194,0,
00:06.2,0.000658035,-0.003101349,0.011741638,0,
00:06.3,0.000635147,-0.003112793,0.011764526,0,
00:06.3,0.000635147,-0.003112793,0.011741638,0,
00:06.3,0.000646591,-0.003107071,0.011764526,0,
00:06.3,0.000663757,-0.003107071,0.011764526,0,
00:06.3,0.000640869,-0.003112793,0.011753082,0,
00:06.3,0.000635147,-0.003118515,0.01174736,0,
00:06.3,0.000646591,-0.003124237,0.011741638,0,
00:06.3,0.000663757,-0.003112793,0.01174736,0,
00:06.3,0.000652313,-0.003118515,0.011753082,0,
00:06.3,0.000640869,-0.003112793,0.01177597,0,
00:06.3,0.000658035,-0.003112793,0.011753082,0,
00:06.3,0.000640869,-0.003124237,0.01169014,0,
00:06.3,0.000635147,-0.003129959,0.011798859,0,
00:06.3,0.000669479,-0.003129959,0.011764526,0,
00:06.3,0.000663757,-0.003118515,0.011764526,0,
00:06.3,0.000640869,-0.003124237,0.011770248,0,
00:06.3,0.000635147,-0.003129959,0.011735916,0,
00:06.3,0.000669479,-0.003118515,0.011758804,0,
00:06.3,0.000675201,-0.003129959,0.011787415,0,
00:06.3,0.000669479,-0.003129959,0.011764526,0,
00:06.3,0.000675201,-0.003129959,0.011793137,0,
00:06.3,0.000669479,-0.003135681,0.011770248,0,
00:06.3,0.000658035,-0.003141403,0.011764526,0,
00:06.3,0.000658035,-0.003135681,0.011793137,0,
00:06.3,0.000669479,-0.003124237,0.01177597,0,
00:06.4,0.000669479,-0.003129959,0.01174736,0,
00:06.4,0.000663757,-0.003135681,0.011753082,0,
00:06.4,0.000658035,-0.003141403,0.011770248,0,
00:06.4,0.000663757,-0.003141403,0.011821747,0,
00:06.4,0.000658035,-0.003152847,0.011787415,0,
00:06.4,0.000663757,-0.003147125,0.011764526,0,
00:06.4,0.000692368,-0.003141403,0.011753082,0,
00:06.4,0.000663757,-0.003147125,0.011770248,0,
00:06.4,0.000686646,-0.003135681,0.011741638,0,
00:06.4,0.000692368,-0.003135681,0.011724472,0,
00:06.4,0.000675201,-0.003158569,0.011758804,0,
00:06.4,0.000686646,-0.003152847,0.011781693,0,
00:06.4,0.000680923,-0.003147125,0.011798859,0,
00:06.4,0.000669479,-0.003147125,0.011798859,0,
00:06.4,0.000652313,-0.003152847,0.01177597,0,
00:06.4,0.000646591,-0.003170013,0.011724472,0,
00:06.4,0.000686646,-0.003164291,0.011781693,0,
00:06.4,0.000692368,-0.003170013,0.011741638,0,
00:06.4,0.000686646,-0.003158569,0.011741638,0,
00:06.4,0.000680923,-0.003147125,0.011793137,0,
00:06.4,0.000692368,-0.003147125,0.011804581,0,
00:06.4,0.000680923,-0.003158569,0.011787415,0,
00:06.4,0.000675201,-0.003164291,0.011753082,0,
00:06.4,0.000669479,-0.003158569,0.011810303,0,
00:06.4,0.000680923,-0.003152847,0.011787415,0,
00:06.5,0.000680923,-0.003164291,0.011798859,0,
00:06.5,0.000646591,-0.003175735,0.011770248,0,
00:06.5,0.000703812,-0.003170013,0.011753082,0,
00:06.5,0.000686646,-0.003158569,0.011770248,0,
00:06.5,0.00069809,-0.003147125,0.011758804,0,
00:06.5,0.000680923,-0.003152847,0.011735916,0,
00:06.5,0.000709534,-0.003152847,0.01177597,0,
00:06.5,0.00069809,-0.003164291,0.011695862,0,
00:06.5,0.000692368,-0.003164291,0.01169014,0,
00:06.5,0.000669479,-0.003164291,0.011827469,0,
00:06.5,0.000680923,-0.003158569,0.011764526,0,
00:06.5,0.000669479,-0.003164291,0.011770248,0,
00:06.5,0.000669479,-0.003175735,0.011798859,0,
00:06.5,0.00069809,-0.003170013,0.011764526,0,
00:06.5,0.000692368,-0.003158569,0.011735916,0,
00:06.5,0.00069809,-0.003158569,0.01177597,0,
00:06.5,0.000703812,-0.003170013,0.011753082,0,
00:06.5,0.000686646,-0.003164291,0.011758804,0,
00:06.5,0.000680923,-0.003170013,0.011764526,0,
00:06.5,0.000692368,-0.003170013,0.011741638,0,
00:06.5,0.000686646,-0.003164291,0.011764526,0,
00:06.5,0.000703812,-0.003158569,0.011753082,0,
00:06.5,0.000715256,-0.003158569,0.01174736,0,
00:06.5,0.000709534,-0.003152847,0.011741638,0,
00:06.5,0.000703812,-0.003164291,0.011707306,0,
00:06.6,0.000680923,-0.003175735,0.011758804,0,
00:06.6,0.000669479,-0.003175735,0.011753082,0,
00:06.6,0.000686646,-0.003192902,0.011730194,0,
00:06.6,0.000686646,-0.00318718,0.011753082,0,
00:06.6,0.0007267,-0.003147125,0.011758804,0,
00:06.6,0.000709534,-0.003152847,0.011753082,0,
00:06.6,0.00069809,-0.003170013,0.011735916,0,
00:06.6,0.000663757,-0.003175735,0.011753082,0,
00:06.6,0.000709534,-0.003164291,0.011735916,0,
00:06.6,0.000703812,-0.003164291,0.01174736,0,
00:06.6,0.000703812,-0.003170013,0.011758804,0,
00:06.6,0.00069809,-0.003170013,0.011730194,0,
00:06.6,0.000680923,-0.003175735,0.011684418,0,
00:06.6,0.000686646,-0.003164291,0.011724472,0,
00:06.6,0.000703812,-0.003158569,0.011758804,0,
00:06.6,0.000715256,-0.003158569,0.01174736,0,
00:06.6,0.00069809,-0.003164291,0.01174736,0,
00:06.6,0.000720978,-0.003152847,0.01171875,0,
00:06.6,0.0007267,-0.003152847,0.011730194,0,
00:06.6,0.000692368,-0.003175735,0.011730194,0,
00:06.6,0.000680923,-0.003175735,0.011753082,0,
00:06.6,0.000686646,-0.003164291,0.011741638,0,
00:06.6,0.000675201,-0.003164291,0.011753082,0,
00:06.6,0.000680923,-0.003158569,0.011764526,0,
00:06.6,0.000715256,-0.003164291,0.01171875,0,
00:06.7,0.000692368,-0.003175735,0.011667252,0,
00:06.7,0.0007267,-0.003164291,0.011701584,0,
00:06.7,0.000703812,-0.003164291,0.011713028,0,
00:06.7,0.000686646,-0.003175735,0.011798859,0,
00:06.7,0.000709534,-0.003158569,0.011741638,0,
00:06.7,0.000715256,-0.003164291,0.011701584,0,
00:06.7,0.000686646,-0.003170013,0.011713028,0,
00:06.7,0.000675201,-0.003175735,0.01171875,0,
00:06.7,0.00069809,-0.003170013,0.011758804,0,
00:06.7,0.000715256,-0.003158569,0.011724472,0,
00:06.7,0.000720978,-0.003170013,0.011713028,0,
00:06.7,0.00069809,-0.003181458,0.011650085,0,
00:06.7,0.0007267,-0.003152847,0.011632919,0,
00:06.7,0.000732422,-0.003147125,0.011770248,0,
00:06.7,0.000703812,-0.003152847,0.01177597,0,
00:06.7,0.000663757,-0.003170013,0.011724472,0,
00:06.7,0.00069809,-0.003170013,0.011695862,0,
00:06.7,0.000720978,-0.003147125,0.01169014,0,
00:06.7,0.000709534,-0.003147125,0.011713028,0,
00:06.7,0.000715256,-0.003158569,0.011684418,0,
00:06.7,0.00069809,-0.003152847,0.01169014,0,
00:06.7,0.0007267,-0.003152847,0.011672974,0,
00:06.7,0.0007267,-0.003152847,0.011644363,0,
00:06.7,0.0007267,-0.003141403,0.011667252,0,
00:06.7,0.000709534,-0.003152847,0.011650085,0,
00:06.8,0.000709534,-0.003170013,0.011655807,0,
00:06.8,0.000720978,-0.003164291,0.01169014,0,
00:06.8,0.000692368,-0.003164291,0.011713028,0,
00:06.8,0.000709534,-0.003152847,0.01166153,0,
00:06.8,0.000749588,-0.003135681,0.011655807,0,
00:06.8,0.00069809,-0.003147125,0.01166153,0,
00:06.8,0.00069809,-0.003152847,0.011684418,0,
00:06.8,0.000720978,-0.003158569,0.01169014,0,
00:06.8,0.0007267,-0.003164291,0.011672974,0,
00:06.8,0.000715256,-0.003152847,0.011678696,0,
00:06.8,0.000732422,-0.003147125,0.011650085,0,
00:06.8,0.00069809,-0.003147125,0.011655807,0,
00:06.8,0.000738144,-0.003141403,0.011615753,0,
00:06.8,0.000732422,-0.003147125,0.011615753,0,
00:06.8,0.000709534,-0.003152847,0.011707306,0,
00:06.8,0.0007267,-0.003135681,0.01166153,0,
00:06.8,0.000715256,-0.003141403,0.011650085,0,
00:06.8,0.000715256,-0.003147125,0.011644363,0,
00:06.8,0.000743866,-0.003152847,0.011592865,0,
00:06.8,0.000715256,-0.003147125,0.011627197,0,
00:06.8,0.000715256,-0.003129959,0.01166153,0,
00:06.8,0.000738144,-0.003124237,0.01166153,0,
00:06.8,0.000732422,-0.003152847,0.011672974,0,
00:06.8,0.000720978,-0.003164291,0.011678696,0,
00:06.8,0.000703812,-0.003147125,0.011655807,0,
00:06.9,0.000715256,-0.003141403,0.011621475,0,
00:06.9,0.000720978,-0.003147125,0.011610031,0,
00:06.9,0.000720978,-0.003135681,0.011655807,0,
00:06.9,0.000715256,-0.003141403,0.011644363,0,
00:06.9,0.000709534,-0.003141403,0.011610031,0,
00:06.9,0.000738144,-0.003141403,0.011615753,0,
00:06.9,0.00075531,-0.003141403,0.011644363,0,
00:06.9,0.000732422,-0.003147125,0.011650085,0,
00:06.9,0.000709534,-0.003164291,0.011650085,0,
00:06.9,0.000715256,-0.003152847,0.01166153,0,
00:06.9,0.000738144,-0.003118515,0.011650085,0,
00:06.9,0.0007267,-0.003124237,0.011638641,0,
00:06.9,0.000738144,-0.003129959,0.011632919,0,
00:06.9,0.0007267,-0.003129959,0.011638641,0,
00:06.9,0.000732422,-0.003135681,0.011604309,0,
00:06.9,0.000732422,-0.003147125,0.011638641,0,
00:06.9,0.0007267,-0.003147125,0.011644363,0,
00:06.9,0.000732422,-0.003124237,0.011627197,0,
00:06.9,0.000732422,-0.003118515,0.011569977,0,
00:06.9,0.000738144,-0.003124237,0.011650085,0,
00:06.9,0.000738144,-0.003124237,0.011650085,0,
00:06.9,0.000738144,-0.003129959,0.011592865,0,
00:06.9,0.0007267,-0.003124237,0.011610031,0,
00:06.9,0.000720978,-0.003129959,0.011621475,0,
00:06.9,0.000709534,-0.003129959,0.01166153,0,
00:07.0,0.000738144,-0.003124237,0.011644363,0,
00:07.0,0.0007267,-0.003129959,0.011627197,0,
00:07.0,0.0007267,-0.003129959,0.011627197,0,
00:07.0,0.0007267,-0.003124237,0.011650085,0,
00:07.0,0.000738144,-0.003118515,0.011621475,0,
00:07.0,0.000732422,-0.003124237,0.011621475,0,
00:07.0,0.000732422,-0.003129959,0.011632919,0,
00:07.0,0.000743866,-0.003118515,0.011632919,0,
00:07.0,0.0007267,-0.003129959,0.011627197,0,
00:07.0,0.000680923,-0.003135681,0.011627197,0,
00:07.0,0.000743866,-0.003129959,0.011644363,0,
00:07.0,0.000743866,-0.003124237,0.011627197,0,
00:00:07,0.000732422,-0.003124237,0.011621475,0,
00:07.0,0.0007267,-0.003118515,0.011632919,0,
00:07.0,0.000749588,-0.003107071,0.011610031,0,
00:07.0,0.000732422,-0.003124237,0.011627197,0,
00:07.0,0.000720978,-0.003118515,0.011627197,0,
00:07.0,0.000738144,-0.003112793,0.011587143,0,
00:07.0,0.0007267,-0.003118515,0.011627197,0,
00:07.0,0.000715256,-0.003118515,0.011638641,0,
00:07.0,0.000738144,-0.003112793,0.011627197,0,
00:07.0,0.000743866,-0.003112793,0.011632919,0,
00:07.0,0.000732422,-0.003118515,0.011604309,0,
00:07.0,0.000732422,-0.003118515,0.011632919,0,
00:07.0,0.000743866,-0.003118515,0.011672974,0,
00:07.1,0.000749588,-0.003118515,0.011621475,0,
00:07.1,0.000715256,-0.003118515,0.011587143,0,
00:07.1,0.000720978,-0.003112793,0.011598587,0,
00:07.1,0.0007267,-0.003107071,0.011650085,0,
00:07.1,0.0007267,-0.003112793,0.011632919,0,
00:07.1,0.00075531,-0.003101349,0.011587143,0,
00:07.1,0.000720978,-0.003107071,0.011632919,0,
00:07.1,0.000743866,-0.003107071,0.011621475,0,
00:07.1,0.000692368,-0.003118515,0.011667252,0,
00:07.1,0.000749588,-0.003101349,0.011598587,0,
00:07.1,0.000732422,-0.003112793,0.011650085,0,
00:07.1,0.000738144,-0.003107071,0.011632919,0,
00:07.1,0.000732422,-0.003107071,0.011598587,0,
00:07.1,0.000720978,-0.003107071,0.011592865,0,
00:07.1,0.00069809,-0.003118515,0.011655807,0,
00:07.1,0.000732422,-0.003118515,0.011655807,0,
00:07.1,0.000732422,-0.003112793,0.011644363,0,
00:07.1,0.0007267,-0.003095627,0.011627197,0,
00:07.1,0.000738144,-0.003095627,0.011610031,0,
00:07.1,0.000715256,-0.003118515,0.011644363,0,
00:07.1,0.000715256,-0.003118515,0.011638641,0,
00:07.1,0.00075531,-0.003089905,0.011627197,0,
00:07.1,0.0007267,-0.003089905,0.011604309,0,
00:07.1,0.000715256,-0.003089905,0.011610031,0,
00:07.1,0.00069809,-0.003101349,0.011621475,0,
00:07.2,0.000738144,-0.003101349,0.011621475,0,
00:07.2,0.0007267,-0.003101349,0.011638641,0,
00:07.2,0.0007267,-0.003101349,0.011632919,0,
00:07.2,0.000732422,-0.003101349,0.011581421,0,
00:07.2,0.0007267,-0.003084183,0.011581421,0,
00:07.2,0.000715256,-0.003084183,0.01166153,0,
00:07.2,0.000715256,-0.003095627,0.011621475,0,
00:07.2,0.0007267,-0.003089905,0.011610031,0,
00:07.2,0.000720978,-0.003095627,0.011610031,0,
00:07.2,0.000715256,-0.003101349,0.011644363,0,
00:07.2,0.000709534,-0.003101349,0.011604309,0,
00:07.2,0.0007267,-0.003089905,0.011621475,0,
00:07.2,0.0007267,-0.003095627,0.011644363,0,
00:07.2,0.000692368,-0.003089905,0.011581421,0,
00:07.2,0.00069809,-0.003084183,0.011610031,0,
00:07.2,0.000738144,-0.003084183,0.011569977,0,
00:07.2,0.000663757,-0.003089905,0.011598587,0,
00:07.2,0.000709534,-0.003095627,0.011632919,0,
00:07.2,0.000732422,-0.003089905,0.011632919,0,
00:07.2,0.000703812,-0.003089905,0.011604309,0,
00:07.2,0.000629425,-0.003095627,0.011627197,0,
00:07.2,0.000663757,-0.003095627,0.011650085,0,
00:07.2,0.000738144,-0.003084183,0.011569977,0,
00:07.2,0.000709534,-0.003089905,0.011598587,0,
00:07.2,0.000738144,-0.003078461,0.011610031,0,
00:07.3,0.0007267,-0.003078461,0.011615753,0,
00:07.3,0.000720978,-0.003084183,0.011592865,0,
00:07.3,0.0007267,-0.003078461,0.011564255,0,
00:07.3,0.000732422,-0.003067017,0.011592865,0,
00:07.3,0.000715256,-0.003072739,0.011632919,0,
00:07.3,0.000715256,-0.003078461,0.011667252,0,
00:07.3,0.000709534,-0.003072739,0.011650085,0,
00:07.3,0.00069809,-0.003072739,0.011627197,0,
00:07.3,0.000703812,-0.003078461,0.011610031,0,
00:07.3,0.0007267,-0.003072739,0.011604309,0,
00:07.3,0.000715256,-0.003072739,0.011598587,0,
00:07.3,0.000732422,-0.003072739,0.011627197,0,
00:07.3,0.000732422,-0.003072739,0.011581421,0,
00:07.3,0.000720978,-0.003067017,0.011575699,0,
00:07.3,0.000692368,-0.003072739,0.011632919,0,
00:07.3,0.00069809,-0.003072739,0.011644363,0,
00:07.3,0.000720978,-0.003072739,0.011592865,0,
00:07.3,0.000692368,-0.003078461,0.011621475,0,
00:07.3,0.00069809,-0.003078461,0.011592865,0,
00:07.3,0.000703812,-0.003078461,0.011632919,0,
00:07.3,0.0007267,-0.003061295,0.011644363,0,
00:07.3,0.000732422,-0.003055573,0.011621475,0,
00:07.3,0.000709534,-0.003055573,0.011587143,0,
00:07.3,0.000669479,-0.003072739,0.011621475,0,
00:07.3,0.000692368,-0.003078461,0.011650085,0,
00:07.4,0.0007267,-0.003078461,0.011627197,0,
00:07.4,0.000732422,-0.003055573,0.011592865,0,
00:07.4,0.000715256,-0.00304985,0.011581421,0,
00:07.4,0.0007267,-0.003055573,0.011632919,0,
00:07.4,0.000732422,-0.003055573,0.011604309,0,
00:07.4,0.000732422,-0.003044128,0.011598587,0,
00:07.4,0.00069809,-0.003061295,0.011627197,0,
00:07.4,0.00069809,-0.003067017,0.011627197,0,
00:07.4,0.000709534,-0.003061295,0.011632919,0,
00:07.4,0.000720978,-0.003055573,0.011569977,0,
00:07.4,0.000715256,-0.003055573,0.011592865,0,
00:07.4,0.00069809,-0.003055573,0.011621475,0,
00:07.4,0.00069809,-0.003055573,0.011632919,0,
00:07.4,0.000703812,-0.00304985,0.011610031,0,
00:07.4,0.000675201,-0.003055573,0.011615753,0,
00:07.4,0.000709534,-0.00304985,0.011615753,0,
00:07.4,0.0007267,-0.003055573,0.011627197,0,
00:07.4,0.000715256,-0.003055573,0.011610031,0,
00:07.4,0.000686646,-0.003055573,0.011592865,0,
00:07.4,0.000692368,-0.003067017,0.011604309,0,
00:07.4,0.00069809,-0.003061295,0.011569977,0,
00:07.4,0.000715256,-0.003038406,0.011638641,0,
00:07.4,0.0007267,-0.003044128,0.011598587,0,
00:07.4,0.00069809,-0.003038406,0.011564255,0,
00:07.4,0.00069809,-0.003038406,0.011598587,0,
00:07.5,0.000686646,-0.00304985,0.011604309,0,
00:07.5,0.000680923,-0.00304985,0.011632919,0,
00:07.5,0.000715256,-0.003055573,0.011598587,0,
00:07.5,0.0007267,-0.003044128,0.011615753,0,
00:07.5,0.000715256,-0.003038406,0.011604309,0,
00:07.5,0.000709534,-0.003032684,0.011592865,0,
00:07.5,0.000715256,-0.003038406,0.011592865,0,
00:07.5,0.00069809,-0.003038406,0.011575699,0,
00:07.5,0.000686646,-0.003055573,0.011592865,0,
00:07.5,0.00069809,-0.003055573,0.011621475,0,
00:07.5,0.000709534,-0.003032684,0.011604309,0,
00:07.5,0.00069809,-0.003032684,0.011598587,0,
00:07.5,0.000692368,-0.003032684,0.011604309,0,
00:07.5,0.00069809,-0.003044128,0.011529922,0,
00:07.5,0.000692368,-0.003032684,0.011644363,0,
00:07.5,0.00069809,-0.003026962,0.011592865,0,
00:07.5,0.000692368,-0.003032684,0.011598587,0,
00:07.5,0.000686646,-0.003038406,0.011598587,0,
00:07.5,0.000692368,-0.003032684,0.011581421,0,
00:07.5,0.000720978,-0.003026962,0.011587143,0,
00:07.5,0.000715256,-0.00302124,0.011581421,0,
00:07.5,0.000703812,-0.003026962,0.011575699,0,
00:07.5,0.000703812,-0.00302124,0.011621475,0,
00:07.5,0.000715256,-0.003015518,0.011564255,0,
00:07.5,0.000658035,-0.003026962,0.011592865,0,
00:07.6,0.000680923,-0.003032684,0.011610031,0,
00:07.6,0.000703812,-0.003015518,0.011592865,0,
00:07.6,0.000715256,-0.003015518,0.011592865,0,
00:07.6,0.000692368,-0.00302124,0.011569977,0,
00:07.6,0.000680923,-0.003015518,0.011564255,0,
00:07.6,0.000675201,-0.00302124,0.011581421,0,
00:07.6,0.000686646,-0.00302124,0.011564255,0,
00:07.6,0.00069809,-0.003015518,0.011564255,0,
00:07.6,0.000669479,-0.003009796,0.011569977,0,
00:07.6,0.000692368,-0.002998352,0.011587143,0,
00:07.6,0.000703812,-0.003004074,0.011558533,0,
00:07.6,0.000692368,-0.00302124,0.011569977,0,
00:07.6,0.000686646,-0.003015518,0.011575699,0,
00:07.6,0.000686646,-0.003009796,0.011581421,0,
00:07.6,0.000658035,-0.00302124,0.011569977,0,
00:07.6,0.000703812,-0.003009796,0.011558533,0,
00:07.6,0.000686646,-0.003015518,0.011518478,0,
00:07.6,0.000675201,-0.00302124,0.011564255,0,
00:07.6,0.000669479,-0.003015518,0.011569977,0,
00:07.6,0.00069809,-0.002986908,0.011558533,0,
00:07.6,0.000709534,-0.002986908,0.011512756,0,
00:07.6,0.000680923,-0.002998352,0.011547089,0,
00:07.6,0.000680923,-0.003004074,0.011558533,0,
00:07.6,0.000675201,-0.003009796,0.011581421,0,
00:07.6,0.000646591,-0.00302124,0.011569977,0,
00:07.7,0.000675201,-0.003009796,0.011518478,0,
00:07.7,0.000686646,-0.002975464,0.011529922,0,
00:07.7,0.000709534,-0.002981186,0.011564255,0,
00:07.7,0.00069809,-0.00299263,0.011518478,0,
00:07.7,0.000686646,-0.003004074,0.0115242,0,
00:07.7,0.000675201,-0.002998352,0.011569977,0,
00:07.7,0.000680923,-0.002998352,0.011552811,0,
00:07.7,0.000686646,-0.002986908,0.011564255,0,
00:07.7,0.000680923,-0.002986908,0.011569977,0,
00:07.7,0.000680923,-0.00299263,0.011547089,0,
00:07.7,0.000675201,-0.002986908,0.011535645,0,
00:07.7,0.000686646,-0.002981186,0.0115242,0,
00:07.7,0.000686646,-0.002981186,0.011512756,0,
00:07.7,0.000669479,-0.002981186,0.011541367,0,
00:07.7,0.000675201,-0.002986908,0.011552811,0,
00:07.7,0.000680923,-0.002986908,0.011541367,0,
00:07.7,0.000675201,-0.002981186,0.011484146,0,
00:07.7,0.000692368,-0.002969742,0.01140976,0,
00:07.7,0.000640869,-0.002981186,0.011592865,0,
00:07.7,0.000669479,-0.00296402,0.011581421,0,
00:07.7,0.000675201,-0.002975464,0.011535645,0,
00:07.7,0.000675201,-0.002981186,0.011529922,0,
00:07.7,0.000680923,-0.002969742,0.011535645,0,
00:07.7,0.000680923,-0.002975464,0.011547089,0,
00:07.7,0.000663757,-0.002986908,0.0115242,0,
00:07.8,0.000680923,-0.002975464,0.011484146,0,
00:07.8,0.000652313,-0.002975464,0.011518478,0,
00:07.8,0.000658035,-0.002969742,0.011529922,0,
00:07.8,0.000663757,-0.00296402,0.011535645,0,
00:07.8,0.000658035,-0.002969742,0.011507034,0,
00:07.8,0.000658035,-0.002969742,0.011535645,0,
00:07.8,0.000635147,-0.00296402,0.0115242,0,
00:07.8,0.000686646,-0.002958298,0.011489868,0,
00:07.8,0.00069809,-0.00296402,0.01140976,0,
00:07.8,0.000663757,-0.00296402,0.011535645,0,
00:07.8,0.000658035,-0.002958298,0.011552811,0,
00:07.8,0.000663757,-0.002958298,0.011529922,0,
00:07.8,0.000658035,-0.002958298,0.011518478,0,
00:07.8,0.000658035,-0.002958298,0.01149559,0,
00:07.8,0.000658035,-0.002952576,0.011512756,0,
00:07.8,0.000658035,-0.002941132,0.011507034,0,
00:07.8,0.000658035,-0.002941132,0.01146698,0,
00:07.8,0.000652313,-0.002958298,0.011478424,0,
00:07.8,0.000658035,-0.002958298,0.011489868,0,
00:07.8,0.000669479,-0.002952576,0.01149559,0,
00:07.8,0.000652313,-0.00296402,0.011472702,0,
00:07.8,0.000652313,-0.002952576,0.011535645,0,
00:07.8,0.000663757,-0.002941132,0.011512756,0,
00:07.8,0.000640869,-0.002952576,0.011512756,0,
00:07.8,0.000640869,-0.002946854,0.011507034,0,
00:07.9,0.000663757,-0.00293541,0.011484146,0,
00:07.9,0.000652313,-0.00293541,0.011501312,0,
00:07.9,0.000646591,-0.002946854,0.01149559,0,
00:07.9,0.000629425,-0.002958298,0.011472702,0,
00:07.9,0.000658035,-0.002946854,0.011501312,0,
00:07.9,0.000663757,-0.002929688,0.011472702,0,
00:07.9,0.000646591,-0.00293541,0.01146698,0,
00:07.9,0.000658035,-0.002929688,0.011512756,0,
00:07.9,0.000652313,-0.00293541,0.011472702,0,
00:07.9,0.000640869,-0.002941132,0.01149559,0,
00:07.9,0.000646591,-0.00293541,0.011501312,0,
00:07.9,0.000646591,-0.00293541,0.01149559,0,
00:07.9,0.000658035,-0.002941132,0.011484146,0,
00:07.9,0.000640869,-0.002929688,0.011489868,0,
00:07.9,0.000623703,-0.002923965,0.011501312,0,
00:07.9,0.000635147,-0.002923965,0.011478424,0,
00:07.9,0.000629425,-0.002929688,0.011484146,0,
00:07.9,0.000646591,-0.002918243,0.01146698,0,
00:07.9,0.000635147,-0.002929688,0.011535645,0,
00:07.9,0.000635147,-0.002929688,0.01146698,0,
00:07.9,0.000652313,-0.002918243,0.011484146,0,
00:07.9,0.000640869,-0.002923965,0.011489868,0,
00:07.9,0.000623703,-0.002929688,0.011501312,0,
00:07.9,0.000635147,-0.002923965,0.011461258,0,
00:07.9,0.000646591,-0.002918243,0.011426926,0,
00:08.0,0.000646591,-0.002918243,0.011426926,0,
00:08.0,0.000623703,-0.002918243,0.011535645,0,
00:08.0,0.000612259,-0.002923965,0.011512756,0,
00:08.0,0.000640869,-0.002918243,0.011484146,0,
00:08.0,0.000635147,-0.002906799,0.01146698,0,
00:08.0,0.000663757,-0.002895355,0.01140976,0,
00:08.0,0.000635147,-0.002901077,0.011358261,0,
00:08.0,0.000635147,-0.002901077,0.011569977,0,
00:08.0,0.000617981,-0.002918243,0.011501312,0,
00:08.0,0.000617981,-0.002912521,0.011518478,0,
00:08.0,0.000629425,-0.002912521,0.011501312,0,
00:08.0,0.000623703,-0.002912521,0.011472702,0,
00:00:08,0.000617981,-0.002901077,0.011455536,0,
00:08.0,0.000640869,-0.002883911,0.011444092,0,
00:08.0,0.000635147,-0.002895355,0.011478424,0,
00:08.0,0.000606537,-0.002906799,0.0115242,0,
00:08.0,0.000612259,-0.002906799,0.01149559,0,
00:08.0,0.000652313,-0.002895355,0.011472702,0,
00:08.0,0.000629425,-0.002895355,0.011484146,0,
00:08.0,0.000623703,-0.002895355,0.011484146,0,
00:08.0,0.000629425,-0.002889633,0.011478424,0,
00:08.0,0.000629425,-0.002889633,0.011432648,0,
00:08.0,0.000617981,-0.002883911,0.011484146,0,
00:08.0,0.000617981,-0.002895355,0.011484146,0,
00:08.0,0.000623703,-0.002889633,0.011478424,0,
00:08.1,0.000612259,-0.002889633,0.011484146,0,
00:08.1,0.000600815,-0.002895355,0.011501312,0,
00:08.1,0.000617981,-0.002901077,0.01143837,0,
00:08.1,0.000606537,-0.002895355,0.01149559,0,
00:08.1,0.000612259,-0.002901077,0.011484146,0,
00:08.1,0.000606537,-0.002912521,0.011501312,0,
00:08.1,0.000589371,-0.002929688,0.011484146,0,
00:08.1,0.000606537,-0.002923965,0.011455536,0,
00:08.1,0.000600815,-0.002901077,0.011478424,0,
00:08.1,0.000612259,-0.002866745,0.011484146,0,
00:08.1,0.000617981,-0.002855301,0.011455536,0,
00:08.1,0.000606537,-0.002866745,0.011512756,0,
00:08.1,0.000606537,-0.002861023,0.011472702,0,
00:08.1,0.000629425,-0.002849579,0.011444092,0,
00:08.1,0.000617981,-0.002866745,0.011484146,0,
00:08.1,0.000612259,-0.002872467,0.011484146,0,
00:08.1,0.000600815,-0.002872467,0.011478424,0,
00:08.1,0.000606537,-0.002866745,0.011484146,0,
00:08.1,0.000606537,-0.002855301,0.011461258,0,
00:08.1,0.000595093,-0.002855301,0.01149559,0,
00:08.1,0.000595093,-0.002866745,0.011426926,0,
00:08.1,0.000600815,-0.002866745,0.01143837,0,
00:08.1,0.000606537,-0.002861023,0.01143837,0,
00:08.1,0.000589371,-0.002866745,0.011507034,0,
00:08.1,0.000600815,-0.002866745,0.011507034,0,
00:08.2,0.000606537,-0.002855301,0.011484146,0,
00:08.2,0.000595093,-0.002855301,0.011489868,0,
00:08.2,0.000595093,-0.002849579,0.011444092,0,
00:08.2,0.000595093,-0.002861023,0.011421204,0,
00:08.2,0.000577927,-0.002866745,0.011478424,0,
00:08.2,0.000566483,-0.002849579,0.011461258,0,
00:08.2,0.000589371,-0.002838135,0.01146698,0,
00:08.2,0.000595093,-0.002843857,0.011518478,0,
00:08.2,0.000566483,-0.002843857,0.011507034,0,
00:08.2,0.000577927,-0.002838135,0.011449814,0,
00:08.2,0.000589371,-0.002838135,0.011484146,0,
00:08.2,0.000583649,-0.002838135,0.011484146,0,
00:08.2,0.000600815,-0.002838135,0.01146698,0,
00:08.2,0.000606537,-0.002832413,0.01143837,0,
00:08.2,0.000595093,-0.002843857,0.011449814,0,
00:08.2,0.000606537,-0.002832413,0.011489868,0,
00:08.2,0.000612259,-0.002832413,0.011444092,0,
00:08.2,0.000577927,-0.002838135,0.01143837,0,
00:08.2,0.000577927,-0.002826691,0.011489868,0,
00:08.2,0.000589371,-0.002826691,0.011472702,0,
00:08.2,0.000600815,-0.002826691,0.011455536,0,
00:08.2,0.000577927,-0.002832413,0.011489868,0,
00:08.2,0.000572205,-0.002826691,0.011461258,0,
00:08.2,0.000589371,-0.002815247,0.01146698,0,
00:08.2,0.000583649,-0.002815247,0.011461258,0,
00:08.3,0.000589371,-0.002815247,0.011421204,0,
00:08.3,0.000577927,-0.002832413,0.011404037,0,
00:08.3,0.000589371,-0.002832413,0.011432648,0,
00:08.3,0.000577927,-0.002809525,0.011421204,0,
00:08.3,0.000555038,-0.002803802,0.011461258,0,
00:08.3,0.000566483,-0.002826691,0.0115242,0,
00:08.3,0.000566483,-0.002826691,0.011472702,0,
00:08.3,0.000572205,-0.002815247,0.011432648,0,
00:08.3,0.000572205,-0.002809525,0.011472702,0,
00:08.3,0.000583649,-0.002809525,0.01146698,0,
00:08.3,0.00056076,-0.002815247,0.011461258,0,
00:08.3,0.000577927,-0.002815247,0.01143837,0,
00:08.3,0.000595093,-0.002809525,0.011375427,0,
00:08.3,0.000577927,-0.00279808,0.011415482,0,
00:08.3,0.000572205,-0.002803802,0.011444092,0,
00:08.3,0.000572205,-0.002803802,0.011455536,0,
00:08.3,0.000577927,-0.00279808,0.01143837,0,
00:08.3,0.000589371,-0.002792358,0.01143837,0,
00:08.3,0.000577927,-0.002792358,0.01140976,0,
00:08.3,0.000595093,-0.00279808,0.01140976,0,
00:08.3,0.000577927,-0.002803802,0.011386871,0,
00:08.3,0.00056076,-0.002786636,0.011507034,0,
00:08.3,0.000572205,-0.002786636,0.011461258,0,
00:08.3,0.000583649,-0.002792358,0.01140976,0,
00:08.3,0.00056076,-0.002786636,0.011426926,0,
00:08.4,0.000543594,-0.002786636,0.011461258,0,
00:08.4,0.000549316,-0.002792358,0.011415482,0,
00:08.4,0.000555038,-0.00279808,0.011432648,0,
00:08.4,0.000583649,-0.002792358,0.011449814,0,
00:08.4,0.000577927,-0.002775192,0.01140976,0,
00:08.4,0.000577927,-0.00276947,0.011386871,0,
00:08.4,0.000566483,-0.002775192,0.011415482,0,
00:08.4,0.00056076,-0.002775192,0.01146698,0,
00:08.4,0.00056076,-0.002775192,0.01143837,0,
00:08.4,0.000566483,-0.002780914,0.011392593,0,
00:08.4,0.000566483,-0.002780914,0.011346817,0,
00:08.4,0.000543594,-0.002775192,0.011444092,0,
00:08.4,0.000555038,-0.00276947,0.011455536,0,
00:08.4,0.000555038,-0.002775192,0.011421204,0,
00:08.4,0.000555038,-0.00276947,0.01143837,0,
00:08.4,0.000566483,-0.002758026,0.011426926,0,
00:08.4,0.000589371,-0.002758026,0.011398315,0,
00:08.4,0.00056076,-0.002763748,0.011306763,0,
00:08.4,0.000520706,-0.002752304,0.011501312,0,
00:08.4,0.000555038,-0.002758026,0.01143837,0,
00:08.4,0.000549316,-0.002763748,0.011369705,0,
00:08.4,0.000555038,-0.002746582,0.011358261,0,
00:08.4,0.000526428,-0.002758026,0.011449814,0,
00:08.4,0.000566483,-0.002752304,0.01143837,0,
00:08.4,0.000572205,-0.002758026,0.011432648,0,
00:08.5,0.000555038,-0.002758026,0.011404037,0,
00:08.5,0.000555038,-0.002752304,0.011381149,0,
00:08.5,0.000543594,-0.002758026,0.011392593,0,
00:08.5,0.00053215,-0.002758026,0.01140976,0,
00:08.5,0.000566483,-0.002746582,0.011398315,0,
00:08.5,0.000566483,-0.00274086,0.011323929,0,
00:08.5,0.000566483,-0.002729416,0.011404037,0,
00:08.5,0.000543594,-0.002735138,0.011455536,0,
00:08.5,0.000537872,-0.002735138,0.011415482,0,
00:08.5,0.000549316,-0.002729416,0.011386871,0,
00:08.5,0.000549316,-0.002729416,0.011381149,0,
00:08.5,0.000537872,-0.002746582,0.011352539,0,
00:08.5,0.000537872,-0.002752304,0.01140976,0,
00:08.5,0.000537872,-0.002735138,0.011415482,0,
00:08.5,0.000537872,-0.002729416,0.011392593,0,
00:08.5,0.000543594,-0.002723694,0.011375427,0,
00:08.5,0.00053215,-0.002729416,0.011335373,0,
00:08.5,0.000537872,-0.002729416,0.011375427,0,
00:08.5,0.000537872,-0.002717972,0.011398315,0,
00:08.5,0.000537872,-0.002723694,0.011404037,0,
00:08.5,0.000543594,-0.002735138,0.011358261,0,
00:08.5,0.000537872,-0.002735138,0.011404037,0,
00:08.5,0.000566483,-0.00271225,0.011346817,0,
00:08.5,0.000526428,-0.00271225,0.011335373,0,
00:08.5,0.000526428,-0.00271225,0.011415482,0,
00:08.6,0.000537872,-0.00271225,0.011392593,0,
00:08.6,0.000537872,-0.002706528,0.011386871,0,
00:08.6,0.000526428,-0.002723694,0.011369705,0,
00:08.6,0.00053215,-0.002735138,0.011386871,0,
00:08.6,0.000526428,-0.002735138,0.011381149,0,
00:08.6,0.000543594,-0.002706528,0.011363983,0,
00:08.6,0.000549316,-0.002695084,0.011301041,0,
00:08.6,0.000526428,-0.002700806,0.011363983,0,
00:08.6,0.000537872,-0.002706528,0.011352539,0,
00:08.6,0.00053215,-0.002706528,0.011426926,0,
00:08.6,0.000514984,-0.002706528,0.011375427,0,
00:08.6,0.000492096,-0.00271225,0.011363983,0,
00:08.6,0.00053215,-0.00271225,0.011369705,0,
00:08.6,0.000555038,-0.002695084,0.011398315,0,
00:08.6,0.000537872,-0.002695084,0.011375427,0,
00:08.6,0.00053215,-0.002700806,0.011363983,0,
00:08.6,0.000549316,-0.002700806,0.011346817,0,
00:08.6,0.000526428,-0.002700806,0.011352539,0,
00:08.6,0.000549316,-0.00268364,0.011341095,0,
00:08.6,0.000520706,-0.00268364,0.011329651,0,
00:08.6,0.000486374,-0.002695084,0.011341095,0,
00:08.6,0.000497818,-0.002729416,0.011358261,0,
00:08.6,0.000520706,-0.002717972,0.011375427,0,
00:08.6,0.00053215,-0.00268364,0.011369705,0,
00:08.6,0.000543594,-0.002672195,0.011335373,0,
00:08.7,0.000537872,-0.002677917,0.011346817,0,
00:08.7,0.000520706,-0.002677917,0.011341095,0,
00:08.7,0.000526428,-0.002677917,0.011341095,0,
00:08.7,0.000520706,-0.002672195,0.011363983,0,
00:08.7,0.000520706,-0.002677917,0.011346817,0,
00:08.7,0.00050354,-0.00268364,0.011323929,0,
00:08.7,0.000526428,-0.002672195,0.011318207,0,
00:08.7,0.000537872,-0.00268364,0.011318207,0,
00:08.7,0.00053215,-0.002695084,0.011323929,0,
00:08.7,0.000543594,-0.00268364,0.011283875,0,
00:08.7,0.000526428,-0.002666473,0.011278152,0,
00:08.7,0.000514984,-0.002660751,0.011375427,0,
00:08.7,0.000520706,-0.002672195,0.011341095,0,
00:08.7,0.000509262,-0.002677917,0.011363983,0,
00:08.7,0.00050354,-0.002672195,0.011335373,0,
00:08.7,0.000509262,-0.002666473,0.011323929,0,
00:08.7,0.000486374,-0.002677917,0.011312485,0,
00:08.7,0.000514984,-0.002695084,0.011301041,0,
00:08.7,0.000566483,-0.002655029,0.011220932,0,
00:08.7,0.000537872,-0.002637863,0.01127243,0,
00:08.7,0.000543594,-0.002655029,0.011301041,0,
00:08.7,0.000514984,-0.002666473,0.011283875,0,
00:08.7,0.000514984,-0.002655029,0.011375427,0,
00:08.7,0.00050354,-0.002655029,0.011375427,0,
00:08.7,0.00050354,-0.002655029,0.011346817,0,
00:08.8,0.000509262,-0.002655029,0.011301041,0,
00:08.8,0.00050354,-0.002660751,0.011306763,0,
00:08.8,0.000486374,-0.002666473,0.011238098,0,
00:08.8,0.000492096,-0.002655029,0.011323929,0,
00:08.8,0.00053215,-0.002637863,0.011312485,0,
00:08.8,0.000537872,-0.002637863,0.011306763,0,
00:08.8,0.000520706,-0.002637863,0.011289597,0,
00:08.8,0.000514984,-0.002649307,0.011260986,0,
00:08.8,0.000492096,-0.002649307,0.011323929,0,
00:08.8,0.000520706,-0.002643585,0.011318207,0,
00:08.8,0.000520706,-0.002643585,0.011278152,0,
00:08.8,0.00050354,-0.002643585,0.011260986,0,
00:08.8,0.000486374,-0.002649307,0.011266708,0,
00:08.8,0.000486374,-0.002643585,0.011346817,0,
00:08.8,0.000469208,-0.002637863,0.011318207,0,
00:08.8,0.000520706,-0.002632141,0.011266708,0,
00:08.8,0.000520706,-0.002620697,0.011226654,0,
00:08.8,0.000509262,-0.002620697,0.011301041,0,
00:08.8,0.000520706,-0.002626419,0.011266708,0,
00:08.8,0.000520706,-0.002637863,0.011289597,0,
00:08.8,0.000520706,-0.002632141,0.011266708,0,
00:08.8,0.000497818,-0.002632141,0.011260986,0,
00:08.8,0.000497818,-0.002620697,0.011283875,0,
00:08.8,0.000497818,-0.002620697,0.011289597,0,
00:08.8,0.000509262,-0.002626419,0.011278152,0,
00:08.9,0.00053215,-0.002620697,0.011226654,0,
00:08.9,0.000497818,-0.002620697,0.01127243,0,
00:08.9,0.000509262,-0.002620697,0.011312485,0,
00:08.9,0.000520706,-0.002620697,0.011283875,0,
00:08.9,0.00050354,-0.002620697,0.011283875,0,
00:08.9,0.000492096,-0.002620697,0.011278152,0,
00:08.9,0.000492096,-0.002620697,0.011295319,0,
00:08.9,0.00050354,-0.002609253,0.011249542,0,
00:08.9,0.000509262,-0.002614975,0.01127243,0,
00:08.9,0.000492096,-0.002626419,0.011289597,0,
00:08.9,0.000509262,-0.002609253,0.01124382,0,
00:08.9,0.000520706,-0.002597809,0.01124382,0,
00:08.9,0.000497818,-0.002614975,0.011255264,0,
00:08.9,0.000480652,-0.002614975,0.011283875,0,
00:08.9,0.000509262,-0.002609253,0.011255264,0,
00:08.9,0.000520706,-0.002603531,0.011169434,0,
00:08.9,0.000469208,-0.002614975,0.011323929,0,
00:08.9,0.000486374,-0.002614975,0.011318207,0,
00:08.9,0.000497818,-0.002603531,0.01127243,0,
00:08.9,0.000514984,-0.002603531,0.011255264,0,
00:08.9,0.000509262,-0.002597809,0.011260986,0,
00:08.9,0.000492096,-0.002597809,0.011255264,0,
00:08.9,0.000509262,-0.002597809,0.011209488,0,
00:08.9,0.000509262,-0.002597809,0.011295319,0,
00:08.9,0.000492096,-0.002592087,0.011238098,0,
00:09.0,0.000509262,-0.002592087,0.011266708,0,
00:09.0,0.000509262,-0.002597809,0.011260986,0,
00:09.0,0.000497818,-0.002597809,0.011238098,0,
00:09.0,0.000497818,-0.002586365,0.011266708,0,
00:09.0,0.000497818,-0.002580643,0.01127243,0,
00:09.0,0.00050354,-0.002586365,0.011226654,0,
00:09.0,0.00050354,-0.002597809,0.011175156,0,
00:09.0,0.000480652,-0.002592087,0.011249542,0,
00:09.0,0.000480652,-0.002586365,0.011289597,0,
00:09.0,0.000480652,-0.002586365,0.01127243,0,
00:09.0,0.000486374,-0.002586365,0.011266708,0,
00:09.0,0.000486374,-0.002586365,0.011249542,0,
00:00:09,0.000497818,-0.002574921,0.011232376,0,
00:09.0,0.000480652,-0.002563477,0.011192322,0,
00:09.0,0.00047493,-0.002574921,0.011255264,0,
00:09.0,0.00050354,-0.002574921,0.011232376,0,
00:09.0,0.000486374,-0.002569199,0.011232376,0,
00:09.0,0.00047493,-0.002574921,0.011266708,0,
00:09.0,0.000520706,-0.002563477,0.01127243,0,
00:09.0,0.000514984,-0.002569199,0.011238098,0,
00:09.0,0.000480652,-0.002574921,0.011203766,0,
00:09.0,0.000463486,-0.002574921,0.011255264,0,
00:09.0,0.000492096,-0.002569199,0.011278152,0,
00:09.0,0.000509262,-0.002569199,0.01124382,0,
00:09.0,0.000480652,-0.002563477,0.011226654,0,
00:09.1,0.000480652,-0.002557755,0.011255264,0,
00:09.1,0.000469208,-0.002569199,0.011220932,0,
00:09.1,0.000492096,-0.002574921,0.011266708,0,
00:09.1,0.000463486,-0.002574921,0.011289597,0,
00:09.1,0.00047493,-0.002563477,0.011278152,0,
00:09.1,0.000492096,-0.00254631,0.011249542,0,
00:09.1,0.000514984,-0.002540588,0.011203766,0,
00:09.1,0.000497818,-0.002557755,0.011140823,0,
00:09.1,0.000480652,-0.002557755,0.011238098,0,
00:09.1,0.000480652,-0.002552032,0.01127243,0,
00:09.1,0.000457764,-0.002557755,0.011278152,0,
00:09.1,0.000480652,-0.002557755,0.011260986,0,
00:09.1,0.00050354,-0.00254631,0.011209488,0,
00:09.1,0.000492096,-0.002563477,0.01124382,0,
00:09.1,0.000457764,-0.002569199,0.011255264,0,
00:09.1,0.000480652,-0.002557755,0.011180878,0,
00:09.1,0.000480652,-0.002552032,0.011226654,0,
00:09.1,0.000469208,-0.00254631,0.011301041,0,
00:09.1,0.000457764,-0.002552032,0.011266708,0,
00:09.1,0.000463486,-0.002552032,0.011249542,0,
00:09.1,0.000463486,-0.002563477,0.011238098,0,
00:09.1,0.00047493,-0.002563477,0.011198044,0,
00:09.1,0.000486374,-0.002552032,0.011255264,0,
00:09.1,0.000480652,-0.002534866,0.011232376,0,
00:09.1,0.000469208,-0.002534866,0.011203766,0,
00:09.2,0.000469208,-0.002534866,0.011180878,0,
00:09.2,0.000492096,-0.002534866,0.011249542,0,
00:09.2,0.00047493,-0.002540588,0.011238098,0,
00:09.2,0.00047493,-0.00254631,0.011238098,0,
00:09.2,0.000480652,-0.002552032,0.011232376,0,
00:09.2,0.000463486,-0.002552032,0.01121521,0,
00:09.2,0.000463486,-0.002540588,0.011175156,0,
00:09.2,0.000492096,-0.002540588,0.011203766,0,
00:09.2,0.000492096,-0.002534866,0.011226654,0,
00:09.2,0.000469208,-0.002534866,0.011255264,0,
00:09.2,0.000469208,-0.002534866,0.011249542,0,
00:09.2,0.000469208,-0.002534866,0.011192322,0,
00:09.2,0.000457764,-0.002534866,0.011209488,0,
00:09.2,0.000463486,-0.002534866,0.011232376,0,
00:09.2,0.000463486,-0.002534866,0.011198044,0,
00:09.2,0.000463486,-0.002529144,0.011226654,0,
00:09.2,0.000457764,-0.002534866,0.011232376,0,
00:09.2,0.000463486,-0.002534866,0.01121521,0,
00:09.2,0.00047493,-0.002529144,0.011220932,0,
00:09.2,0.000469208,-0.002529144,0.011209488,0,
00:09.2,0.000469208,-0.002540588,0.011209488,0,
00:09.2,0.000463486,-0.002529144,0.011238098,0,
00:09.2,0.000480652,-0.002511978,0.0111866,0,
00:09.2,0.000463486,-0.0025177,0.011226654,0,
00:09.2,0.000434875,-0.002540588,0.011255264,0,
00:09.3,0.000457764,-0.002529144,0.011238098,0,
00:09.3,0.00047493,-0.002523422,0.011220932,0,
00:09.3,0.000469208,-0.002523422,0.011152267,0,
00:09.3,0.000452042,-0.002523422,0.011260986,0,
00:09.3,0.000469208,-0.0025177,0.01124382,0,
00:09.3,0.00044632,-0.0025177,0.011192322,0,
00:09.3,0.000440598,-0.0025177,0.011180878,0,
00:09.3,0.000469208,-0.002523422,0.011249542,0,
00:09.3,0.000457764,-0.002523422,0.011255264,0,
00:09.3,0.000463486,-0.0025177,0.011232376,0,
00:09.3,0.00047493,-0.002506256,0.011220932,0,
00:09.3,0.000480652,-0.002494812,0.0111866,0,
00:09.3,0.00047493,-0.002506256,0.011146545,0,
00:09.3,0.00044632,-0.002511978,0.011209488,0,
00:09.3,0.00044632,-0.0025177,0.011220932,0,
00:09.3,0.000452042,-0.002523422,0.011226654,0,
00:09.3,0.000457764,-0.002506256,0.011232376,0,
00:09.3,0.000463486,-0.002500534,0.011209488,0,
00:09.3,0.000480652,-0.002494812,0.01121521,0,
00:09.3,0.000463486,-0.002500534,0.011192322,0,
00:09.3,0.00044632,-0.002500534,0.01124382,0,
00:09.3,0.000457764,-0.002506256,0.011249542,0,
00:09.3,0.00044632,-0.002511978,0.011226654,0,
00:09.3,0.000429153,-0.002511978,0.011220932,0,
00:09.3,0.000452042,-0.002500534,0.011226654,0,
00:09.4,0.000469208,-0.002494812,0.011192322,0,
00:09.4,0.00044632,-0.002506256,0.01121521,0,
00:09.4,0.000463486,-0.002506256,0.011169434,0,
00:09.4,0.00047493,-0.002494812,0.011226654,0,
00:09.4,0.000457764,-0.002500534,0.011180878,0,
00:09.4,0.00044632,-0.002500534,0.011226654,0,
00:09.4,0.000452042,-0.002494812,0.011232376,0,
00:09.4,0.000457764,-0.00248909,0.011232376,0,
00:09.4,0.000452042,-0.00248909,0.011203766,0,
00:09.4,0.00044632,-0.00248909,0.011198044,0,
00:09.4,0.00044632,-0.00248909,0.0111866,0,
00:09.4,0.000469208,-0.002477646,0.011226654,0,
00:09.4,0.000423431,-0.002500534,0.01121521,0,
00:09.4,0.000440598,-0.002506256,0.01121521,0,
00:09.4,0.00044632,-0.002494812,0.01121521,0,
00:09.4,0.000457764,-0.002477646,0.011203766,0,
00:09.4,0.00044632,-0.002477646,0.0111866,0,
00:09.4,0.000457764,-0.002471924,0.01121521,0,
00:09.4,0.00047493,-0.002471924,0.011180878,0,
00:09.4,0.000463486,-0.002471924,0.011129379,0,
00:09.4,0.000457764,-0.002471924,0.011192322,0,
00:09.4,0.000440598,-0.002494812,0.011238098,0,
00:09.4,0.000440598,-0.002483368,0.011226654,0,
00:09.4,0.000457764,-0.002483368,0.011192322,0,
00:09.4,0.00044632,-0.002477646,0.011192322,0,
00:09.5,0.000440598,-0.002477646,0.011209488,0,
00:09.5,0.000452042,-0.002471924,0.0111866,0,
00:09.5,0.000463486,-0.002471924,0.011180878,0,
00:09.5,0.00047493,-0.002471924,0.011140823,0,
00:09.5,0.00044632,-0.002477646,0.011220932,0,
00:09.5,0.000434875,-0.002471924,0.011203766,0,
00:09.5,0.000452042,-0.002471924,0.011192322,0,
00:09.5,0.000434875,-0.002477646,0.011198044,0,
00:09.5,0.000457764,-0.002471924,0.011152267,0,
00:09.5,0.000457764,-0.002466202,0.011146545,0,
00:09.5,0.000440598,-0.002466202,0.011203766,0,
00:09.5,0.000440598,-0.002466202,0.011220932,0,
00:09.5,0.000411987,-0.002477646,0.011220932,0,
00:09.5,0.000429153,-0.002483368,0.011192322,0,
00:09.5,0.000463486,-0.00246048,0.01115799,0,
00:09.5,0.000452042,-0.002454758,0.011198044,0,
00:09.5,0.000434875,-0.002454758,0.011192322,0,
00:09.5,0.000434875,-0.00246048,0.011209488,0,
00:09.5,0.000423431,-0.002466202,0.011180878,0,
00:09.5,0.000417709,-0.002471924,0.011203766,0,
00:09.5,0.000411987,-0.002471924,0.01124382,0,
00:09.5,0.00044632,-0.00246048,0.011175156,0,
00:09.5,0.000469208,-0.002437592,0.011163712,0,
00:09.5,0.00044632,-0.002443314,0.011169434,0,
00:09.5,0.00044632,-0.002454758,0.011169434,0,
00:09.6,0.00044632,-0.002471924,0.011192322,0,
00:09.6,0.000429153,-0.002471924,0.011238098,0,
00:09.6,0.000417709,-0.002454758,0.011198044,0,
00:09.6,0.000434875,-0.002449036,0.01121521,0,
00:09.6,0.000452042,-0.002449036,0.011163712,0,
00:09.6,0.000440598,-0.002454758,0.0111866,0,
00:09.6,0.000434875,-0.002454758,0.011175156,0,
00:09.6,0.000440598,-0.002449036,0.011129379,0,
00:09.6,0.00044632,-0.002443314,0.011112213,0,
00:09.6,0.000423431,-0.002454758,0.011226654,0,
00:09.6,0.000423431,-0.002449036,0.011169434,0,
00:09.6,0.000434875,-0.002449036,0.011192322,0,
00:09.6,0.000434875,-0.002454758,0.011192322,0,
00:09.6,0.000423431,-0.002454758,0.0111866,0,
00:09.6,0.000429153,-0.002449036,0.0111866,0,
00:09.6,0.000440598,-0.002449036,0.011123657,0,
00:09.6,0.000440598,-0.002443314,0.011129379,0,
00:09.6,0.000417709,-0.00243187,0.011175156,0,
00:09.6,0.000411987,-0.002454758,0.011209488,0,
00:09.6,0.000434875,-0.002454758,0.011209488,0,
00:09.6,0.000434875,-0.002449036,0.011198044,0,
00:09.6,0.000429153,-0.002443314,0.011180878,0,
00:09.6,0.000429153,-0.002443314,0.011180878,0,
00:09.6,0.000429153,-0.002443314,0.011175156,0,
00:09.6,0.000452042,-0.002437592,0.011152267,0,
00:09.7,0.000434875,-0.002449036,0.011083603,0,
00:09.7,0.000377655,-0.002454758,0.011163712,0,
00:09.7,0.000440598,-0.00243187,0.011146545,0,
00:09.7,0.000434875,-0.002437592,0.011209488,0,
00:09.7,0.000429153,-0.002443314,0.011203766,0,
00:09.7,0.000429153,-0.002443314,0.011169434,0,
00:09.7,0.000423431,-0.002443314,0.011163712,0,
00:09.7,0.000417709,-0.002443314,0.011163712,0,
00:09.7,0.000429153,-0.002437592,0.011163712,0,
00:09.7,0.000429153,-0.002443314,0.011095047,0,
00:09.7,0.000434875,-0.002437592,0.011083603,0,
00:09.7,0.000434875,-0.002437592,0.011117935,0,
00:09.7,0.000423431,-0.002437592,0.011220932,0,
00:09.7,0.000434875,-0.002437592,0.011209488,0,
00:09.7,0.000452042,-0.002437592,0.011140823,0,
00:09.7,0.000411987,-0.002443314,0.011129379,0,
00:09.7,0.000411987,-0.002443314,0.0111866,0,
00:09.7,0.000394821,-0.002437592,0.011180878,0,
00:09.7,0.000429153,-0.002426147,0.011169434,0,
00:09.7,0.000440598,-0.00243187,0.011095047,0,
00:09.7,0.000417709,-0.002437592,0.0111866,0,
00:09.7,0.000434875,-0.00243187,0.011123657,0,
00:09.7,0.000434875,-0.00243187,0.011135101,0,
00:09.7,0.000429153,-0.002426147,0.011123657,0,
00:09.7,0.000417709,-0.00243187,0.0111866,0,
00:09.8,0.000429153,-0.002443314,0.011140823,0,
00:09.8,0.000383377,-0.002449036,0.011112213,0,
00:09.8,0.000389099,-0.002437592,0.0111866,0,
00:09.8,0.000429153,-0.002420425,0.011175156,0,
00:09.8,0.000429153,-0.002426147,0.011140823,0,
00:09.8,0.000423431,-0.002420425,0.011169434,0,
00:09.8,0.000429153,-0.002420425,0.011140823,0,
00:09.8,0.000406265,-0.002426147,0.011146545,0,
00:09.8,0.000406265,-0.00243187,0.01115799,0,
00:09.8,0.000394821,-0.002443314,0.011140823,0,
00:09.8,0.000440598,-0.00243187,0.011095047,0,
00:09.8,0.000457764,-0.002408981,0.011146545,0,
00:09.8,0.000411987,-0.002414703,0.011169434,0,
00:09.8,0.000406265,-0.002420425,0.011163712,0,
00:09.8,0.000394821,-0.00243187,0.011152267,0,
00:09.8,0.000406265,-0.002426147,0.011163712,0,
00:09.8,0.000417709,-0.002408981,0.01115799,0,
00:09.8,0.000417709,-0.002408981,0.011152267,0,
00:09.8,0.000423431,-0.002414703,0.011077881,0,
00:09.8,0.000417709,-0.002420425,0.011129379,0,
00:09.8,0.000406265,-0.002414703,0.011192322,0,
00:09.8,0.000411987,-0.002408981,0.011129379,0,
00:09.8,0.000417709,-0.002408981,0.011112213,0,
00:09.8,0.000406265,-0.002408981,0.011146545,0,
00:09.8,0.000423431,-0.002408981,0.011135101,0,
00:09.9,0.00044632,-0.002403259,0.011100769,0,
00:09.9,0.000411987,-0.002408981,0.011146545,0,
00:09.9,0.000389099,-0.002420425,0.011169434,0,
00:09.9,0.000406265,-0.002420425,0.0111866,0,
00:09.9,0.000389099,-0.00243187,0.011169434,0,
00:09.9,0.000377655,-0.00243187,0.011083603,0,
00:09.9,0.000383377,-0.002397537,0.011175156,0,
00:09.9,0.000440598,-0.002374649,0.011135101,0,
00:09.9,0.000440598,-0.002397537,0.011140823,0,
00:09.9,0.000423431,-0.002403259,0.01115799,0,
00:09.9,0.000400543,-0.002403259,0.011146545,0,
00:09.9,0.000411987,-0.002408981,0.011146545,0,
00:09.9,0.000406265,-0.002408981,0.011146545,0,
00:09.9,0.000411987,-0.002403259,0.011117935,0,
00:09.9,0.000423431,-0.002397537,0.011146545,0,
00:09.9,0.000394821,-0.002397537,0.011060715,0,
00:09.9,0.000400543,-0.002397537,0.011095047,0,
00:09.9,0.000417709,-0.002391815,0.011152267,0,
00:09.9,0.000411987,-0.002391815,0.011192322,0,
00:09.9,0.000406265,-0.002391815,0.011169434,0,
00:09.9,0.000394821,-0.002403259,0.01115799,0,
00:09.9,0.000406265,-0.002403259,0.011140823,0,
00:09.9,0.000417709,-0.002403259,0.011106491,0,
00:09.9,0.000400543,-0.002403259,0.011135101,0,
00:09.9,0.000389099,-0.002397537,0.011146545,0,
00:10.0,0.000406265,-0.002391815,0.011077881,0,
00:10.0,0.000417709,-0.002380371,0.011163712,0,
00:10.0,0.000423431,-0.002380371,0.011146545,0,
00:10.0,0.000429153,-0.002391815,0.011112213,0,
00:10.0,0.000434875,-0.002391815,0.011106491,0,
00:10.0,0.000394821,-0.002391815,0.011117935,0,
00:10.0,0.000366211,-0.002397537,0.011152267,0,
00:10.0,0.000383377,-0.002391815,0.0111866,0,
00:10.0,0.000423431,-0.002386093,0.011180878,0,
00:10.0,0.000417709,-0.002380371,0.011152267,0,
00:10.0,0.000406265,-0.002380371,0.011117935,0,
00:10.0,0.000406265,-0.002380371,0.011123657,0,
00:00:10,0.000400543,-0.002386093,0.011112213,0,
00:10.0,0.000394821,-0.002380371,0.011152267,0,
00:10.0,0.000400543,-0.002380371,0.011152267,0,
00:10.0,0.000394821,-0.002391815,0.011135101,0,
00:10.0,0.000383377,-0.002391815,0.011083603,0,
00:10.0,0.000371933,-0.002403259,0.011089325,0,
00:10.0,0.000400543,-0.002397537,0.011140823,0,
00:10.0,0.000423431,-0.002380371,0.011140823,0,
00:10.0,0.000411987,-0.002368927,0.011140823,0,
00:10.0,0.000406265,-0.002368927,0.011140823,0,
00:10.0,0.000406265,-0.002374649,0.011146545,0,
00:10.0,0.000411987,-0.002368927,0.011140823,0,
00:10.0,0.000406265,-0.002368927,0.011135101,0,
00:10.1,0.000400543,-0.002374649,0.011089325,0,
00:10.1,0.000394821,-0.002368927,0.011083603,0,
00:10.1,0.00044632,-0.002374649,0.011072159,0,
00:10.1,0.000411987,-0.002391815,0.011152267,0,
00:10.1,0.000394821,-0.002380371,0.011146545,0,
