Elapsed_Time,EMG1,EMG2,EMG3,BioRadio Event,Unnamed: 5
00:00:00,-0.000526428,-0.002397537,0.014122009,0,
00:00.0,-0.000509262,-0.002397537,0.014127731,0,
00:00.0,-0.000509262,-0.002391815,0.014139175,0,
00:00.0,-0.000492096,-0.002391815,0.014122009,0,
00:00.0,-0.000492096,-0.002391815,0.014122009,0,
00:00.0,-0.000497818,-0.002391815,0.014122009,0,
00:00.0,-0.000509262,-0.002403259,0.014139175,0,
00:00.0,-0.000514984,-0.002414703,0.014110565,0,
00:00.0,-0.000509262,-0.002420425,0.014116287,0,
00:00.0,-0.000492096,-0.002386093,0.014127731,0,
00:00.0,-0.00050354,-0.002386093,0.014122009,0,
00:00.0,-0.00050354,-0.002397537,0.014122009,0,
00:00.0,-0.000492096,-0.002397537,0.014116287,0,
00:00.1,-0.000480652,-0.002397537,0.014110565,0,
00:00.1,-0.000497818,-0.002408981,0.014116287,0,
00:00.1,-0.000486374,-0.002403259,0.014099121,0,
00:00.1,-0.00050354,-0.002391815,0.014104843,0,
00:00.1,-0.000526428,-0.002420425,0.014133453,0,
00:00.1,-0.000514984,-0.002408981,0.014127731,0,
00:00.1,-0.00050354,-0.002391815,0.014110565,0,
00:00.1,-0.000497818,-0.002397537,0.014110565,0,
00:00.1,-0.00050354,-0.002403259,0.014122009,0,
00:00.1,-0.000497818,-0.002397537,0.014110565,0,
00:00.1,-0.00050354,-0.002397537,0.014110565,0,
00:00.1,-0.00050354,-0.002391815,0.014127731,0,
00:00.1,-0.000457764,-0.002408981,0.014110565,0,
00:00.1,-0.000497818,-0.002391815,0.014099121,0,
00:00.1,-0.000543594,-0.002391815,0.014127731,0,
00:00.1,-0.000486374,-0.002391815,0.014133453,0,
00:00.1,-0.000480652,-0.002386093,0.014133453,0,
00:00.1,-0.000514984,-0.002391815,0.014110565,0,
00:00.1,-0.00050354,-0.002391815,0.014116287,0,
00:00.1,-0.000497818,-0.002397537,0.014127731,0,
00:00.1,-0.00050354,-0.002391815,0.014122009,0,
00:00.1,-0.000492096,-0.002386093,0.014104843,0,
00:00.1,-0.000492096,-0.002391815,0.014122009,0,
00:00.1,-0.000469208,-0.002403259,0.014127731,0,
00:00.1,-0.000509262,-0.002414703,0.014127731,0,
00:00.2,-0.000514984,-0.002403259,0.014104843,0,
00:00.2,-0.000497818,-0.002386093,0.014127731,0,
00:00.2,-0.000497818,-0.002403259,0.014122009,0,
00:00.2,-0.000509262,-0.002414703,0.014110565,0,
00:00.2,-0.000514984,-0.002397537,0.014122009,0,
00:00.2,-0.00047493,-0.002380371,0.014116287,0,
00:00.2,-0.000469208,-0.002386093,0.014116287,0,
00:00.2,-0.000497818,-0.002391815,0.014122009,0,
00:00.2,-0.000514984,-0.002397537,0.014122009,0,
00:00.2,-0.000520706,-0.002403259,0.014110565,0,
00:00.2,-0.000497818,-0.002391815,0.014093399,0,
00:00.2,-0.000497818,-0.002391815,0.014122009,0,
00:00.2,-0.000514984,-0.002414703,0.014122009,0,
00:00.2,-0.00050354,-0.002397537,0.014127731,0,
00:00.2,-0.000497818,-0.002391815,0.014104843,0,
00:00.2,-0.000497818,-0.002403259,0.014116287,0,
00:00.2,-0.00050354,-0.002403259,0.014133453,0,
00:00.2,-0.000497818,-0.002397537,0.014116287,0,
00:00.2,-0.000497818,-0.002403259,0.014122009,0,
00:00.2,-0.000492096,-0.002391815,0.014133453,0,
00:00.2,-0.000463486,-0.002386093,0.014116287,0,
00:00.2,-0.000492096,-0.002386093,0.014110565,0,
00:00.2,-0.000497818,-0.002397537,0.014110565,0,
00:00.2,-0.000526428,-0.002420425,0.014127731,0,
00:00.2,-0.00050354,-0.002408981,0.014122009,0,
00:00.3,-0.000469208,-0.002397537,0.014122009,0,
00:00.3,-0.000509262,-0.002386093,0.014104843,0,
00:00.3,-0.000514984,-0.002374649,0.014116287,0,
00:00.3,-0.00050354,-0.002391815,0.014133453,0,
00:00.3,-0.00050354,-0.002397537,0.014116287,0,
00:00.3,-0.00050354,-0.002403259,0.014116287,0,
00:00.3,-0.00050354,-0.002403259,0.014116287,0,
00:00.3,-0.000497818,-0.002403259,0.014122009,0,
00:00.3,-0.000509262,-0.002397537,0.014139175,0,
00:00.3,-0.000492096,-0.002391815,0.014116287,0,
00:00.3,-0.000469208,-0.002414703,0.014110565,0,
00:00.3,-0.000514984,-0.002420425,0.014116287,0,
00:00.3,-0.000514984,-0.002403259,0.014127731,0,
00:00.3,-0.00050354,-0.002397537,0.014133453,0,
00:00.3,-0.000492096,-0.002368927,0.014116287,0,
00:00.3,-0.000497818,-0.002391815,0.014116287,0,
00:00.3,-0.000486374,-0.002397537,0.014133453,0,
00:00.3,-0.000463486,-0.002403259,0.014116287,0,
00:00.3,-0.000514984,-0.002403259,0.014110565,0,
00:00.3,-0.000514984,-0.002403259,0.014110565,0,
00:00.3,-0.00047493,-0.002391815,0.014122009,0,
00:00.3,-0.000492096,-0.002391815,0.014127731,0,
00:00.3,-0.000526428,-0.002403259,0.014122009,0,
00:00.3,-0.000509262,-0.002386093,0.014127731,0,
00:00.3,-0.000497818,-0.002386093,0.014116287,0,
00:00.4,-0.00050354,-0.002391815,0.014110565,0,
00:00.4,-0.000492096,-0.002397537,0.014093399,0,
00:00.4,-0.000469208,-0.002414703,0.014110565,0,
00:00.4,-0.000509262,-0.002414703,0.01415062,0,
00:00.4,-0.000520706,-0.002408981,0.014139175,0,
00:00.4,-0.000509262,-0.002408981,0.014127731,0,
00:00.4,-0.000514984,-0.002391815,0.014116287,0,
00:00.4,-0.00050354,-0.002380371,0.014122009,0,
00:00.4,-0.000492096,-0.002391815,0.014127731,0,
00:00.4,-0.000492096,-0.002391815,0.014116287,0,
00:00.4,-0.000411987,-0.002386093,0.014122009,0,
00:00.4,-0.000463486,-0.002408981,0.014127731,0,
00:00.4,-0.000549316,-0.002414703,0.014116287,0,
00:00.4,-0.000526428,-0.002414703,0.014116287,0,
00:00.4,-0.000514984,-0.002374649,0.014110565,0,
00:00.4,-0.000497818,-0.002391815,0.014139175,0,
00:00.4,-0.000497818,-0.002391815,0.014139175,0,
00:00.4,-0.000497818,-0.002403259,0.014127731,0,
00:00.4,-0.000492096,-0.002403259,0.014133453,0,
00:00.4,-0.000486374,-0.002397537,0.014116287,0,
00:00.4,-0.000509262,-0.002420425,0.014110565,0,
00:00.4,-0.00050354,-0.002397537,0.014110565,0,
00:00.4,-0.000497818,-0.002386093,0.014127731,0,
00:00.4,-0.00050354,-0.002408981,0.014133453,0,
00:00.4,-0.000492096,-0.002391815,0.014104843,0,
00:00.5,-0.000497818,-0.002397537,0.014122009,0,
00:00.5,-0.000497818,-0.002403259,0.014127731,0,
00:00.5,-0.00050354,-0.002380371,0.014116287,0,
00:00.5,-0.00050354,-0.002380371,0.014110565,0,
00:00.5,-0.00050354,-0.002403259,0.014127731,0,
00:00.5,-0.000497818,-0.002403259,0.014133453,0,
00:00.5,-0.00047493,-0.002397537,0.014144897,0,
00:00.5,-0.000509262,-0.002408981,0.014116287,0,
00:00.5,-0.000497818,-0.002397537,0.014116287,0,
00:00.5,-0.000440598,-0.002391815,0.014122009,0,
00:00.5,-0.000509262,-0.002403259,0.014116287,0,
00:00.5,-0.000543594,-0.002414703,0.014127731,0,
00:00.5,-0.000514984,-0.002386093,0.014122009,0,
00:00.5,-0.00050354,-0.002397537,0.014122009,0,
00:00.5,-0.000497818,-0.002391815,0.014133453,0,
00:00.5,-0.00050354,-0.002397537,0.014133453,0,
00:00.5,-0.000497818,-0.002391815,0.014122009,0,
00:00.5,-0.000492096,-0.002386093,0.014116287,0,
00:00.5,-0.000492096,-0.002391815,0.014116287,0,
00:00.5,-0.000492096,-0.002403259,0.014099121,0,
00:00.5,-0.00050354,-0.002403259,0.014116287,0,
00:00.5,-0.000520706,-0.002397537,0.01415062,0,
00:00.5,-0.000514984,-0.002397537,0.014127731,0,
00:00.5,-0.000509262,-0.002403259,0.014133453,0,
00:00.5,-0.000480652,-0.002397537,0.014144897,0,
00:00.6,-0.000463486,-0.002403259,0.014133453,0,
00:00.6,-0.000440598,-0.002397537,0.014122009,0,
00:00.6,-0.00053215,-0.002403259,0.014127731,0,
00:00.6,-0.000555038,-0.002403259,0.014133453,0,
00:00.6,-0.00050354,-0.002397537,0.014122009,0,
00:00.6,-0.000497818,-0.002386093,0.014104843,0,
00:00.6,-0.000497818,-0.002391815,0.014110565,0,
00:00.6,-0.00050354,-0.002397537,0.014122009,0,
00:00.6,-0.000497818,-0.002397537,0.014144897,0,
00:00.6,-0.000497818,-0.002397537,0.014144897,0,
00:00.6,-0.000509262,-0.002397537,0.014116287,0,
00:00.6,-0.000514984,-0.002420425,0.014116287,0,
00:00.6,-0.000509262,-0.002386093,0.014127731,0,
00:00.6,-0.000509262,-0.002386093,0.014133453,0,
00:00.6,-0.000486374,-0.002414703,0.014139175,0,
00:00.6,-0.00047493,-0.002391815,0.014127731,0,
00:00.6,-0.000514984,-0.002386093,0.014110565,0,
00:00.6,-0.000514984,-0.002397537,0.014122009,0,
00:00.6,-0.00050354,-0.002391815,0.014133453,0,
00:00.6,-0.000509262,-0.002403259,0.014144897,0,
00:00.6,-0.000509262,-0.002403259,0.014144897,0,
00:00.6,-0.000486374,-0.002397537,0.014133453,0,
00:00.6,-0.000463486,-0.002426147,0.014127731,0,
00:00.6,-0.000480652,-0.002397537,0.014110565,0,
00:00.6,-0.000526428,-0.002380371,0.014110565,0,
00:00.7,-0.00053215,-0.002380371,0.014122009,0,
00:00.7,-0.000497818,-0.002403259,0.014139175,0,
00:00.7,-0.000509262,-0.002397537,0.014139175,0,
00:00.7,-0.000526428,-0.002408981,0.014139175,0,
00:00.7,-0.000514984,-0.002403259,0.014127731,0,
00:00.7,-0.000497818,-0.002397537,0.01415062,0,
00:00.7,-0.000497818,-0.002397537,0.014144897,0,
00:00.7,-0.000492096,-0.002414703,0.014127731,0,
00:00.7,-0.000492096,-0.002408981,0.014127731,0,
00:00.7,-0.000514984,-0.002408981,0.014139175,0,
00:00.7,-0.000514984,-0.002426147,0.014122009,0,
00:00.7,-0.000497818,-0.002386093,0.014116287,0,
00:00.7,-0.000509262,-0.002380371,0.014127731,0,
00:00.7,-0.000509262,-0.002403259,0.014122009,0,
00:00.7,-0.000509262,-0.002403259,0.01415062,0,
00:00.7,-0.00050354,-0.002397537,0.014122009,0,
00:00.7,-0.000509262,-0.002374649,0.014116287,0,
00:00.7,-0.000492096,-0.002386093,0.014144897,0,
00:00.7,-0.000452042,-0.002408981,0.014144897,0,
00:00.7,-0.000486374,-0.002403259,0.014122009,0,
00:00.7,-0.000549316,-0.002397537,0.014122009,0,
00:00.7,-0.000526428,-0.002403259,0.014133453,0,
00:00.7,-0.000509262,-0.002391815,0.014116287,0,
00:00.7,-0.00050354,-0.002397537,0.014122009,0,
00:00.7,-0.000480652,-0.002380371,0.014133453,0,
00:00.8,-0.000520706,-0.002408981,0.014139175,0,
00:00.8,-0.000537872,-0.002397537,0.014133453,0,
00:00.8,-0.000520706,-0.002397537,0.014122009,0,
00:00.8,-0.000497818,-0.002391815,0.014116287,0,
00:00.8,-0.000480652,-0.002408981,0.014110565,0,
00:00.8,-0.000514984,-0.002414703,0.014133453,0,
00:00.8,-0.000514984,-0.002403259,0.01415062,0,
00:00.8,-0.000509262,-0.002380371,0.014139175,0,
00:00.8,-0.00050354,-0.002386093,0.014127731,0,
00:00.8,-0.000514984,-0.002397537,0.014139175,0,
00:00.8,-0.000492096,-0.002408981,0.014127731,0,
00:00.8,-0.00047493,-0.002397537,0.014116287,0,
00:00.8,-0.00050354,-0.002408981,0.014116287,0,
00:00.8,-0.00047493,-0.002403259,0.014139175,0,
00:00.8,-0.000509262,-0.002380371,0.014127731,0,
00:00.8,-0.000543594,-0.002391815,0.014127731,0,
00:00.8,-0.00053215,-0.002408981,0.014133453,0,
00:00.8,-0.000509262,-0.002397537,0.014127731,0,
00:00.8,-0.000514984,-0.002414703,0.014127731,0,
00:00.8,-0.000509262,-0.002391815,0.014127731,0,
00:00.8,-0.000509262,-0.002386093,0.014127731,0,
00:00.8,-0.000509262,-0.002397537,0.014127731,0,
00:00.8,-0.00050354,-0.002397537,0.014110565,0,
00:00.8,-0.000509262,-0.002408981,0.014116287,0,
00:00.8,-0.000520706,-0.002403259,0.01415062,0,
00:00.9,-0.000514984,-0.002397537,0.014139175,0,
00:00.9,-0.000526428,-0.002397537,0.014139175,0,
00:00.9,-0.000514984,-0.002397537,0.014127731,0,
00:00.9,-0.000497818,-0.002391815,0.014127731,0,
00:00.9,-0.000497818,-0.002391815,0.014127731,0,
00:00.9,-0.00050354,-0.002403259,0.014110565,0,
00:00.9,-0.00050354,-0.002397537,0.014110565,0,
00:00.9,-0.000486374,-0.002397537,0.014139175,0,
00:00.9,-0.000492096,-0.002403259,0.014127731,0,
00:00.9,-0.000480652,-0.002391815,0.014139175,0,
00:00.9,-0.000526428,-0.002403259,0.014122009,0,
00:00.9,-0.000549316,-0.002414703,0.014116287,0,
00:00.9,-0.000520706,-0.002408981,0.014122009,0,
00:00.9,-0.000520706,-0.002397537,0.014122009,0,
00:00.9,-0.000520706,-0.002380371,0.014122009,0,
00:00.9,-0.000514984,-0.002380371,0.014127731,0,
00:00.9,-0.000509262,-0.002414703,0.014122009,0,
00:00.9,-0.000509262,-0.002403259,0.014127731,0,
00:00.9,-0.000509262,-0.002386093,0.014104843,0,
00:00.9,-0.000497818,-0.002386093,0.014116287,0,
00:00.9,-0.00050354,-0.002397537,0.014127731,0,
00:00.9,-0.000514984,-0.002397537,0.014116287,0,
00:00.9,-0.000497818,-0.002403259,0.014110565,0,
00:00.9,-0.000520706,-0.002397537,0.014122009,0,
00:00.9,-0.000543594,-0.002386093,0.014133453,0,
00:01.0,-0.000514984,-0.002386093,0.014116287,0,
00:01.0,-0.000509262,-0.002397537,0.014127731,0,
00:01.0,-0.00047493,-0.002403259,0.014116287,0,
00:01.0,-0.000514984,-0.002391815,0.014099121,0,
00:01.0,-0.00053215,-0.002397537,0.014122009,0,
00:01.0,-0.000520706,-0.002397537,0.014133453,0,
00:01.0,-0.000492096,-0.002397537,0.014122009,0,
00:01.0,-0.000497818,-0.002391815,0.014110565,0,
00:01.0,-0.000537872,-0.002391815,0.014116287,0,
00:01.0,-0.000526428,-0.002391815,0.014122009,0,
00:01.0,-0.000520706,-0.002403259,0.014122009,0,
00:01.0,-0.000526428,-0.002408981,0.014099121,0,
00:00:01,-0.000514984,-0.002380371,0.014116287,0,
00:01.0,-0.000492096,-0.002391815,0.014110565,0,
00:01.0,-0.000492096,-0.002397537,0.014110565,0,
00:01.0,-0.00053215,-0.002414703,0.014099121,0,
00:01.0,-0.000537872,-0.002391815,0.014116287,0,
00:01.0,-0.000514984,-0.002374649,0.014110565,0,
00:01.0,-0.000509262,-0.002380371,0.014122009,0,
00:01.0,-0.000509262,-0.002380371,0.014110565,0,
00:01.0,-0.000509262,-0.002386093,0.014104843,0,
00:01.0,-0.000543594,-0.002391815,0.014122009,0,
00:01.0,-0.000520706,-0.002403259,0.014122009,0,
00:01.0,-0.000480652,-0.002403259,0.014104843,0,
00:01.0,-0.000480652,-0.002397537,0.014116287,0,
00:01.1,-0.000543594,-0.002397537,0.014104843,0,
00:01.1,-0.00053215,-0.002408981,0.014104843,0,
00:01.1,-0.000497818,-0.002391815,0.014104843,0,
00:01.1,-0.000497818,-0.002380371,0.014127731,0,
00:01.1,-0.000543594,-0.002391815,0.014122009,0,
00:01.1,-0.000526428,-0.002403259,0.014104843,0,
00:01.1,-0.000514984,-0.002391815,0.014099121,0,
00:01.1,-0.000492096,-0.002403259,0.014093399,0,
00:01.1,-0.000520706,-0.002397537,0.014127731,0,
00:01.1,-0.000537872,-0.002391815,0.014116287,0,
00:01.1,-0.000526428,-0.002391815,0.014116287,0,
00:01.1,-0.000520706,-0.002403259,0.014093399,0,
00:01.1,-0.000514984,-0.002426147,0.014110565,0,
00:01.1,-0.000520706,-0.002391815,0.014116287,0,
00:01.1,-0.000520706,-0.002363205,0.014116287,0,
00:01.1,-0.000509262,-0.002368927,0.014110565,0,
00:01.1,-0.000526428,-0.002397537,0.014116287,0,
00:01.1,-0.000526428,-0.002408981,0.014110565,0,
00:01.1,-0.000497818,-0.002386093,0.014104843,0,
00:01.1,-0.000514984,-0.002408981,0.014104843,0,
00:01.1,-0.000543594,-0.002403259,0.014110565,0,
00:01.1,-0.00053215,-0.002391815,0.014110565,0,
00:01.1,-0.000520706,-0.002391815,0.014122009,0,
00:01.1,-0.000497818,-0.002391815,0.014122009,0,
00:01.1,-0.000486374,-0.002397537,0.014116287,0,
00:01.2,-0.000492096,-0.002397537,0.014110565,0,
00:01.2,-0.000526428,-0.002397537,0.014110565,0,
00:01.2,-0.000549316,-0.002391815,0.014127731,0,
00:01.2,-0.00053215,-0.002391815,0.014116287,0,
00:01.2,-0.000520706,-0.002397537,0.014110565,0,
00:01.2,-0.000520706,-0.002397537,0.014116287,0,
00:01.2,-0.000514984,-0.002397537,0.014116287,0,
00:01.2,-0.000526428,-0.002391815,0.014110565,0,
00:01.2,-0.00053215,-0.002391815,0.014104843,0,
00:01.2,-0.000514984,-0.002414703,0.014122009,0,
00:01.2,-0.000520706,-0.002391815,0.014122009,0,
00:01.2,-0.000520706,-0.002403259,0.014104843,0,
00:01.2,-0.000526428,-0.002420425,0.014104843,0,
00:01.2,-0.00050354,-0.002386093,0.014116287,0,
00:01.2,-0.000486374,-0.002397537,0.014110565,0,
00:01.2,-0.00053215,-0.002420425,0.014116287,0,
00:01.2,-0.000537872,-0.002403259,0.014127731,0,
00:01.2,-0.000537872,-0.002391815,0.014116287,0,
00:01.2,-0.000537872,-0.002397537,0.014122009,0,
00:01.2,-0.000509262,-0.002391815,0.014133453,0,
00:01.2,-0.000492096,-0.002391815,0.014110565,0,
00:01.2,-0.000537872,-0.002397537,0.014110565,0,
00:01.2,-0.000537872,-0.002391815,0.014110565,0,
00:01.2,-0.000480652,-0.002397537,0.014116287,0,
00:01.2,-0.000509262,-0.002397537,0.014127731,0,
00:01.3,-0.000543594,-0.002397537,0.014116287,0,
00:01.3,-0.000526428,-0.002403259,0.014116287,0,
00:01.3,-0.000526428,-0.002408981,0.014099121,0,
00:01.3,-0.000526428,-0.002403259,0.014116287,0,
00:01.3,-0.000526428,-0.002391815,0.014110565,0,
00:01.3,-0.000526428,-0.002408981,0.014104843,0,
00:01.3,-0.000520706,-0.002403259,0.014127731,0,
00:01.3,-0.000492096,-0.002386093,0.014116287,0,
00:01.3,-0.000526428,-0.002403259,0.014122009,0,
00:01.3,-0.000543594,-0.002420425,0.014122009,0,
00:01.3,-0.00053215,-0.002397537,0.014099121,0,
00:01.3,-0.00053215,-0.002397537,0.014104843,0,
00:01.3,-0.000497818,-0.002397537,0.014110565,0,
00:01.3,-0.00050354,-0.002397537,0.014122009,0,
00:01.3,-0.000526428,-0.002408981,0.014122009,0,
00:01.3,-0.000526428,-0.002397537,0.014110565,0,
00:01.3,-0.000566483,-0.002414703,0.014116287,0,
00:01.3,-0.000526428,-0.002403259,0.014110565,0,
00:01.3,-0.000514984,-0.002397537,0.014093399,0,
00:01.3,-0.000514984,-0.002374649,0.014104843,0,
00:01.3,-0.000520706,-0.002397537,0.014116287,0,
00:01.3,-0.000526428,-0.002403259,0.014122009,0,
00:01.3,-0.000526428,-0.002408981,0.014116287,0,
00:01.3,-0.000526428,-0.002397537,0.014104843,0,
00:01.3,-0.000526428,-0.002386093,0.014110565,0,
00:01.4,-0.000520706,-0.002403259,0.014110565,0,
00:01.4,-0.000526428,-0.002403259,0.014110565,0,
00:01.4,-0.00053215,-0.002403259,0.014122009,0,
00:01.4,-0.000509262,-0.002403259,0.014116287,0,
00:01.4,-0.000469208,-0.002408981,0.014116287,0,
00:01.4,-0.000537872,-0.002397537,0.014116287,0,
00:01.4,-0.000566483,-0.002391815,0.014087677,0,
00:01.4,-0.000537872,-0.002403259,0.014116287,0,
00:01.4,-0.000543594,-0.002403259,0.014133453,0,
00:01.4,-0.000509262,-0.002386093,0.014116287,0,
00:01.4,-0.000486374,-0.002391815,0.014122009,0,
00:01.4,-0.000543594,-0.002397537,0.014122009,0,
00:01.4,-0.000543594,-0.002397537,0.014104843,0,
00:01.4,-0.00053215,-0.002397537,0.014122009,0,
00:01.4,-0.000520706,-0.002397537,0.014122009,0,
00:01.4,-0.000526428,-0.002397537,0.014110565,0,
00:01.4,-0.000520706,-0.002391815,0.014110565,0,
00:01.4,-0.000526428,-0.002403259,0.014110565,0,
00:01.4,-0.00053215,-0.002408981,0.014116287,0,
00:01.4,-0.00053215,-0.002420425,0.014127731,0,
00:01.4,-0.000520706,-0.002391815,0.014122009,0,
00:01.4,-0.000486374,-0.002386093,0.014116287,0,
00:01.4,-0.000543594,-0.002408981,0.014122009,0,
00:01.4,-0.000543594,-0.002414703,0.014104843,0,
00:01.4,-0.000537872,-0.002386093,0.014127731,0,
00:01.5,-0.00053215,-0.002391815,0.014127731,0,
00:01.5,-0.00050354,-0.002386093,0.014122009,0,
00:01.5,-0.000486374,-0.002397537,0.014116287,0,
00:01.5,-0.000555038,-0.002408981,0.014133453,0,
00:01.5,-0.000537872,-0.002391815,0.014127731,0,
00:01.5,-0.000497818,-0.002386093,0.014127731,0,
00:01.5,-0.000555038,-0.002391815,0.014110565,0,
00:01.5,-0.000549316,-0.002397537,0.014127731,0,
00:01.5,-0.00053215,-0.002414703,0.014122009,0,
00:01.5,-0.000526428,-0.002403259,0.014116287,0,
00:01.5,-0.000526428,-0.002391815,0.014116287,0,
00:01.5,-0.00053215,-0.002403259,0.014116287,0,
00:01.5,-0.000526428,-0.002391815,0.014127731,0,
00:01.5,-0.000497818,-0.002386093,0.014139175,0,
00:01.5,-0.000537872,-0.002403259,0.014127731,0,
00:01.5,-0.000555038,-0.002397537,0.014116287,0,
00:01.5,-0.00053215,-0.002386093,0.014110565,0,
00:01.5,-0.000537872,-0.002414703,0.014127731,0,
00:01.5,-0.000537872,-0.002403259,0.014116287,0,
00:01.5,-0.00053215,-0.002391815,0.014116287,0,
00:01.5,-0.00053215,-0.002391815,0.014127731,0,
00:01.5,-0.000514984,-0.002391815,0.014110565,0,
00:01.5,-0.000492096,-0.002403259,0.014122009,0,
00:01.5,-0.000549316,-0.002414703,0.014127731,0,
00:01.5,-0.000555038,-0.002403259,0.014139175,0,
00:01.6,-0.000543594,-0.002403259,0.014122009,0,
00:01.6,-0.000526428,-0.002374649,0.014116287,0,
00:01.6,-0.000526428,-0.002380371,0.014122009,0,
00:01.6,-0.000555038,-0.002397537,0.014122009,0,
00:01.6,-0.000497818,-0.002397537,0.014122009,0,
00:01.6,-0.000520706,-0.002397537,0.014127731,0,
00:01.6,-0.000549316,-0.002397537,0.014116287,0,
00:01.6,-0.000543594,-0.002386093,0.014127731,0,
00:01.6,-0.000526428,-0.002380371,0.014127731,0,
00:01.6,-0.000537872,-0.002397537,0.014127731,0,
00:01.6,-0.000537872,-0.002391815,0.014116287,0,
00:01.6,-0.00053215,-0.002391815,0.014116287,0,
00:01.6,-0.000537872,-0.002408981,0.014133453,0,
00:01.6,-0.000537872,-0.002391815,0.014127731,0,
00:01.6,-0.00053215,-0.002391815,0.014122009,0,
00:01.6,-0.000537872,-0.002391815,0.014122009,0,
00:01.6,-0.000537872,-0.002386093,0.014122009,0,
00:01.6,-0.000543594,-0.002397537,0.014122009,0,
00:01.6,-0.000526428,-0.002408981,0.014116287,0,
00:01.6,-0.000497818,-0.002420425,0.014122009,0,
00:01.6,-0.000509262,-0.002380371,0.014116287,0,
00:01.6,-0.00053215,-0.002374649,0.014116287,0,
00:01.6,-0.000566483,-0.002391815,0.014110565,0,
00:01.6,-0.000555038,-0.002391815,0.014144897,0,
00:01.6,-0.000549316,-0.002380371,0.014127731,0,
00:01.7,-0.000543594,-0.002386093,0.014133453,0,
00:01.7,-0.000537872,-0.002386093,0.014133453,0,
00:01.7,-0.000537872,-0.002386093,0.014122009,0,
00:01.7,-0.000549316,-0.002397537,0.014127731,0,
00:01.7,-0.000543594,-0.002414703,0.014104843,0,
00:01.7,-0.000526428,-0.002386093,0.014110565,0,
00:01.7,-0.00053215,-0.002391815,0.014110565,0,
00:01.7,-0.000537872,-0.002391815,0.014122009,0,
00:01.7,-0.000537872,-0.002374649,0.014127731,0,
00:01.7,-0.000549316,-0.002391815,0.014133453,0,
00:01.7,-0.000543594,-0.002426147,0.014122009,0,
00:01.7,-0.000537872,-0.002386093,0.014127731,0,
00:01.7,-0.000543594,-0.002363205,0.014110565,0,
00:01.7,-0.000537872,-0.002386093,0.014127731,0,
00:01.7,-0.00050354,-0.002386093,0.014133453,0,
00:01.7,-0.000509262,-0.002386093,0.014122009,0,
00:01.7,-0.000577927,-0.002391815,0.014127731,0,
00:01.7,-0.00056076,-0.002391815,0.014116287,0,
00:01.7,-0.000549316,-0.002403259,0.014122009,0,
00:01.7,-0.000543594,-0.002397537,0.014127731,0,
00:01.7,-0.000514984,-0.002403259,0.014110565,0,
00:01.7,-0.000543594,-0.002397537,0.014093399,0,
00:01.7,-0.00056076,-0.002380371,0.014127731,0,
00:01.7,-0.000549316,-0.002380371,0.014127731,0,
00:01.7,-0.00056076,-0.002386093,0.014133453,0,
00:01.8,-0.000555038,-0.002391815,0.014122009,0,
00:01.8,-0.00053215,-0.002391815,0.014122009,0,
00:01.8,-0.00053215,-0.002391815,0.014127731,0,
00:01.8,-0.000543594,-0.002397537,0.014122009,0,
00:01.8,-0.000549316,-0.002397537,0.014110565,0,
00:01.8,-0.000549316,-0.002397537,0.014127731,0,
00:01.8,-0.000537872,-0.002391815,0.014127731,0,
00:01.8,-0.000537872,-0.002391815,0.014127731,0,
00:01.8,-0.000520706,-0.002386093,0.014122009,0,
00:01.8,-0.000549316,-0.002380371,0.014116287,0,
00:01.8,-0.00056076,-0.002397537,0.014116287,0,
00:01.8,-0.000514984,-0.002408981,0.014116287,0,
00:01.8,-0.00053215,-0.002386093,0.014127731,0,
00:01.8,-0.000555038,-0.002397537,0.014122009,0,
00:01.8,-0.000526428,-0.002408981,0.014110565,0,
00:01.8,-0.000572205,-0.002380371,0.014116287,0,
00:01.8,-0.00056076,-0.002386093,0.014127731,0,
00:01.8,-0.000555038,-0.002397537,0.014122009,0,
00:01.8,-0.000549316,-0.002397537,0.014127731,0,
00:01.8,-0.000549316,-0.002391815,0.014133453,0,
00:01.8,-0.000549316,-0.002391815,0.014122009,0,
00:01.8,-0.000549316,-0.002386093,0.014116287,0,
00:01.8,-0.000566483,-0.002403259,0.014122009,0,
00:01.8,-0.000549316,-0.002414703,0.014139175,0,
00:01.8,-0.000543594,-0.002391815,0.014122009,0,
00:01.9,-0.000537872,-0.002391815,0.014110565,0,
00:01.9,-0.000543594,-0.002386093,0.014110565,0,
00:01.9,-0.000543594,-0.002391815,0.014116287,0,
00:01.9,-0.000526428,-0.002391815,0.014116287,0,
00:01.9,-0.00053215,-0.002380371,0.014110565,0,
00:01.9,-0.000514984,-0.002403259,0.014110565,0,
00:01.9,-0.000526428,-0.002391815,0.014127731,0,
00:01.9,-0.000589371,-0.002386093,0.014127731,0,
00:01.9,-0.000566483,-0.002391815,0.014122009,0,
00:01.9,-0.000555038,-0.002391815,0.014127731,0,
00:01.9,-0.000549316,-0.002397537,0.014127731,0,
00:01.9,-0.000555038,-0.002403259,0.014116287,0,
00:01.9,-0.000555038,-0.002397537,0.014116287,0,
00:01.9,-0.000555038,-0.002408981,0.014087677,0,
00:01.9,-0.000549316,-0.002386093,0.014127731,0,
00:01.9,-0.000555038,-0.002397537,0.014133453,0,
00:01.9,-0.000543594,-0.002403259,0.014122009,0,
00:01.9,-0.000549316,-0.002391815,0.014116287,0,
00:01.9,-0.000549316,-0.002386093,0.014104843,0,
00:01.9,-0.000555038,-0.002408981,0.014122009,0,
00:01.9,-0.000555038,-0.002403259,0.014122009,0,
00:01.9,-0.000537872,-0.002380371,0.014127731,0,
00:01.9,-0.000543594,-0.002397537,0.014099121,0,
00:01.9,-0.00056076,-0.002391815,0.014110565,0,
00:01.9,-0.000555038,-0.002386093,0.014133453,0,
00:02.0,-0.000555038,-0.002386093,0.014110565,0,
00:02.0,-0.000555038,-0.002391815,0.014122009,0,
00:02.0,-0.000555038,-0.002391815,0.014127731,0,
00:02.0,-0.000549316,-0.002397537,0.014116287,0,
00:02.0,-0.000526428,-0.002391815,0.014093399,0,
00:02.0,-0.000549316,-0.002386093,0.014110565,0,
00:02.0,-0.000549316,-0.002397537,0.014122009,0,
00:02.0,-0.000526428,-0.002397537,0.014139175,0,
00:02.0,-0.000577927,-0.002397537,0.014139175,0,
00:02.0,-0.000577927,-0.002414703,0.014110565,0,
00:02.0,-0.00056076,-0.002386093,0.014122009,0,
00:02.0,-0.00056076,-0.002386093,0.014122009,0,
00:00:02,-0.00056076,-0.002403259,0.014116287,0,
00:02.0,-0.000566483,-0.002408981,0.014122009,0,
00:02.0,-0.000555038,-0.002386093,0.014110565,0,
00:02.0,-0.000555038,-0.002391815,0.014127731,0,
00:02.0,-0.00056076,-0.002380371,0.014104843,0,
00:02.0,-0.000543594,-0.002368927,0.014110565,0,
00:02.0,-0.000537872,-0.002397537,0.014116287,0,
00:02.0,-0.000577927,-0.002391815,0.014116287,0,
00:02.0,-0.000572205,-0.002391815,0.014144897,0,
00:02.0,-0.000566483,-0.002420425,0.014122009,0,
00:02.0,-0.00056076,-0.002391815,0.014104843,0,
00:02.0,-0.00056076,-0.002386093,0.014116287,0,
00:02.0,-0.000555038,-0.002408981,0.014139175,0,
00:02.1,-0.00056076,-0.002403259,0.014139175,0,
00:02.1,-0.000526428,-0.002408981,0.014127731,0,
00:02.1,-0.000566483,-0.002420425,0.014122009,0,
00:02.1,-0.000572205,-0.002380371,0.014122009,0,
00:02.1,-0.000555038,-0.002386093,0.014116287,0,
00:02.1,-0.00056076,-0.002380371,0.014122009,0,
00:02.1,-0.000566483,-0.002397537,0.014127731,0,
00:02.1,-0.00056076,-0.002403259,0.014116287,0,
00:02.1,-0.00056076,-0.002397537,0.014127731,0,
00:02.1,-0.000537872,-0.002386093,0.014122009,0,
00:02.1,-0.000520706,-0.002386093,0.014116287,0,
00:02.1,-0.000566483,-0.002391815,0.014122009,0,
00:02.1,-0.000595093,-0.002397537,0.014122009,0,
00:02.1,-0.000577927,-0.002386093,0.014127731,0,
00:02.1,-0.000566483,-0.002386093,0.014127731,0,
00:02.1,-0.00056076,-0.002397537,0.014127731,0,
00:02.1,-0.00056076,-0.002403259,0.014110565,0,
00:02.1,-0.000555038,-0.002408981,0.014116287,0,
00:02.1,-0.000526428,-0.002403259,0.014144897,0,
00:02.1,-0.000566483,-0.002397537,0.014127731,0,
00:02.1,-0.000583649,-0.002380371,0.014122009,0,
00:02.1,-0.000572205,-0.002408981,0.014139175,0,
00:02.1,-0.000572205,-0.002391815,0.014133453,0,
00:02.1,-0.000566483,-0.002391815,0.014122009,0,
00:02.1,-0.000566483,-0.002397537,0.014122009,0,
00:02.2,-0.000566483,-0.002391815,0.014127731,0,
00:02.2,-0.000566483,-0.002386093,0.014133453,0,
00:02.2,-0.000589371,-0.002408981,0.014133453,0,
00:02.2,-0.00056076,-0.002391815,0.014127731,0,
00:02.2,-0.00056076,-0.002397537,0.014133453,0,
00:02.2,-0.000537872,-0.002386093,0.014127731,0,
00:02.2,-0.000555038,-0.002386093,0.014127731,0,
00:02.2,-0.000583649,-0.002403259,0.014127731,0,
00:02.2,-0.00056076,-0.002386093,0.014127731,0,
00:02.2,-0.00056076,-0.002380371,0.014144897,0,
00:02.2,-0.000572205,-0.002403259,0.014139175,0,
00:02.2,-0.000572205,-0.002408981,0.014116287,0,
00:02.2,-0.000555038,-0.002380371,0.014116287,0,
00:02.2,-0.000497818,-0.002386093,0.014116287,0,
00:02.2,-0.000555038,-0.002391815,0.014116287,0,
00:02.2,-0.000612259,-0.002391815,0.01415062,0,
00:02.2,-0.000583649,-0.002403259,0.014144897,0,
00:02.2,-0.00056076,-0.002397537,0.014122009,0,
00:02.2,-0.000566483,-0.002391815,0.014127731,0,
00:02.2,-0.000572205,-0.002391815,0.014139175,0,
00:02.2,-0.000577927,-0.002397537,0.014139175,0,
00:02.2,-0.000566483,-0.002403259,0.014139175,0,
00:02.2,-0.000537872,-0.002397537,0.014122009,0,
00:02.2,-0.000572205,-0.002397537,0.014127731,0,
00:02.2,-0.000583649,-0.002397537,0.014127731,0,
00:02.3,-0.000572205,-0.002386093,0.014139175,0,
00:02.3,-0.000572205,-0.002414703,0.014127731,0,
00:02.3,-0.000572205,-0.002414703,0.014127731,0,
00:02.3,-0.000583649,-0.002368927,0.014139175,0,
00:02.3,-0.00056076,-0.002397537,0.014133453,0,
00:02.3,-0.00056076,-0.002391815,0.014139175,0,
00:02.3,-0.000572205,-0.002374649,0.014122009,0,
00:02.3,-0.000566483,-0.002408981,0.014116287,0,
00:02.3,-0.000566483,-0.002414703,0.014144897,0,
00:02.3,-0.00056076,-0.002386093,0.014144897,0,
00:02.3,-0.00053215,-0.002386093,0.014139175,0,
00:02.3,-0.000583649,-0.002386093,0.014133453,0,
00:02.3,-0.000583649,-0.002397537,0.014139175,0,
00:02.3,-0.000566483,-0.002386093,0.014139175,0,
00:02.3,-0.000572205,-0.002397537,0.01415062,0,
00:02.3,-0.000555038,-0.002403259,0.014139175,0,
00:02.3,-0.00056076,-0.002403259,0.014139175,0,
00:02.3,-0.000595093,-0.002408981,0.014133453,0,
00:02.3,-0.000577927,-0.002397537,0.014133453,0,
00:02.3,-0.000549316,-0.002397537,0.014139175,0,
00:02.3,-0.000537872,-0.002391815,0.014139175,0,
00:02.3,-0.000583649,-0.002391815,0.014139175,0,
00:02.3,-0.000589371,-0.002391815,0.014144897,0,
00:02.3,-0.000572205,-0.002391815,0.01415062,0,
00:02.3,-0.000566483,-0.002397537,0.014127731,0,
00:02.4,-0.000577927,-0.002397537,0.014144897,0,
00:02.4,-0.00056076,-0.002386093,0.014144897,0,
00:02.4,-0.000549316,-0.002397537,0.014133453,0,
00:02.4,-0.000595093,-0.002391815,0.014133453,0,
00:02.4,-0.000572205,-0.002403259,0.01415062,0,
00:02.4,-0.000566483,-0.002397537,0.01415062,0,
00:02.4,-0.000572205,-0.002391815,0.014133453,0,
00:02.4,-0.000572205,-0.002403259,0.014133453,0,
00:02.4,-0.000566483,-0.002403259,0.014162064,0,
00:02.4,-0.000555038,-0.002420425,0.014144897,0,
00:02.4,-0.000572205,-0.002386093,0.01415062,0,
00:02.4,-0.000583649,-0.002380371,0.014144897,0,
00:02.4,-0.000572205,-0.002397537,0.014133453,0,
00:02.4,-0.000583649,-0.002403259,0.01415062,0,
00:02.4,-0.000572205,-0.002403259,0.01415062,0,
00:02.4,-0.000566483,-0.002408981,0.014156342,0,
00:02.4,-0.000566483,-0.002374649,0.014139175,0,
00:02.4,-0.000537872,-0.002368927,0.014127731,0,
00:02.4,-0.000543594,-0.002397537,0.014167786,0,
00:02.4,-0.000595093,-0.002403259,0.014156342,0,
00:02.4,-0.000583649,-0.002391815,0.01415062,0,
00:02.4,-0.000543594,-0.002391815,0.014139175,0,
00:02.4,-0.000555038,-0.002397537,0.01415062,0,
00:02.4,-0.000595093,-0.002391815,0.014144897,0,
00:02.4,-0.000583649,-0.002403259,0.014139175,0,
00:02.5,-0.000572205,-0.002414703,0.014133453,0,
00:02.5,-0.000572205,-0.002397537,0.014162064,0,
00:02.5,-0.000583649,-0.002386093,0.01415062,0,
00:02.5,-0.000543594,-0.002386093,0.014139175,0,
00:02.5,-0.00056076,-0.002397537,0.014144897,0,
00:02.5,-0.000583649,-0.002397537,0.01415062,0,
00:02.5,-0.000577927,-0.002403259,0.014162064,0,
00:02.5,-0.000577927,-0.002380371,0.01415062,0,
00:02.5,-0.000566483,-0.002386093,0.014144897,0,
00:02.5,-0.000566483,-0.002386093,0.014139175,0,
00:02.5,-0.000566483,-0.002380371,0.014144897,0,
00:02.5,-0.000572205,-0.002391815,0.014144897,0,
00:02.5,-0.000583649,-0.002403259,0.014139175,0,
00:02.5,-0.000572205,-0.002408981,0.014144897,0,
00:02.5,-0.00056076,-0.002397537,0.014139175,0,
00:02.5,-0.000566483,-0.002391815,0.014144897,0,
00:02.5,-0.000577927,-0.002391815,0.014127731,0,
00:02.5,-0.000577927,-0.002386093,0.014156342,0,
00:02.5,-0.000572205,-0.002391815,0.014139175,0,
00:02.5,-0.000577927,-0.002391815,0.01415062,0,
00:02.5,-0.000577927,-0.002397537,0.01415062,0,
00:02.5,-0.000566483,-0.002386093,0.014139175,0,
00:02.5,-0.000543594,-0.002380371,0.014127731,0,
00:02.5,-0.000509262,-0.002397537,0.014139175,0,
00:02.5,-0.000543594,-0.002391815,0.014162064,0,
00:02.6,-0.000623703,-0.002397537,0.014133453,0,
00:02.6,-0.000600815,-0.002397537,0.014139175,0,
00:02.6,-0.000600815,-0.002397537,0.014144897,0,
00:02.6,-0.000577927,-0.002391815,0.014139175,0,
00:02.6,-0.000566483,-0.002386093,0.014139175,0,
00:02.6,-0.000566483,-0.002397537,0.014127731,0,
00:02.6,-0.000566483,-0.002403259,0.014144897,0,
00:02.6,-0.000577927,-0.002386093,0.014133453,0,
00:02.6,-0.000572205,-0.002391815,0.014133453,0,
00:02.6,-0.000577927,-0.002374649,0.01415062,0,
00:02.6,-0.000577927,-0.002386093,0.014144897,0,
00:02.6,-0.000572205,-0.002391815,0.014139175,0,
00:02.6,-0.000572205,-0.002391815,0.014133453,0,
00:02.6,-0.000572205,-0.002397537,0.014116287,0,
00:02.6,-0.000577927,-0.002397537,0.014110565,0,
00:02.6,-0.000572205,-0.002380371,0.014139175,0,
00:02.6,-0.000572205,-0.002391815,0.01415062,0,
00:02.6,-0.000555038,-0.002391815,0.014144897,0,
00:02.6,-0.000583649,-0.002386093,0.014139175,0,
00:02.6,-0.000589371,-0.002391815,0.014127731,0,
00:02.6,-0.000572205,-0.002386093,0.014127731,0,
00:02.6,-0.00056076,-0.002403259,0.014133453,0,
00:02.6,-0.000549316,-0.002397537,0.014139175,0,
00:02.6,-0.000589371,-0.002386093,0.014133453,0,
00:02.6,-0.000583649,-0.002391815,0.014133453,0,
00:02.7,-0.000577927,-0.002408981,0.014139175,0,
00:02.7,-0.000577927,-0.002414703,0.014139175,0,
00:02.7,-0.000577927,-0.002386093,0.014133453,0,
00:02.7,-0.000583649,-0.002374649,0.014133453,0,
00:02.7,-0.000577927,-0.002380371,0.014139175,0,
00:02.7,-0.000572205,-0.002397537,0.014139175,0,
00:02.7,-0.000577927,-0.002408981,0.014110565,0,
00:02.7,-0.000566483,-0.002380371,0.014122009,0,
00:02.7,-0.000572205,-0.002380371,0.014144897,0,
00:02.7,-0.000577927,-0.002403259,0.014139175,0,
00:02.7,-0.000577927,-0.002391815,0.014144897,0,
00:02.7,-0.000577927,-0.002391815,0.014133453,0,
00:02.7,-0.000572205,-0.002380371,0.014133453,0,
00:02.7,-0.000549316,-0.002386093,0.014127731,0,
00:02.7,-0.000566483,-0.002391815,0.014110565,0,
00:02.7,-0.000595093,-0.002391815,0.014139175,0,
00:02.7,-0.000589371,-0.002397537,0.014139175,0,
00:02.7,-0.000583649,-0.002397537,0.014139175,0,
00:02.7,-0.000566483,-0.002403259,0.014156342,0,
00:02.7,-0.000543594,-0.002391815,0.014139175,0,
00:02.7,-0.000572205,-0.002386093,0.014133453,0,
00:02.7,-0.000589371,-0.002386093,0.014139175,0,
00:02.7,-0.000583649,-0.002397537,0.014133453,0,
00:02.7,-0.000577927,-0.002386093,0.014133453,0,
00:02.7,-0.000583649,-0.002386093,0.014133453,0,
00:02.8,-0.000577927,-0.002397537,0.014133453,0,
00:02.8,-0.000589371,-0.002391815,0.014116287,0,
00:02.8,-0.000589371,-0.002391815,0.014122009,0,
00:02.8,-0.000566483,-0.002391815,0.014127731,0,
00:02.8,-0.00053215,-0.002391815,0.014139175,0,
00:02.8,-0.000583649,-0.002391815,0.014133453,0,
00:02.8,-0.000595093,-0.002386093,0.014133453,0,
00:02.8,-0.000589371,-0.002380371,0.014127731,0,
00:02.8,-0.000583649,-0.002380371,0.014139175,0,
00:02.8,-0.000589371,-0.002391815,0.014139175,0,
00:02.8,-0.000583649,-0.002397537,0.014133453,0,
00:02.8,-0.000566483,-0.002391815,0.014133453,0,
00:02.8,-0.000555038,-0.002397537,0.014133453,0,
00:02.8,-0.000549316,-0.002391815,0.014133453,0,
00:02.8,-0.000600815,-0.002397537,0.014127731,0,
00:02.8,-0.000595093,-0.002403259,0.014133453,0,
00:02.8,-0.000577927,-0.002391815,0.014127731,0,
00:02.8,-0.000583649,-0.002374649,0.014127731,0,
00:02.8,-0.000583649,-0.002391815,0.014122009,0,
00:02.8,-0.000577927,-0.002386093,0.014139175,0,
00:02.8,-0.000577927,-0.002374649,0.014133453,0,
00:02.8,-0.000577927,-0.002386093,0.014139175,0,
00:02.8,-0.000577927,-0.002397537,0.014139175,0,
00:02.8,-0.000589371,-0.002397537,0.014133453,0,
00:02.8,-0.000583649,-0.002397537,0.014127731,0,
00:02.9,-0.00056076,-0.002380371,0.014133453,0,
00:02.9,-0.000595093,-0.002386093,0.014133453,0,
00:02.9,-0.000606537,-0.002374649,0.014127731,0,
00:02.9,-0.000577927,-0.002380371,0.014122009,0,
00:02.9,-0.000583649,-0.002403259,0.014139175,0,
00:02.9,-0.000583649,-0.002408981,0.014139175,0,
00:02.9,-0.000572205,-0.002380371,0.014133453,0,
00:02.9,-0.000543594,-0.002397537,0.014127731,0,
00:02.9,-0.000595093,-0.002391815,0.014133453,0,
00:02.9,-0.000600815,-0.002374649,0.014133453,0,
00:02.9,-0.000583649,-0.002374649,0.014122009,0,
00:02.9,-0.000589371,-0.002397537,0.014127731,0,
00:02.9,-0.000583649,-0.002386093,0.014122009,0,
00:02.9,-0.000577927,-0.002391815,0.014139175,0,
00:02.9,-0.000589371,-0.002391815,0.014139175,0,
00:02.9,-0.000589371,-0.002380371,0.014133453,0,
00:02.9,-0.000583649,-0.002391815,0.014139175,0,
00:02.9,-0.000583649,-0.002391815,0.014133453,0,
00:02.9,-0.000566483,-0.002386093,0.014139175,0,
00:02.9,-0.000566483,-0.002391815,0.014133453,0,
00:02.9,-0.000606537,-0.002380371,0.014133453,0,
00:02.9,-0.000595093,-0.002386093,0.014133453,0,
00:02.9,-0.000595093,-0.002391815,0.014122009,0,
00:02.9,-0.000589371,-0.002391815,0.014127731,0,
00:02.9,-0.000583649,-0.002380371,0.014144897,0,
00:03.0,-0.000595093,-0.002374649,0.014139175,0,
00:03.0,-0.000577927,-0.002397537,0.014122009,0,
00:03.0,-0.000566483,-0.002380371,0.014139175,0,
00:03.0,-0.000555038,-0.002386093,0.014133453,0,
00:03.0,-0.00056076,-0.002403259,0.014133453,0,
00:03.0,-0.000606537,-0.002380371,0.014139175,0,
00:03.0,-0.000589371,-0.002380371,0.014139175,0,
00:03.0,-0.000589371,-0.002380371,0.014127731,0,
00:03.0,-0.000583649,-0.002386093,0.014133453,0,
00:03.0,-0.000583649,-0.002374649,0.014127731,0,
00:03.0,-0.000583649,-0.002380371,0.014139175,0,
00:03.0,-0.000566483,-0.002397537,0.014122009,0,
00:00:03,-0.00056076,-0.002397537,0.014122009,0,
00:03.0,-0.000595093,-0.002391815,0.014139175,0,
00:03.0,-0.000595093,-0.002380371,0.014133453,0,
00:03.0,-0.000595093,-0.002386093,0.014133453,0,
00:03.0,-0.000589371,-0.002408981,0.014133453,0,
00:03.0,-0.000583649,-0.002391815,0.014133453,0,
00:03.0,-0.000577927,-0.002380371,0.014139175,0,
00:03.0,-0.000583649,-0.002374649,0.014139175,0,
00:03.0,-0.000583649,-0.002386093,0.014122009,0,
00:03.0,-0.00056076,-0.002397537,0.014127731,0,
00:03.0,-0.000555038,-0.002380371,0.014127731,0,
00:03.0,-0.000617981,-0.002391815,0.014139175,0,
00:03.0,-0.000600815,-0.002391815,0.014133453,0,
00:03.1,-0.000577927,-0.002386093,0.014133453,0,
00:03.1,-0.000583649,-0.002380371,0.014144897,0,
00:03.1,-0.000577927,-0.002386093,0.014133453,0,
00:03.1,-0.000555038,-0.002391815,0.014127731,0,
00:03.1,-0.00056076,-0.002374649,0.014133453,0,
00:03.1,-0.000606537,-0.002386093,0.014139175,0,
00:03.1,-0.000589371,-0.002391815,0.014139175,0,
00:03.1,-0.000589371,-0.002391815,0.014133453,0,
00:03.1,-0.000583649,-0.002397537,0.014127731,0,
00:03.1,-0.000589371,-0.002403259,0.014127731,0,
00:03.1,-0.000589371,-0.002403259,0.014139175,0,
00:03.1,-0.000589371,-0.002386093,0.014116287,0,
00:03.1,-0.000583649,-0.002374649,0.014116287,0,
00:03.1,-0.000577927,-0.002386093,0.014144897,0,
00:03.1,-0.000555038,-0.002391815,0.014127731,0,
00:03.1,-0.000572205,-0.002391815,0.014139175,0,
00:03.1,-0.000606537,-0.002386093,0.014133453,0,
00:03.1,-0.000589371,-0.002386093,0.014116287,0,
00:03.1,-0.000583649,-0.002380371,0.014122009,0,
00:03.1,-0.000583649,-0.002397537,0.014139175,0,
00:03.1,-0.000583649,-0.002397537,0.014133453,0,
00:03.1,-0.000583649,-0.002374649,0.014122009,0,
00:03.1,-0.000583649,-0.002391815,0.014139175,0,
00:03.1,-0.000555038,-0.002403259,0.014139175,0,
00:03.1,-0.000589371,-0.002380371,0.014139175,0,
00:03.2,-0.000617981,-0.002391815,0.014127731,0,
00:03.2,-0.000583649,-0.002386093,0.014127731,0,
00:03.2,-0.000583649,-0.002397537,0.014139175,0,
00:03.2,-0.000583649,-0.002391815,0.014133453,0,
00:03.2,-0.000577927,-0.002386093,0.014122009,0,
00:03.2,-0.000583649,-0.002386093,0.014139175,0,
00:03.2,-0.000595093,-0.002397537,0.014127731,0,
00:03.2,-0.000583649,-0.002391815,0.014127731,0,
00:03.2,-0.000595093,-0.002391815,0.014122009,0,
00:03.2,-0.00056076,-0.002380371,0.014139175,0,
00:03.2,-0.000555038,-0.002391815,0.014133453,0,
00:03.2,-0.000606537,-0.002391815,0.014127731,0,
00:03.2,-0.000595093,-0.002386093,0.014133453,0,
00:03.2,-0.000583649,-0.002391815,0.014133453,0,
00:03.2,-0.000583649,-0.002391815,0.014139175,0,
00:03.2,-0.000566483,-0.002391815,0.014122009,0,
00:03.2,-0.000572205,-0.002391815,0.014122009,0,
00:03.2,-0.000606537,-0.002380371,0.014127731,0,
00:03.2,-0.000589371,-0.002397537,0.014133453,0,
00:03.2,-0.000589371,-0.002403259,0.014133453,0,
00:03.2,-0.000600815,-0.002386093,0.014139175,0,
00:03.2,-0.000600815,-0.002386093,0.014133453,0,
00:03.2,-0.000572205,-0.002386093,0.014133453,0,
00:03.2,-0.000583649,-0.002386093,0.014122009,0,
00:03.2,-0.000583649,-0.002391815,0.014116287,0,
00:03.3,-0.000577927,-0.002386093,0.014127731,0,
00:03.3,-0.000595093,-0.002397537,0.014139175,0,
00:03.3,-0.000589371,-0.002403259,0.014144897,0,
00:03.3,-0.000583649,-0.002386093,0.014139175,0,
00:03.3,-0.000555038,-0.002391815,0.014144897,0,
00:03.3,-0.000577927,-0.002391815,0.014133453,0,
00:03.3,-0.000600815,-0.002380371,0.014127731,0,
00:03.3,-0.000589371,-0.002380371,0.014139175,0,
00:03.3,-0.000577927,-0.002391815,0.01415062,0,
00:03.3,-0.000566483,-0.002397537,0.01415062,0,
00:03.3,-0.000600815,-0.002391815,0.014139175,0,
00:03.3,-0.000600815,-0.002391815,0.014133453,0,
00:03.3,-0.000595093,-0.002408981,0.014127731,0,
00:03.3,-0.000583649,-0.002391815,0.014133453,0,
00:03.3,-0.000595093,-0.002386093,0.014144897,0,
00:03.3,-0.000589371,-0.002386093,0.01415062,0,
00:03.3,-0.000583649,-0.002380371,0.014139175,0,
00:03.3,-0.000589371,-0.002380371,0.014133453,0,
00:03.3,-0.000583649,-0.002386093,0.014127731,0,
00:03.3,-0.000589371,-0.002403259,0.014122009,0,
00:03.3,-0.000595093,-0.002391815,0.014139175,0,
00:03.3,-0.000600815,-0.002391815,0.014127731,0,
00:03.3,-0.000583649,-0.002386093,0.014133453,0,
00:03.3,-0.000583649,-0.002391815,0.01415062,0,
00:03.3,-0.00056076,-0.002391815,0.014156342,0,
00:03.4,-0.00056076,-0.002386093,0.014144897,0,
00:03.4,-0.000606537,-0.002397537,0.014139175,0,
00:03.4,-0.000600815,-0.002391815,0.014133453,0,
00:03.4,-0.000589371,-0.002380371,0.014133453,0,
00:03.4,-0.000566483,-0.002374649,0.014144897,0,
00:03.4,-0.000589371,-0.002386093,0.014133453,0,
00:03.4,-0.000606537,-0.002403259,0.014139175,0,
00:03.4,-0.000600815,-0.002391815,0.014133453,0,
00:03.4,-0.000595093,-0.002391815,0.014127731,0,
00:03.4,-0.000589371,-0.002386093,0.014139175,0,
00:03.4,-0.000589371,-0.002397537,0.014144897,0,
00:03.4,-0.000577927,-0.002368927,0.014122009,0,
00:03.4,-0.000589371,-0.002391815,0.014139175,0,
00:03.4,-0.000589371,-0.002386093,0.014133453,0,
00:03.4,-0.000589371,-0.002380371,0.014139175,0,
00:03.4,-0.000589371,-0.002391815,0.01415062,0,
00:03.4,-0.000589371,-0.002386093,0.014139175,0,
00:03.4,-0.000583649,-0.002386093,0.014133453,0,
00:03.4,-0.000589371,-0.002386093,0.014127731,0,
00:03.4,-0.000600815,-0.002391815,0.014127731,0,
00:03.4,-0.000600815,-0.002391815,0.014144897,0,
00:03.4,-0.000577927,-0.002397537,0.014133453,0,
00:03.4,-0.000577927,-0.002386093,0.014133453,0,
00:03.4,-0.000583649,-0.002397537,0.014127731,0,
00:03.4,-0.000566483,-0.002380371,0.014139175,0,
00:03.5,-0.000537872,-0.002386093,0.014127731,0,
00:03.5,-0.000595093,-0.002386093,0.014110565,0,
00:03.5,-0.000623703,-0.002386093,0.014127731,0,
00:03.5,-0.000600815,-0.002386093,0.01415062,0,
00:03.5,-0.000589371,-0.002391815,0.014144897,0,
00:03.5,-0.000595093,-0.002397537,0.014133453,0,
00:03.5,-0.000600815,-0.002386093,0.014122009,0,
00:03.5,-0.000589371,-0.002374649,0.014122009,0,
00:03.5,-0.000583649,-0.002386093,0.014133453,0,
00:03.5,-0.000583649,-0.002386093,0.014133453,0,
00:03.5,-0.000595093,-0.002397537,0.014133453,0,
00:03.5,-0.000589371,-0.002391815,0.014110565,0,
00:03.5,-0.000589371,-0.002397537,0.014127731,0,
00:03.5,-0.000589371,-0.002403259,0.014122009,0,
00:03.5,-0.000600815,-0.002403259,0.014133453,0,
00:03.5,-0.000600815,-0.002386093,0.014116287,0,
00:03.5,-0.000600815,-0.002363205,0.014122009,0,
00:03.5,-0.000583649,-0.002380371,0.014139175,0,
00:03.5,-0.000583649,-0.002380371,0.014122009,0,
00:03.5,-0.000595093,-0.002380371,0.014127731,0,
00:03.5,-0.000577927,-0.002397537,0.014133453,0,
00:03.5,-0.000566483,-0.002380371,0.014127731,0,
00:03.5,-0.000600815,-0.002386093,0.014122009,0,
00:03.5,-0.000583649,-0.002397537,0.014122009,0,
00:03.5,-0.000566483,-0.002380371,0.014122009,0,
00:03.6,-0.000617981,-0.002391815,0.014122009,0,
00:03.6,-0.000606537,-0.002403259,0.014122009,0,
00:03.6,-0.000595093,-0.002403259,0.014127731,0,
00:03.6,-0.000589371,-0.002386093,0.014116287,0,
00:03.6,-0.000589371,-0.002391815,0.014127731,0,
00:03.6,-0.000600815,-0.002397537,0.014139175,0,
00:03.6,-0.000595093,-0.002397537,0.014127731,0,
00:03.6,-0.000589371,-0.002386093,0.014116287,0,
00:03.6,-0.000595093,-0.002386093,0.014116287,0,
00:03.6,-0.000595093,-0.002397537,0.014133453,0,
00:03.6,-0.000589371,-0.002386093,0.014127731,0,
00:03.6,-0.000595093,-0.002386093,0.014122009,0,
00:03.6,-0.000595093,-0.002380371,0.014127731,0,
00:03.6,-0.000600815,-0.002386093,0.014116287,0,
00:03.6,-0.000583649,-0.002391815,0.014116287,0,
00:03.6,-0.000577927,-0.002380371,0.014133453,0,
00:03.6,-0.000623703,-0.002397537,0.014133453,0,
00:03.6,-0.000595093,-0.002386093,0.014110565,0,
00:03.6,-0.000572205,-0.002386093,0.014110565,0,
00:03.6,-0.000577927,-0.002380371,0.014116287,0,
00:03.6,-0.000606537,-0.002386093,0.014127731,0,
00:03.6,-0.000600815,-0.002397537,0.014122009,0,
00:03.6,-0.000600815,-0.002391815,0.014133453,0,
00:03.6,-0.000600815,-0.002391815,0.014133453,0,
00:03.6,-0.000600815,-0.002397537,0.014127731,0,
00:03.7,-0.000600815,-0.002408981,0.014127731,0,
00:03.7,-0.000600815,-0.002420425,0.014122009,0,
00:03.7,-0.000595093,-0.002380371,0.014122009,0,
00:03.7,-0.000595093,-0.002368927,0.014139175,0,
00:03.7,-0.000589371,-0.002380371,0.014133453,0,
00:03.7,-0.000600815,-0.002391815,0.014110565,0,
00:03.7,-0.000606537,-0.002397537,0.014127731,0,
00:03.7,-0.000600815,-0.002386093,0.014116287,0,
00:03.7,-0.000589371,-0.002391815,0.014127731,0,
00:03.7,-0.000595093,-0.002386093,0.014133453,0,
00:03.7,-0.000595093,-0.002391815,0.014133453,0,
00:03.7,-0.000600815,-0.002391815,0.014133453,0,
00:03.7,-0.000595093,-0.002386093,0.014122009,0,
00:03.7,-0.000589371,-0.002374649,0.014127731,0,
00:03.7,-0.000589371,-0.002391815,0.014127731,0,
00:03.7,-0.000606537,-0.002391815,0.014122009,0,
00:03.7,-0.000583649,-0.002386093,0.014110565,0,
00:03.7,-0.00056076,-0.002397537,0.014116287,0,
00:03.7,-0.000617981,-0.002391815,0.014122009,0,
00:03.7,-0.000617981,-0.002391815,0.014144897,0,
00:03.7,-0.000600815,-0.002386093,0.014127731,0,
00:03.7,-0.000595093,-0.002397537,0.014127731,0,
00:03.7,-0.000606537,-0.002397537,0.014144897,0,
00:03.7,-0.000600815,-0.002397537,0.014133453,0,
00:03.7,-0.000589371,-0.002397537,0.014133453,0,
00:03.8,-0.000595093,-0.002391815,0.014116287,0,
00:03.8,-0.000600815,-0.002386093,0.014139175,0,
00:03.8,-0.000600815,-0.002386093,0.014133453,0,
00:03.8,-0.000595093,-0.002391815,0.014127731,0,
00:03.8,-0.000600815,-0.002391815,0.014133453,0,
00:03.8,-0.000600815,-0.002391815,0.014122009,0,
00:03.8,-0.000600815,-0.002414703,0.014127731,0,
00:03.8,-0.000600815,-0.002397537,0.014139175,0,
00:03.8,-0.000600815,-0.002403259,0.014127731,0,
00:03.8,-0.000595093,-0.002403259,0.014116287,0,
00:03.8,-0.000577927,-0.002374649,0.014133453,0,
00:03.8,-0.000606537,-0.002386093,0.014139175,0,
00:03.8,-0.000617981,-0.002391815,0.014127731,0,
00:03.8,-0.000606537,-0.002380371,0.014144897,0,
00:03.8,-0.000589371,-0.002386093,0.014116287,0,
00:03.8,-0.000595093,-0.002391815,0.014139175,0,
00:03.8,-0.000606537,-0.002386093,0.01415062,0,
00:03.8,-0.000600815,-0.002403259,0.014133453,0,
00:03.8,-0.000600815,-0.002397537,0.014116287,0,
00:03.8,-0.000600815,-0.002391815,0.014110565,0,
00:03.8,-0.000595093,-0.002403259,0.014156342,0,
00:03.8,-0.000600815,-0.002397537,0.014144897,0,
00:03.8,-0.000600815,-0.002397537,0.014144897,0,
00:03.8,-0.000600815,-0.002386093,0.014133453,0,
00:03.8,-0.00056076,-0.002380371,0.014139175,0,
00:03.9,-0.000589371,-0.002380371,0.014139175,0,
00:03.9,-0.000635147,-0.002386093,0.014133453,0,
00:03.9,-0.000600815,-0.002403259,0.014122009,0,
00:03.9,-0.000589371,-0.002408981,0.014139175,0,
00:03.9,-0.000617981,-0.002380371,0.014144897,0,
00:03.9,-0.000606537,-0.002374649,0.014133453,0,
00:03.9,-0.000600815,-0.002397537,0.014116287,0,
00:03.9,-0.000600815,-0.002403259,0.014133453,0,
00:03.9,-0.000606537,-0.002386093,0.014139175,0,
00:03.9,-0.000612259,-0.002391815,0.014122009,0,
00:03.9,-0.000617981,-0.002397537,0.014133453,0,
00:03.9,-0.000595093,-0.002391815,0.01415062,0,
00:03.9,-0.000600815,-0.002386093,0.014144897,0,
00:03.9,-0.000600815,-0.002386093,0.014133453,0,
00:03.9,-0.000600815,-0.002403259,0.01415062,0,
00:03.9,-0.000600815,-0.002397537,0.014139175,0,
00:03.9,-0.000595093,-0.002403259,0.014127731,0,
00:03.9,-0.000600815,-0.002391815,0.014139175,0,
00:03.9,-0.000600815,-0.002391815,0.014144897,0,
00:03.9,-0.000595093,-0.002391815,0.014127731,0,
00:03.9,-0.00056076,-0.002374649,0.014139175,0,
00:03.9,-0.000595093,-0.002380371,0.014144897,0,
00:03.9,-0.000629425,-0.002391815,0.014144897,0,
00:03.9,-0.000623703,-0.002397537,0.014127731,0,
00:03.9,-0.000606537,-0.002397537,0.014133453,0,
00:04.0,-0.000600815,-0.002397537,0.014156342,0,
00:04.0,-0.000606537,-0.002380371,0.014144897,0,
00:04.0,-0.000606537,-0.002391815,0.014133453,0,
00:04.0,-0.000606537,-0.002386093,0.014133453,0,
00:04.0,-0.000612259,-0.002386093,0.014133453,0,
00:04.0,-0.000600815,-0.002391815,0.014139175,0,
00:04.0,-0.000600815,-0.002397537,0.014139175,0,
00:04.0,-0.000606537,-0.002397537,0.014139175,0,
00:04.0,-0.000612259,-0.002397537,0.014127731,0,
00:04.0,-0.000600815,-0.002391815,0.014139175,0,
00:04.0,-0.000595093,-0.002397537,0.014139175,0,
00:04.0,-0.000600815,-0.002414703,0.014127731,0,
00:00:04,-0.000606537,-0.002397537,0.014133453,0,
00:04.0,-0.000600815,-0.002397537,0.014139175,0,
00:04.0,-0.000612259,-0.002408981,0.014144897,0,
00:04.0,-0.000606537,-0.002357483,0.014139175,0,
00:04.0,-0.000595093,-0.002368927,0.014144897,0,
00:04.0,-0.000600815,-0.002397537,0.014139175,0,
00:04.0,-0.000566483,-0.002408981,0.014139175,0,
00:04.0,-0.000577927,-0.002374649,0.014133453,0,
00:04.0,-0.000629425,-0.002380371,0.01415062,0,
00:04.0,-0.000629425,-0.002391815,0.014133453,0,
00:04.0,-0.000612259,-0.002391815,0.014122009,0,
00:04.0,-0.000606537,-0.002386093,0.014133453,0,
00:04.0,-0.000606537,-0.002386093,0.014156342,0,
00:04.1,-0.000606537,-0.002386093,0.014144897,0,
00:04.1,-0.000600815,-0.002391815,0.014127731,0,
00:04.1,-0.000600815,-0.002403259,0.014139175,0,
00:04.1,-0.000606537,-0.002397537,0.014127731,0,
00:04.1,-0.000612259,-0.002386093,0.014127731,0,
00:04.1,-0.000623703,-0.002386093,0.014144897,0,
00:04.1,-0.000606537,-0.002391815,0.014139175,0,
00:04.1,-0.000600815,-0.002403259,0.014139175,0,
00:04.1,-0.000595093,-0.002408981,0.014133453,0,
00:04.1,-0.000600815,-0.002380371,0.014127731,0,
00:04.1,-0.000572205,-0.002374649,0.014133453,0,
00:04.1,-0.000566483,-0.002403259,0.014127731,0,
00:04.1,-0.000617981,-0.00243187,0.014133453,0,
00:04.1,-0.000629425,-0.002386093,0.014139175,0,
00:04.1,-0.000612259,-0.002351761,0.014162064,0,
00:04.1,-0.000606537,-0.002386093,0.01415062,0,
00:04.1,-0.000612259,-0.002391815,0.014144897,0,
00:04.1,-0.000606537,-0.002391815,0.014127731,0,
00:04.1,-0.000606537,-0.002386093,0.014139175,0,
00:04.1,-0.000606537,-0.002397537,0.01415062,0,
00:04.1,-0.000600815,-0.002386093,0.01415062,0,
00:04.1,-0.000600815,-0.002380371,0.014133453,0,
00:04.1,-0.000600815,-0.002380371,0.014133453,0,
00:04.1,-0.000612259,-0.002408981,0.01415062,0,
00:04.1,-0.000606537,-0.002414703,0.014139175,0,
00:04.2,-0.000600815,-0.002386093,0.01415062,0,
00:04.2,-0.000606537,-0.002380371,0.014144897,0,
00:04.2,-0.000606537,-0.002391815,0.014127731,0,
00:04.2,-0.000612259,-0.002397537,0.014144897,0,
00:04.2,-0.000606537,-0.002408981,0.014133453,0,
00:04.2,-0.000606537,-0.002391815,0.014144897,0,
00:04.2,-0.000623703,-0.002386093,0.014144897,0,
00:04.2,-0.000612259,-0.002391815,0.014133453,0,
00:04.2,-0.000595093,-0.002374649,0.014139175,0,
00:04.2,-0.000589371,-0.002386093,0.014139175,0,
00:04.2,-0.000543594,-0.002386093,0.014139175,0,
00:04.2,-0.000629425,-0.002386093,0.014133453,0,
00:04.2,-0.000646591,-0.002386093,0.014127731,0,
00:04.2,-0.000617981,-0.002386093,0.01415062,0,
00:04.2,-0.000606537,-0.002391815,0.01415062,0,
00:04.2,-0.000606537,-0.002397537,0.014133453,0,
00:04.2,-0.000612259,-0.002374649,0.014133453,0,
00:04.2,-0.000606537,-0.002397537,0.014127731,0,
00:04.2,-0.000606537,-0.002408981,0.014162064,0,
00:04.2,-0.000606537,-0.002391815,0.014144897,0,
00:04.2,-0.000612259,-0.002386093,0.014127731,0,
00:04.2,-0.000612259,-0.002380371,0.014122009,0,
00:04.2,-0.000606537,-0.002397537,0.014133453,0,
00:04.2,-0.000606537,-0.002386093,0.01415062,0,
00:04.2,-0.000612259,-0.002403259,0.014127731,0,
00:04.3,-0.000600815,-0.002374649,0.01415062,0,
00:04.3,-0.000606537,-0.002363205,0.014133453,0,
00:04.3,-0.000612259,-0.002391815,0.014144897,0,
00:04.3,-0.000600815,-0.002386093,0.014139175,0,
00:04.3,-0.000606537,-0.002386093,0.014144897,0,
00:04.3,-0.000612259,-0.002386093,0.014122009,0,
00:04.3,-0.000606537,-0.002374649,0.014127731,0,
00:04.3,-0.000612259,-0.002386093,0.014139175,0,
00:04.3,-0.000612259,-0.002386093,0.014144897,0,
00:04.3,-0.000612259,-0.002391815,0.01415062,0,
00:04.3,-0.000577927,-0.002391815,0.014144897,0,
00:04.3,-0.000589371,-0.002380371,0.014133453,0,
00:04.3,-0.000635147,-0.002397537,0.014127731,0,
00:04.3,-0.000629425,-0.002397537,0.014139175,0,
00:04.3,-0.000617981,-0.002380371,0.014133453,0,
00:04.3,-0.000606537,-0.002386093,0.014122009,0,
00:04.3,-0.000617981,-0.002414703,0.014133453,0,
00:04.3,-0.000612259,-0.002380371,0.014144897,0,
00:04.3,-0.000612259,-0.002374649,0.014133453,0,
00:04.3,-0.000606537,-0.002391815,0.014144897,0,
00:04.3,-0.000583649,-0.002374649,0.01415062,0,
00:04.3,-0.000600815,-0.002386093,0.014139175,0,
00:04.3,-0.000635147,-0.002386093,0.014127731,0,
00:04.3,-0.000617981,-0.002391815,0.014133453,0,
00:04.3,-0.000617981,-0.002386093,0.014133453,0,
00:04.4,-0.000612259,-0.002374649,0.014127731,0,
00:04.4,-0.000629425,-0.002386093,0.014144897,0,
00:04.4,-0.000629425,-0.002374649,0.014116287,0,
00:04.4,-0.000600815,-0.002386093,0.014144897,0,
00:04.4,-0.000589371,-0.002391815,0.014156342,0,
00:04.4,-0.000583649,-0.002403259,0.014127731,0,
00:04.4,-0.000617981,-0.002391815,0.014122009,0,
00:04.4,-0.000629425,-0.002386093,0.014133453,0,
00:04.4,-0.000612259,-0.002380371,0.014133453,0,
00:04.4,-0.000617981,-0.002391815,0.014133453,0,
00:04.4,-0.000623703,-0.002386093,0.014133453,0,
00:04.4,-0.000617981,-0.002391815,0.014139175,0,
00:04.4,-0.000617981,-0.002397537,0.014144897,0,
00:04.4,-0.000617981,-0.002380371,0.014133453,0,
00:04.4,-0.000623703,-0.002380371,0.014133453,0,
00:04.4,-0.000600815,-0.002386093,0.014110565,0,
00:04.4,-0.000589371,-0.002380371,0.014133453,0,
00:04.4,-0.000629425,-0.002386093,0.014139175,0,
00:04.4,-0.000623703,-0.002386093,0.014139175,0,
00:04.4,-0.000617981,-0.002386093,0.014127731,0,
00:04.4,-0.000612259,-0.002380371,0.014144897,0,
00:04.4,-0.000612259,-0.002386093,0.014127731,0,
00:04.4,-0.000612259,-0.002391815,0.014133453,0,
00:04.4,-0.000617981,-0.002380371,0.014133453,0,
00:04.4,-0.000617981,-0.002397537,0.014144897,0,
00:04.5,-0.000623703,-0.002397537,0.014144897,0,
00:04.5,-0.000623703,-0.002386093,0.014122009,0,
00:04.5,-0.000606537,-0.002363205,0.014110565,0,
00:04.5,-0.000606537,-0.002368927,0.014133453,0,
00:04.5,-0.000612259,-0.002391815,0.014167786,0,
00:04.5,-0.000623703,-0.002391815,0.014144897,0,
00:04.5,-0.000617981,-0.002397537,0.014127731,0,
00:04.5,-0.000617981,-0.002397537,0.014139175,0,
00:04.5,-0.000612259,-0.002374649,0.014139175,0,
00:04.5,-0.000612259,-0.002368927,0.01415062,0,
00:04.5,-0.000600815,-0.002386093,0.014144897,0,
00:04.5,-0.000583649,-0.002391815,0.014139175,0,
00:04.5,-0.000629425,-0.002380371,0.014133453,0,
00:04.5,-0.000623703,-0.002386093,0.014139175,0,
00:04.5,-0.000595093,-0.002391815,0.014139175,0,
00:04.5,-0.000629425,-0.002386093,0.014144897,0,
00:04.5,-0.000629425,-0.002380371,0.014133453,0,
00:04.5,-0.000617981,-0.002386093,0.014144897,0,
00:04.5,-0.000612259,-0.002391815,0.014133453,0,
00:04.5,-0.000623703,-0.002403259,0.014144897,0,
00:04.5,-0.000623703,-0.002403259,0.014139175,0,
00:04.5,-0.000629425,-0.002380371,0.014127731,0,
00:04.5,-0.000612259,-0.002374649,0.014144897,0,
00:04.5,-0.000595093,-0.002391815,0.014133453,0,
00:04.5,-0.000623703,-0.002380371,0.014156342,0,
00:04.6,-0.000617981,-0.002380371,0.014144897,0,
00:04.6,-0.000612259,-0.002386093,0.014156342,0,
00:04.6,-0.000612259,-0.002380371,0.014139175,0,
00:04.6,-0.000612259,-0.002374649,0.01415062,0,
00:04.6,-0.000612259,-0.002380371,0.014144897,0,
00:04.6,-0.000617981,-0.002386093,0.014144897,0,
00:04.6,-0.000617981,-0.002386093,0.014144897,0,
00:04.6,-0.000617981,-0.002368927,0.014139175,0,
00:04.6,-0.000583649,-0.002380371,0.014144897,0,
00:04.6,-0.000555038,-0.002380371,0.014144897,0,
00:04.6,-0.000640869,-0.002386093,0.014139175,0,
00:04.6,-0.000646591,-0.002391815,0.014127731,0,
00:04.6,-0.000629425,-0.002391815,0.01415062,0,
00:04.6,-0.000623703,-0.002386093,0.014156342,0,
00:04.6,-0.000617981,-0.002368927,0.014156342,0,
00:04.6,-0.000612259,-0.002368927,0.014167786,0,
00:04.6,-0.000617981,-0.002374649,0.014144897,0,
00:04.6,-0.000623703,-0.002386093,0.014144897,0,
00:04.6,-0.000629425,-0.002391815,0.014156342,0,
00:04.6,-0.000635147,-0.002391815,0.014139175,0,
00:04.6,-0.000606537,-0.002374649,0.014156342,0,
00:04.6,-0.000606537,-0.002380371,0.014162064,0,
00:04.6,-0.000617981,-0.002363205,0.01415062,0,
00:04.6,-0.000606537,-0.002374649,0.014162064,0,
00:04.6,-0.000617981,-0.002397537,0.01415062,0,
00:04.7,-0.000623703,-0.002380371,0.014133453,0,
00:04.7,-0.000617981,-0.002380371,0.014144897,0,
00:04.7,-0.000617981,-0.002380371,0.01415062,0,
00:04.7,-0.000617981,-0.002374649,0.01415062,0,
00:04.7,-0.000617981,-0.002391815,0.014156342,0,
00:04.7,-0.000600815,-0.002403259,0.014156342,0,
00:04.7,-0.000583649,-0.002374649,0.014144897,0,
00:04.7,-0.000600815,-0.002374649,0.01415062,0,
00:04.7,-0.000646591,-0.002374649,0.014144897,0,
00:04.7,-0.000646591,-0.002374649,0.014156342,0,
00:04.7,-0.000623703,-0.002363205,0.014139175,0,
00:04.7,-0.000617981,-0.002391815,0.014127731,0,
00:04.7,-0.000612259,-0.002380371,0.014156342,0,
00:04.7,-0.000623703,-0.002380371,0.014167786,0,
00:04.7,-0.000623703,-0.002391815,0.014162064,0,
00:04.7,-0.000617981,-0.002374649,0.014144897,0,
00:04.7,-0.000617981,-0.002374649,0.01415062,0,
00:04.7,-0.000623703,-0.002368927,0.014162064,0,
00:04.7,-0.000629425,-0.002380371,0.01415062,0,
00:04.7,-0.000635147,-0.002380371,0.01415062,0,
00:04.7,-0.000629425,-0.002374649,0.01415062,0,
00:04.7,-0.000600815,-0.002386093,0.014156342,0,
00:04.7,-0.000606537,-0.002386093,0.014156342,0,
00:04.7,-0.000595093,-0.002374649,0.014127731,0,
00:04.7,-0.000589371,-0.002380371,0.014139175,0,
00:04.8,-0.000600815,-0.002368927,0.014162064,0,
00:04.8,-0.000617981,-0.002368927,0.014162064,0,
00:04.8,-0.000640869,-0.002368927,0.014162064,0,
00:04.8,-0.000629425,-0.002368927,0.014156342,0,
00:04.8,-0.000617981,-0.002368927,0.014144897,0,
00:04.8,-0.000617981,-0.002374649,0.014156342,0,
00:04.8,-0.000629425,-0.002386093,0.014167786,0,
00:04.8,-0.000623703,-0.002374649,0.01415062,0,
00:04.8,-0.000617981,-0.002374649,0.014156342,0,
00:04.8,-0.000617981,-0.002368927,0.014156342,0,
00:04.8,-0.000623703,-0.002380371,0.014133453,0,
00:04.8,-0.000629425,-0.002408981,0.014156342,0,
00:04.8,-0.000623703,-0.002386093,0.014162064,0,
00:04.8,-0.000617981,-0.002357483,0.014156342,0,
00:04.8,-0.000617981,-0.002357483,0.01415062,0,
00:04.8,-0.000629425,-0.002363205,0.014167786,0,
00:04.8,-0.000623703,-0.002380371,0.014162064,0,
00:04.8,-0.000629425,-0.002391815,0.014162064,0,
00:04.8,-0.000646591,-0.002368927,0.01415062,0,
00:04.8,-0.000595093,-0.002374649,0.014156342,0,
00:04.8,-0.000595093,-0.002357483,0.014156342,0,
00:04.8,-0.000635147,-0.002368927,0.014162064,0,
00:04.8,-0.000629425,-0.002391815,0.014156342,0,
00:04.8,-0.000629425,-0.002368927,0.014162064,0,
00:04.8,-0.000623703,-0.002386093,0.01415062,0,
00:04.9,-0.000589371,-0.002363205,0.014167786,0,
00:04.9,-0.000600815,-0.002351761,0.014167786,0,
00:04.9,-0.000646591,-0.002386093,0.014144897,0,
00:04.9,-0.000629425,-0.002374649,0.014144897,0,
00:04.9,-0.000629425,-0.002368927,0.014173508,0,
00:04.9,-0.000617981,-0.002368927,0.014167786,0,
00:04.9,-0.000623703,-0.002368927,0.014167786,0,
00:04.9,-0.000623703,-0.002368927,0.014162064,0,
00:04.9,-0.000617981,-0.002374649,0.014162064,0,
00:04.9,-0.000629425,-0.002403259,0.014167786,0,
00:04.9,-0.000635147,-0.002391815,0.014156342,0,
00:04.9,-0.000623703,-0.002351761,0.014156342,0,
00:04.9,-0.000617981,-0.002357483,0.014162064,0,
00:04.9,-0.000623703,-0.002374649,0.014162064,0,
00:04.9,-0.000600815,-0.002380371,0.014167786,0,
00:04.9,-0.000623703,-0.002380371,0.014162064,0,
00:04.9,-0.000646591,-0.002368927,0.01415062,0,
00:04.9,-0.000623703,-0.002368927,0.014173508,0,
00:04.9,-0.000623703,-0.002374649,0.014162064,0,
00:04.9,-0.000623703,-0.002368927,0.014162064,0,
00:04.9,-0.000623703,-0.002380371,0.014162064,0,
00:04.9,-0.000589371,-0.002368927,0.014162064,0,
00:04.9,-0.000612259,-0.002380371,0.014173508,0,
00:04.9,-0.000646591,-0.002386093,0.014167786,0,
00:04.9,-0.000623703,-0.002357483,0.014167786,0,
00:05.0,-0.000623703,-0.002368927,0.014173508,0,
00:05.0,-0.000635147,-0.002374649,0.01415062,0,
00:05.0,-0.000623703,-0.002357483,0.014167786,0,
00:05.0,-0.000623703,-0.002368927,0.014173508,0,
00:05.0,-0.000623703,-0.002374649,0.014173508,0,
00:05.0,-0.000623703,-0.002386093,0.014167786,0,
00:05.0,-0.000629425,-0.002380371,0.014162064,0,
00:05.0,-0.000612259,-0.002368927,0.014162064,0,
00:05.0,-0.000595093,-0.002351761,0.014162064,0,
00:05.0,-0.000640869,-0.002363205,0.014162064,0,
00:05.0,-0.000652313,-0.002368927,0.014184952,0,
00:05.0,-0.000635147,-0.002374649,0.014173508,0,
00:00:05,-0.000623703,-0.002363205,0.014156342,0,
00:05.0,-0.000635147,-0.002374649,0.014167786,0,
00:05.0,-0.000623703,-0.002368927,0.01417923,0,
00:05.0,-0.000606537,-0.002363205,0.014167786,0,
00:05.0,-0.000572205,-0.002363205,0.014162064,0,
00:05.0,-0.000623703,-0.002368927,0.014156342,0,
00:05.0,-0.000646591,-0.002374649,0.014167786,0,
00:05.0,-0.000635147,-0.002374649,0.01417923,0,
00:05.0,-0.000629425,-0.002391815,0.014184952,0,
00:05.0,-0.000629425,-0.002374649,0.014173508,0,
00:05.0,-0.000617981,-0.002363205,0.014167786,0,
00:05.0,-0.000623703,-0.002363205,0.014156342,0,
00:05.0,-0.000623703,-0.002357483,0.014162064,0,
00:05.1,-0.000629425,-0.002363205,0.014167786,0,
00:05.1,-0.000617981,-0.002363205,0.014167786,0,
00:05.1,-0.000600815,-0.002374649,0.01417923,0,
00:05.1,-0.000635147,-0.002374649,0.01417923,0,
00:05.1,-0.000640869,-0.002374649,0.014173508,0,
00:05.1,-0.000629425,-0.002363205,0.014167786,0,
00:05.1,-0.000629425,-0.002368927,0.014156342,0,
00:05.1,-0.000623703,-0.002368927,0.014156342,0,
00:05.1,-0.000640869,-0.002363205,0.014173508,0,
00:05.1,-0.000635147,-0.002363205,0.014184952,0,
00:05.1,-0.000623703,-0.002380371,0.014173508,0,
00:05.1,-0.000623703,-0.002380371,0.014156342,0,
00:05.1,-0.000623703,-0.002386093,0.014162064,0,
00:05.1,-0.000606537,-0.002363205,0.014156342,0,
00:05.1,-0.000606537,-0.002374649,0.014167786,0,
00:05.1,-0.000652313,-0.002386093,0.01417923,0,
00:05.1,-0.000635147,-0.002363205,0.014173508,0,
00:05.1,-0.000635147,-0.002363205,0.014173508,0,
00:05.1,-0.000629425,-0.002380371,0.01417923,0,
00:05.1,-0.000629425,-0.002363205,0.014173508,0,
00:05.1,-0.000629425,-0.002363205,0.014173508,0,
00:05.1,-0.000617981,-0.002357483,0.014162064,0,
00:05.1,-0.000606537,-0.002363205,0.014162064,0,
00:05.1,-0.000629425,-0.002368927,0.01415062,0,
00:05.1,-0.000640869,-0.002363205,0.014173508,0,
00:05.2,-0.000629425,-0.002368927,0.01417923,0,
00:05.2,-0.000629425,-0.002380371,0.014162064,0,
00:05.2,-0.000629425,-0.002357483,0.014167786,0,
00:05.2,-0.000629425,-0.002363205,0.014167786,0,
00:05.2,-0.000646591,-0.002374649,0.014156342,0,
00:05.2,-0.000646591,-0.002357483,0.01415062,0,
00:05.2,-0.000623703,-0.002380371,0.014190674,0,
00:05.2,-0.000629425,-0.002386093,0.014173508,0,
00:05.2,-0.000623703,-0.002374649,0.014167786,0,
00:05.2,-0.000629425,-0.002368927,0.014167786,0,
00:05.2,-0.000612259,-0.002368927,0.014167786,0,
00:05.2,-0.000589371,-0.002368927,0.014162064,0,
00:05.2,-0.000612259,-0.002363205,0.014162064,0,
00:05.2,-0.000646591,-0.002363205,0.014162064,0,
00:05.2,-0.000652313,-0.002374649,0.01417923,0,
00:05.2,-0.000640869,-0.002368927,0.01417923,0,
00:05.2,-0.000640869,-0.002351761,0.014167786,0,
00:05.2,-0.000629425,-0.002368927,0.014162064,0,
00:05.2,-0.000623703,-0.002374649,0.014162064,0,
00:05.2,-0.000629425,-0.002368927,0.014162064,0,
00:05.2,-0.000635147,-0.002357483,0.014173508,0,
00:05.2,-0.000635147,-0.002374649,0.014156342,0,
00:05.2,-0.000635147,-0.002363205,0.014156342,0,
00:05.2,-0.000629425,-0.002368927,0.014173508,0,
00:05.2,-0.000635147,-0.002380371,0.014173508,0,
00:05.3,-0.000635147,-0.002357483,0.014156342,0,
00:05.3,-0.000629425,-0.002363205,0.01415062,0,
00:05.3,-0.000629425,-0.002374649,0.014167786,0,
00:05.3,-0.000652313,-0.002368927,0.01415062,0,
00:05.3,-0.000629425,-0.002363205,0.014167786,0,
00:05.3,-0.000623703,-0.002374649,0.01417923,0,
00:05.3,-0.000635147,-0.002363205,0.014156342,0,
00:05.3,-0.000629425,-0.002374649,0.014162064,0,
00:05.3,-0.000600815,-0.002386093,0.014162064,0,
00:05.3,-0.000583649,-0.002363205,0.014162064,0,
00:05.3,-0.000658035,-0.002363205,0.014167786,0,
00:05.3,-0.000669479,-0.002351761,0.014173508,0,
00:05.3,-0.000646591,-0.002351761,0.014167786,0,
00:05.3,-0.000635147,-0.002386093,0.014167786,0,
00:05.3,-0.000635147,-0.002380371,0.014162064,0,
00:05.3,-0.000623703,-0.002357483,0.014156342,0,
00:05.3,-0.000629425,-0.002351761,0.014167786,0,
00:05.3,-0.000635147,-0.002357483,0.014173508,0,
00:05.3,-0.000646591,-0.002380371,0.014162064,0,
00:05.3,-0.000635147,-0.002363205,0.014162064,0,
00:05.3,-0.000635147,-0.002363205,0.01417923,0,
00:05.3,-0.000629425,-0.002380371,0.014167786,0,
00:05.3,-0.000629425,-0.002374649,0.014133453,0,
00:05.3,-0.000635147,-0.002357483,0.014167786,0,
00:05.3,-0.000640869,-0.002363205,0.014162064,0,
00:05.4,-0.000635147,-0.002368927,0.014173508,0,
00:05.4,-0.000652313,-0.002363205,0.014156342,0,
00:05.4,-0.000612259,-0.002368927,0.014162064,0,
00:05.4,-0.000612259,-0.002397537,0.01417923,0,
00:05.4,-0.000612259,-0.002363205,0.01415062,0,
00:05.4,-0.000652313,-0.002346039,0.014156342,0,
00:05.4,-0.000652313,-0.002357483,0.01417923,0,
00:05.4,-0.000646591,-0.002374649,0.01417923,0,
00:05.4,-0.000646591,-0.002363205,0.014173508,0,
00:05.4,-0.000640869,-0.002363205,0.014173508,0,
00:05.4,-0.000635147,-0.002374649,0.014167786,0,
00:05.4,-0.000635147,-0.002357483,0.01415062,0,
00:05.4,-0.000640869,-0.002368927,0.014162064,0,
00:05.4,-0.000640869,-0.002368927,0.014167786,0,
00:05.4,-0.000640869,-0.002368927,0.014173508,0,
00:05.4,-0.000640869,-0.002368927,0.014167786,0,
00:05.4,-0.000640869,-0.002368927,0.01415062,0,
00:05.4,-0.000635147,-0.002386093,0.014162064,0,
00:05.4,-0.000640869,-0.002368927,0.014167786,0,
00:05.4,-0.000640869,-0.002363205,0.014167786,0,
00:05.4,-0.000623703,-0.002357483,0.01415062,0,
00:05.4,-0.000623703,-0.002357483,0.014162064,0,
00:05.4,-0.000652313,-0.002368927,0.01417923,0,
00:05.4,-0.000652313,-0.002380371,0.014167786,0,
00:05.4,-0.000658035,-0.002357483,0.014167786,0,
00:05.5,-0.000652313,-0.002357483,0.014162064,0,
00:05.5,-0.000629425,-0.002368927,0.014167786,0,
00:05.5,-0.000640869,-0.002368927,0.014173508,0,
00:05.5,-0.000635147,-0.002363205,0.014167786,0,
00:05.5,-0.000612259,-0.002357483,0.014167786,0,
00:05.5,-0.000606537,-0.002374649,0.01417923,0,
00:05.5,-0.000658035,-0.002380371,0.014167786,0,
00:05.5,-0.000652313,-0.002357483,0.014156342,0,
00:05.5,-0.000646591,-0.002368927,0.014167786,0,
00:05.5,-0.000640869,-0.002374649,0.014162064,0,
00:05.5,-0.000635147,-0.002374649,0.01415062,0,
00:05.5,-0.000640869,-0.002368927,0.014156342,0,
00:05.5,-0.000640869,-0.002357483,0.014162064,0,
00:05.5,-0.000640869,-0.002357483,0.014167786,0,
00:05.5,-0.000635147,-0.002351761,0.014162064,0,
00:05.5,-0.000640869,-0.002368927,0.014173508,0,
00:05.5,-0.000640869,-0.002374649,0.014162064,0,
00:05.5,-0.000617981,-0.002363205,0.01417923,0,
00:05.5,-0.000635147,-0.002386093,0.014173508,0,
00:05.5,-0.000663757,-0.002397537,0.014156342,0,
00:05.5,-0.000646591,-0.002368927,0.014167786,0,
00:05.5,-0.000640869,-0.002340317,0.014156342,0,
00:05.5,-0.000635147,-0.002351761,0.014173508,0,
00:05.5,-0.000658035,-0.002357483,0.014173508,0,
00:05.5,-0.000646591,-0.002380371,0.014162064,0,
00:05.6,-0.000629425,-0.002363205,0.014167786,0,
00:05.6,-0.000612259,-0.002340317,0.014167786,0,
00:05.6,-0.000612259,-0.002357483,0.014162064,0,
00:05.6,-0.000652313,-0.002363205,0.014162064,0,
00:05.6,-0.000658035,-0.002374649,0.014156342,0,
00:05.6,-0.000652313,-0.002368927,0.014162064,0,
00:05.6,-0.000646591,-0.002368927,0.014167786,0,
00:05.6,-0.000640869,-0.002363205,0.014162064,0,
00:05.6,-0.000635147,-0.002368927,0.014162064,0,
00:05.6,-0.000652313,-0.002380371,0.014167786,0,
00:05.6,-0.000652313,-0.002368927,0.014173508,0,
00:05.6,-0.000635147,-0.002368927,0.014167786,0,
00:05.6,-0.000629425,-0.002357483,0.014167786,0,
00:05.6,-0.000635147,-0.002374649,0.014162064,0,
00:05.6,-0.000629425,-0.002386093,0.014162064,0,
00:05.6,-0.000623703,-0.002346039,0.014167786,0,
00:05.6,-0.000663757,-0.002346039,0.014173508,0,
00:05.6,-0.000640869,-0.002346039,0.014156342,0,
00:05.6,-0.000640869,-0.002363205,0.01415062,0,
00:05.6,-0.000658035,-0.002380371,0.014167786,0,
00:05.6,-0.000652313,-0.002380371,0.01417923,0,
00:05.6,-0.000629425,-0.002368927,0.014167786,0,
00:05.6,-0.000640869,-0.002368927,0.014162064,0,
00:05.6,-0.000646591,-0.002368927,0.014162064,0,
00:05.6,-0.000640869,-0.002374649,0.01417923,0,
00:05.7,-0.000640869,-0.002380371,0.01417923,0,
00:05.7,-0.000646591,-0.002374649,0.014167786,0,
00:05.7,-0.000640869,-0.002357483,0.01415062,0,
00:05.7,-0.000640869,-0.002357483,0.01415062,0,
00:05.7,-0.000640869,-0.002363205,0.014173508,0,
00:05.7,-0.000640869,-0.002357483,0.014167786,0,
00:05.7,-0.000635147,-0.002386093,0.014173508,0,
00:05.7,-0.000606537,-0.002363205,0.014162064,0,
00:05.7,-0.000658035,-0.002351761,0.014173508,0,
00:05.7,-0.000663757,-0.002357483,0.014167786,0,
00:05.7,-0.000646591,-0.002363205,0.014167786,0,
00:05.7,-0.000646591,-0.002380371,0.014167786,0,
00:05.7,-0.000640869,-0.002363205,0.014156342,0,
00:05.7,-0.000617981,-0.002351761,0.014156342,0,
00:05.7,-0.000646591,-0.002357483,0.014167786,0,
00:05.7,-0.000658035,-0.002368927,0.014173508,0,
00:05.7,-0.000652313,-0.002368927,0.01415062,0,
00:05.7,-0.000658035,-0.002374649,0.014156342,0,
00:05.7,-0.000646591,-0.002374649,0.01417923,0,
00:05.7,-0.000635147,-0.002357483,0.01417923,0,
00:05.7,-0.000640869,-0.002368927,0.014167786,0,
00:05.7,-0.000640869,-0.002363205,0.014156342,0,
00:05.7,-0.000640869,-0.002363205,0.01415062,0,
00:05.7,-0.000646591,-0.002363205,0.01417923,0,
00:05.7,-0.000652313,-0.002363205,0.014167786,0,
00:05.8,-0.000646591,-0.002368927,0.01417923,0,
00:05.8,-0.000646591,-0.002380371,0.014167786,0,
00:05.8,-0.000640869,-0.002351761,0.014162064,0,
00:05.8,-0.000652313,-0.002368927,0.014144897,0,
00:05.8,-0.000629425,-0.002374649,0.014173508,0,
00:05.8,-0.000617981,-0.002374649,0.01417923,0,
00:05.8,-0.000663757,-0.002380371,0.014173508,0,
00:05.8,-0.000658035,-0.002351761,0.014162064,0,
00:05.8,-0.000652313,-0.002374649,0.014167786,0,
00:05.8,-0.000646591,-0.002368927,0.014173508,0,
00:05.8,-0.000635147,-0.002368927,0.014167786,0,
00:05.8,-0.000658035,-0.002351761,0.014156342,0,
00:05.8,-0.000646591,-0.002346039,0.014162064,0,
00:05.8,-0.000652313,-0.002368927,0.014173508,0,
00:05.8,-0.000652313,-0.002368927,0.014184952,0,
00:05.8,-0.000658035,-0.002363205,0.014156342,0,
00:05.8,-0.000663757,-0.002363205,0.014144897,0,
00:05.8,-0.000652313,-0.002368927,0.014156342,0,
00:05.8,-0.000640869,-0.002368927,0.014184952,0,
00:05.8,-0.000652313,-0.002357483,0.014173508,0,
00:05.8,-0.000646591,-0.002357483,0.014173508,0,
00:05.8,-0.000646591,-0.002363205,0.014167786,0,
00:05.8,-0.000652313,-0.002374649,0.014173508,0,
00:05.8,-0.000640869,-0.002374649,0.014173508,0,
00:05.8,-0.000652313,-0.002374649,0.014162064,0,
00:05.9,-0.000658035,-0.002374649,0.014156342,0,
00:05.9,-0.000652313,-0.002374649,0.014156342,0,
00:05.9,-0.000652313,-0.002368927,0.014162064,0,
00:05.9,-0.000646591,-0.002357483,0.01415062,0,
00:05.9,-0.000646591,-0.002351761,0.014162064,0,
00:05.9,-0.000646591,-0.002351761,0.01417923,0,
00:05.9,-0.000658035,-0.002368927,0.014173508,0,
00:05.9,-0.000629425,-0.002368927,0.014144897,0,
00:05.9,-0.000635147,-0.002374649,0.014156342,0,
00:05.9,-0.000669479,-0.002368927,0.01417923,0,
00:05.9,-0.000663757,-0.002351761,0.01417923,0,
00:05.9,-0.000652313,-0.002368927,0.014167786,0,
00:05.9,-0.000629425,-0.002374649,0.014162064,0,
00:05.9,-0.000652313,-0.002380371,0.014167786,0,
00:05.9,-0.000680923,-0.002374649,0.014167786,0,
00:05.9,-0.000658035,-0.002357483,0.01417923,0,
00:05.9,-0.000646591,-0.002363205,0.01417923,0,
00:05.9,-0.000658035,-0.002363205,0.01415062,0,
00:05.9,-0.000646591,-0.002357483,0.014162064,0,
00:05.9,-0.000646591,-0.002374649,0.01417923,0,
00:05.9,-0.000652313,-0.002386093,0.014167786,0,
00:05.9,-0.000652313,-0.002368927,0.014162064,0,
00:05.9,-0.000658035,-0.002363205,0.014173508,0,
00:05.9,-0.000663757,-0.002363205,0.014173508,0,
00:05.9,-0.000652313,-0.002363205,0.014173508,0,
00:06.0,-0.000640869,-0.002357483,0.014162064,0,
00:06.0,-0.000658035,-0.002368927,0.014173508,0,
00:06.0,-0.000658035,-0.002374649,0.014162064,0,
00:06.0,-0.000658035,-0.002374649,0.014173508,0,
00:06.0,-0.000658035,-0.002374649,0.01417923,0,
00:06.0,-0.000646591,-0.002357483,0.014162064,0,
00:06.0,-0.000623703,-0.002363205,0.014173508,0,
00:06.0,-0.000652313,-0.002374649,0.014167786,0,
00:06.0,-0.000652313,-0.002380371,0.014173508,0,
00:06.0,-0.000635147,-0.002374649,0.014162064,0,
00:06.0,-0.000686646,-0.002368927,0.01417923,0,
00:06.0,-0.000675201,-0.002363205,0.014167786,0,
00:00:06,-0.000658035,-0.002374649,0.014167786,0,
00:06.0,-0.000652313,-0.002368927,0.014167786,0,
00:06.0,-0.000652313,-0.002380371,0.014162064,0,
00:06.0,-0.000646591,-0.002363205,0.014167786,0,
00:06.0,-0.000658035,-0.002346039,0.014162064,0,
00:06.0,-0.000663757,-0.002351761,0.014167786,0,
00:06.0,-0.000663757,-0.002368927,0.014184952,0,
00:06.0,-0.000658035,-0.002368927,0.014184952,0,
00:06.0,-0.000652313,-0.002363205,0.01417923,0,
00:06.0,-0.000658035,-0.002363205,0.014167786,0,
00:06.0,-0.000658035,-0.002363205,0.014167786,0,
00:06.0,-0.000658035,-0.002380371,0.014167786,0,
00:06.0,-0.000652313,-0.002391815,0.014167786,0,
00:06.1,-0.000635147,-0.002368927,0.014173508,0,
00:06.1,-0.000669479,-0.002368927,0.01417923,0,
00:06.1,-0.000663757,-0.002374649,0.014173508,0,
00:06.1,-0.000658035,-0.002368927,0.01417923,0,
00:06.1,-0.000658035,-0.002363205,0.014167786,0,
00:06.1,-0.000663757,-0.002374649,0.01417923,0,
00:06.1,-0.000658035,-0.002380371,0.014173508,0,
00:06.1,-0.000675201,-0.002374649,0.014162064,0,
00:06.1,-0.000658035,-0.002363205,0.01417923,0,
00:06.1,-0.000646591,-0.002363205,0.014173508,0,
00:06.1,-0.000658035,-0.002380371,0.01417923,0,
00:06.1,-0.000658035,-0.002374649,0.014173508,0,
00:06.1,-0.000658035,-0.002386093,0.014167786,0,
00:06.1,-0.000658035,-0.002386093,0.014173508,0,
00:06.1,-0.000646591,-0.002363205,0.014173508,0,
00:06.1,-0.000629425,-0.002357483,0.014184952,0,
00:06.1,-0.000663757,-0.002351761,0.01417923,0,
00:06.1,-0.000675201,-0.002368927,0.014173508,0,
00:06.1,-0.000669479,-0.002368927,0.014173508,0,
00:06.1,-0.000658035,-0.002363205,0.014167786,0,
00:06.1,-0.000652313,-0.002368927,0.01417923,0,
00:06.1,-0.000652313,-0.002346039,0.014184952,0,
00:06.1,-0.000658035,-0.002363205,0.014173508,0,
00:06.1,-0.000635147,-0.002374649,0.01417923,0,
00:06.1,-0.000669479,-0.002391815,0.01417923,0,
00:06.2,-0.000675201,-0.002363205,0.014173508,0,
00:06.2,-0.000663757,-0.002363205,0.014173508,0,
00:06.2,-0.000663757,-0.002368927,0.014184952,0,
00:06.2,-0.000658035,-0.002374649,0.014190674,0,
00:06.2,-0.000658035,-0.002374649,0.01417923,0,
00:06.2,-0.000669479,-0.002380371,0.01417923,0,
00:06.2,-0.000669479,-0.002357483,0.014156342,0,
00:06.2,-0.000652313,-0.002363205,0.014173508,0,
00:06.2,-0.000646591,-0.002363205,0.014196396,0,
00:06.2,-0.000658035,-0.002374649,0.014190674,0,
00:06.2,-0.000663757,-0.002374649,0.014184952,0,
00:06.2,-0.000669479,-0.002374649,0.01417923,0,
00:06.2,-0.000663757,-0.002357483,0.014184952,0,
00:06.2,-0.000652313,-0.002363205,0.01417923,0,
00:06.2,-0.000652313,-0.002374649,0.014184952,0,
00:06.2,-0.000663757,-0.002386093,0.014184952,0,
00:06.2,-0.000652313,-0.002368927,0.014184952,0,
00:06.2,-0.000629425,-0.002357483,0.014190674,0,
00:06.2,-0.000669479,-0.002363205,0.014196396,0,
00:06.2,-0.000640869,-0.002363205,0.01417923,0,
00:06.2,-0.000663757,-0.002374649,0.014173508,0,
00:06.2,-0.000692368,-0.002391815,0.014173508,0,
00:06.2,-0.000675201,-0.002368927,0.014196396,0,
00:06.2,-0.000663757,-0.002363205,0.01417923,0,
00:06.2,-0.000658035,-0.002357483,0.01420784,0,
00:06.3,-0.000663757,-0.002374649,0.014196396,0,
00:06.3,-0.000658035,-0.002368927,0.014196396,0,
00:06.3,-0.000669479,-0.002368927,0.014190674,0,
00:06.3,-0.000680923,-0.002368927,0.014202118,0,
00:06.3,-0.000652313,-0.002363205,0.014202118,0,
00:06.3,-0.000652313,-0.002363205,0.014202118,0,
00:06.3,-0.000658035,-0.002374649,0.014190674,0,
00:06.3,-0.000663757,-0.002363205,0.014173508,0,
00:06.3,-0.000663757,-0.002357483,0.014196396,0,
00:06.3,-0.000669479,-0.002374649,0.014219284,0,
00:06.3,-0.000658035,-0.002368927,0.014196396,0,
00:06.3,-0.000658035,-0.002357483,0.014190674,0,
00:06.3,-0.000658035,-0.002368927,0.014202118,0,
00:06.3,-0.000658035,-0.002368927,0.014196396,0,
00:06.3,-0.000663757,-0.002351761,0.014213562,0,
00:06.3,-0.000652313,-0.002357483,0.014202118,0,
00:06.3,-0.000646591,-0.002368927,0.014225006,0,
00:06.3,-0.000675201,-0.002363205,0.014202118,0,
00:06.3,-0.000635147,-0.002380371,0.01420784,0,
00:06.3,-0.000669479,-0.002386093,0.014213562,0,
00:06.3,-0.000686646,-0.002357483,0.01420784,0,
00:06.3,-0.000663757,-0.002363205,0.014202118,0,
00:06.3,-0.000663757,-0.002368927,0.014190674,0,
00:06.3,-0.000669479,-0.002357483,0.014196396,0,
00:06.3,-0.000669479,-0.002346039,0.014219284,0,
00:06.4,-0.000669479,-0.002357483,0.014213562,0,
00:06.4,-0.000669479,-0.002357483,0.014230728,0,
00:06.4,-0.000658035,-0.002357483,0.014219284,0,
00:06.4,-0.000675201,-0.002374649,0.014213562,0,
00:06.4,-0.000663757,-0.002380371,0.014219284,0,
00:06.4,-0.000658035,-0.002363205,0.014219284,0,
00:06.4,-0.000658035,-0.002357483,0.014219284,0,
00:06.4,-0.000658035,-0.002357483,0.014213562,0,
00:06.4,-0.000658035,-0.002357483,0.014213562,0,
00:06.4,-0.000663757,-0.002374649,0.014225006,0,
00:06.4,-0.000663757,-0.002386093,0.014213562,0,
00:06.4,-0.000663757,-0.002368927,0.014230728,0,
00:06.4,-0.000640869,-0.002363205,0.014225006,0,
00:06.4,-0.000646591,-0.002357483,0.014230728,0,
00:06.4,-0.000686646,-0.002363205,0.014247894,0,
00:06.4,-0.000669479,-0.002363205,0.014242172,0,
00:06.4,-0.000658035,-0.002363205,0.014230728,0,
00:06.4,-0.000658035,-0.002351761,0.014230728,0,
00:06.4,-0.000658035,-0.002368927,0.014230728,0,
00:06.4,-0.000663757,-0.002363205,0.014225006,0,
00:06.4,-0.000663757,-0.002357483,0.014230728,0,
00:06.4,-0.000658035,-0.002363205,0.01423645,0,
00:06.4,-0.000623703,-0.002363205,0.014247894,0,
00:06.4,-0.000669479,-0.002386093,0.014230728,0,
00:06.4,-0.00069809,-0.002374649,0.014242172,0,
00:06.5,-0.000675201,-0.002357483,0.014230728,0,
00:06.5,-0.000652313,-0.002351761,0.014242172,0,
00:06.5,-0.000658035,-0.002357483,0.014259338,0,
00:06.5,-0.000652313,-0.002351761,0.014242172,0,
00:06.5,-0.000658035,-0.002357483,0.014247894,0,
00:06.5,-0.000658035,-0.002368927,0.014247894,0,
00:06.5,-0.000658035,-0.002357483,0.014247894,0,
00:06.5,-0.000658035,-0.002368927,0.014247894,0,
00:06.5,-0.000652313,-0.002363205,0.014247894,0,
00:06.5,-0.000635147,-0.002363205,0.014242172,0,
00:06.5,-0.000646591,-0.002368927,0.014242172,0,
00:06.5,-0.000675201,-0.002368927,0.01423645,0,
00:06.5,-0.000663757,-0.002363205,0.014253616,0,
00:06.5,-0.000663757,-0.002368927,0.014247894,0,
00:06.5,-0.000663757,-0.002368927,0.014259338,0,
00:06.5,-0.000658035,-0.002374649,0.014253616,0,
00:06.5,-0.000646591,-0.002340317,0.014253616,0,
00:06.5,-0.000652313,-0.002363205,0.014247894,0,
00:06.5,-0.000658035,-0.002368927,0.014247894,0,
00:06.5,-0.000658035,-0.002363205,0.01426506,0,
00:06.5,-0.000680923,-0.002380371,0.014270782,0,
00:06.5,-0.000658035,-0.002351761,0.01426506,0,
00:06.5,-0.000617981,-0.002351761,0.014253616,0,
00:06.5,-0.000629425,-0.002357483,0.014253616,0,
00:06.5,-0.000675201,-0.002351761,0.01426506,0,
00:06.6,-0.000663757,-0.002357483,0.014253616,0,
00:06.6,-0.000658035,-0.002357483,0.014247894,0,
00:06.6,-0.000652313,-0.002363205,0.014282227,0,
00:06.6,-0.000658035,-0.002357483,0.014270782,0,
00:06.6,-0.000652313,-0.002368927,0.014276505,0,
00:06.6,-0.000640869,-0.002368927,0.014270782,0,
00:06.6,-0.000623703,-0.002346039,0.014282227,0,
00:06.6,-0.000669479,-0.002357483,0.014276505,0,
00:06.6,-0.000669479,-0.002357483,0.014270782,0,
00:06.6,-0.000652313,-0.002351761,0.014270782,0,
00:06.6,-0.000652313,-0.002363205,0.014282227,0,
00:06.6,-0.000658035,-0.002368927,0.014282227,0,
00:06.6,-0.000652313,-0.002357483,0.014287949,0,
00:06.6,-0.000658035,-0.002351761,0.014276505,0,
00:06.6,-0.000652313,-0.002346039,0.014276505,0,
00:06.6,-0.000658035,-0.002357483,0.01426506,0,
00:06.6,-0.000663757,-0.002351761,0.014276505,0,
00:06.6,-0.000646591,-0.002357483,0.014299393,0,
00:06.6,-0.000646591,-0.002363205,0.014282227,0,
00:06.6,-0.000652313,-0.002357483,0.014293671,0,
00:06.6,-0.000652313,-0.002351761,0.014299393,0,
00:06.6,-0.000652313,-0.002363205,0.014282227,0,
00:06.6,-0.000652313,-0.002374649,0.014276505,0,
00:06.6,-0.000652313,-0.002374649,0.014270782,0,
00:06.6,-0.000652313,-0.002363205,0.014293671,0,
00:06.7,-0.000617981,-0.002363205,0.014316559,0,
00:06.7,-0.000600815,-0.002351761,0.014305115,0,
00:06.7,-0.000675201,-0.002340317,0.014293671,0,
00:06.7,-0.000680923,-0.002351761,0.014282227,0,
00:06.7,-0.000658035,-0.002351761,0.014287949,0,
00:06.7,-0.000658035,-0.002363205,0.014299393,0,
00:06.7,-0.000658035,-0.002368927,0.014316559,0,
00:06.7,-0.000652313,-0.002351761,0.014299393,0,
00:06.7,-0.000646591,-0.002351761,0.014310837,0,
00:06.7,-0.000646591,-0.002363205,0.014310837,0,
00:06.7,-0.000658035,-0.002351761,0.014316559,0,
00:06.7,-0.000663757,-0.002357483,0.014310837,0,
00:06.7,-0.000646591,-0.002357483,0.014293671,0,
00:06.7,-0.000640869,-0.002363205,0.014310837,0,
00:06.7,-0.000652313,-0.002368927,0.014316559,0,
00:06.7,-0.000646591,-0.002351761,0.014305115,0,
00:06.7,-0.000658035,-0.002351761,0.014299393,0,
00:06.7,-0.000652313,-0.002357483,0.014299393,0,
00:06.7,-0.000652313,-0.002363205,0.014322281,0,
00:06.7,-0.000640869,-0.002357483,0.014316559,0,
00:06.7,-0.000646591,-0.002363205,0.014316559,0,
00:06.7,-0.000652313,-0.002346039,0.014322281,0,
00:06.7,-0.000658035,-0.002357483,0.014310837,0,
00:06.7,-0.000646591,-0.002363205,0.014305115,0,
00:06.7,-0.000652313,-0.002357483,0.014310837,0,
00:06.8,-0.000635147,-0.002368927,0.014333725,0,
00:06.8,-0.000635147,-0.002346039,0.014310837,0,
00:06.8,-0.000658035,-0.002346039,0.014328003,0,
00:06.8,-0.000663757,-0.002368927,0.014322281,0,
00:06.8,-0.000652313,-0.002357483,0.014316559,0,
00:06.8,-0.000646591,-0.002357483,0.014328003,0,
00:06.8,-0.000652313,-0.002351761,0.014328003,0,
00:06.8,-0.000623703,-0.002346039,0.014316559,0,
00:06.8,-0.000629425,-0.002351761,0.014316559,0,
00:06.8,-0.000680923,-0.002368927,0.014333725,0,
00:06.8,-0.000652313,-0.002346039,0.014322281,0,
00:06.8,-0.000646591,-0.002340317,0.014339447,0,
00:06.8,-0.000658035,-0.002357483,0.014333725,0,
00:06.8,-0.000646591,-0.002357483,0.014322281,0,
00:06.8,-0.000646591,-0.002363205,0.014339447,0,
00:06.8,-0.000646591,-0.002363205,0.014333725,0,
00:06.8,-0.000646591,-0.002374649,0.014345169,0,
00:06.8,-0.000617981,-0.002351761,0.014322281,0,
00:06.8,-0.000652313,-0.002340317,0.014328003,0,
00:06.8,-0.000663757,-0.002351761,0.014345169,0,
00:06.8,-0.000652313,-0.002357483,0.014345169,0,
00:06.8,-0.000658035,-0.002363205,0.014316559,0,
00:06.8,-0.000652313,-0.002357483,0.014333725,0,
00:06.8,-0.000640869,-0.002346039,0.014356613,0,
00:06.8,-0.000646591,-0.002351761,0.014356613,0,
00:06.9,-0.000652313,-0.002368927,0.014345169,0,
00:06.9,-0.000680923,-0.002374649,0.014339447,0,
00:06.9,-0.000652313,-0.002357483,0.014345169,0,
00:06.9,-0.000629425,-0.002346039,0.014350891,0,
00:06.9,-0.000646591,-0.002334595,0.014350891,0,
00:06.9,-0.000646591,-0.002340317,0.014362335,0,
00:06.9,-0.000663757,-0.002357483,0.014350891,0,
00:06.9,-0.000663757,-0.002346039,0.014350891,0,
00:06.9,-0.000646591,-0.002357483,0.014356613,0,
00:06.9,-0.000646591,-0.002368927,0.014356613,0,
00:06.9,-0.000617981,-0.002368927,0.014356613,0,
00:06.9,-0.000606537,-0.002363205,0.014368057,0,
00:06.9,-0.000652313,-0.002346039,0.014356613,0,
00:06.9,-0.000680923,-0.002346039,0.014362335,0,
00:06.9,-0.000663757,-0.002368927,0.014350891,0,
00:06.9,-0.000658035,-0.002368927,0.014339447,0,
00:06.9,-0.000652313,-0.002346039,0.014362335,0,
00:06.9,-0.000652313,-0.002351761,0.014368057,0,
00:06.9,-0.000652313,-0.002363205,0.014368057,0,
00:06.9,-0.000652313,-0.002351761,0.014368057,0,
00:06.9,-0.000652313,-0.002334595,0.014362335,0,
00:06.9,-0.000646591,-0.002346039,0.014373779,0,
00:06.9,-0.000652313,-0.002357483,0.014362335,0,
00:06.9,-0.000663757,-0.002363205,0.014368057,0,
00:06.9,-0.000658035,-0.002357483,0.014373779,0,
00:07.0,-0.000646591,-0.002351761,0.014379501,0,
00:07.0,-0.000646591,-0.002346039,0.014368057,0,
00:07.0,-0.000652313,-0.002346039,0.014362335,0,
00:07.0,-0.000646591,-0.002357483,0.014373779,0,
00:07.0,-0.000612259,-0.002363205,0.014379501,0,
00:07.0,-0.000629425,-0.002363205,0.014368057,0,
00:07.0,-0.000640869,-0.002374649,0.014362335,0,
00:07.0,-0.000669479,-0.002351761,0.014368057,0,
00:07.0,-0.000663757,-0.002351761,0.014373779,0,
00:07.0,-0.000658035,-0.002346039,0.014379501,0,
00:07.0,-0.000658035,-0.002351761,0.014390945,0,
00:07.0,-0.000652313,-0.002368927,0.014362335,0,
00:00:07,-0.000652313,-0.002351761,0.014368057,0,
00:07.0,-0.000658035,-0.002368927,0.014385223,0,
00:07.0,-0.000658035,-0.002374649,0.01440239,0,
00:07.0,-0.000658035,-0.002363205,0.014385223,0,
00:07.0,-0.000652313,-0.002328873,0.014385223,0,
00:07.0,-0.000640869,-0.002334595,0.014379501,0,
00:07.0,-0.000652313,-0.002346039,0.014390945,0,
00:07.0,-0.000669479,-0.002357483,0.014373779,0,
00:07.0,-0.000663757,-0.002357483,0.014390945,0,
00:07.0,-0.000646591,-0.002351761,0.014373779,0,
00:07.0,-0.000640869,-0.002346039,0.014362335,0,
00:07.0,-0.000646591,-0.002351761,0.014390945,0,
00:07.0,-0.000652313,-0.002363205,0.014390945,0,
00:07.1,-0.000658035,-0.002357483,0.014385223,0,
00:07.1,-0.000652313,-0.002340317,0.014390945,0,
00:07.1,-0.000652313,-0.002346039,0.014396667,0,
00:07.1,-0.000652313,-0.002351761,0.014379501,0,
00:07.1,-0.000623703,-0.002368927,0.014379501,0,
00:07.1,-0.000658035,-0.002374649,0.014396667,0,
00:07.1,-0.000669479,-0.002351761,0.014396667,0,
00:07.1,-0.000646591,-0.002357483,0.014390945,0,
00:07.1,-0.000612259,-0.002340317,0.014373779,0,
00:07.1,-0.000663757,-0.002346039,0.014379501,0,
00:07.1,-0.000680923,-0.002357483,0.014390945,0,
00:07.1,-0.000663757,-0.002357483,0.014396667,0,
00:07.1,-0.000652313,-0.002357483,0.014396667,0,
00:07.1,-0.000652313,-0.002351761,0.014379501,0,
00:07.1,-0.000663757,-0.002357483,0.014385223,0,
00:07.1,-0.000658035,-0.002357483,0.014396667,0,
00:07.1,-0.000652313,-0.002351761,0.014396667,0,
00:07.1,-0.000669479,-0.002357483,0.014390945,0,
00:07.1,-0.000658035,-0.002363205,0.014373779,0,
00:07.1,-0.000640869,-0.002351761,0.014390945,0,
00:07.1,-0.000640869,-0.002346039,0.014390945,0,
00:07.1,-0.000646591,-0.002363205,0.014396667,0,
00:07.1,-0.000652313,-0.002374649,0.01440239,0,
00:07.1,-0.000663757,-0.002363205,0.014385223,0,
00:07.1,-0.000658035,-0.002340317,0.014379501,0,
00:07.2,-0.000652313,-0.002340317,0.01440239,0,
00:07.2,-0.000640869,-0.002357483,0.014396667,0,
00:07.2,-0.000635147,-0.002357483,0.014390945,0,
00:07.2,-0.000669479,-0.002346039,0.014390945,0,
00:07.2,-0.000658035,-0.002346039,0.014396667,0,
00:07.2,-0.000658035,-0.002351761,0.014390945,0,
00:07.2,-0.000663757,-0.002351761,0.014396667,0,
00:07.2,-0.000663757,-0.002351761,0.014373779,0,
00:07.2,-0.000652313,-0.002351761,0.014379501,0,
00:07.2,-0.000652313,-0.002357483,0.014396667,0,
00:07.2,-0.000658035,-0.002351761,0.014385223,0,
00:07.2,-0.000658035,-0.002363205,0.014379501,0,
00:07.2,-0.000652313,-0.002357483,0.014408112,0,
00:07.2,-0.000623703,-0.002363205,0.014390945,0,
00:07.2,-0.000669479,-0.002363205,0.014385223,0,
00:07.2,-0.000669479,-0.002357483,0.014385223,0,
00:07.2,-0.000658035,-0.002351761,0.014390945,0,
00:07.2,-0.000658035,-0.002351761,0.014379501,0,
00:07.2,-0.000652313,-0.002357483,0.014390945,0,
00:07.2,-0.000652313,-0.002351761,0.014396667,0,
00:07.2,-0.000663757,-0.002351761,0.01440239,0,
00:07.2,-0.000663757,-0.002351761,0.014385223,0,
00:07.2,-0.000658035,-0.002363205,0.014385223,0,
00:07.2,-0.000646591,-0.002351761,0.014385223,0,
00:07.2,-0.000646591,-0.002351761,0.01440239,0,
00:07.3,-0.000680923,-0.002357483,0.01440239,0,
00:07.3,-0.000658035,-0.002351761,0.014390945,0,
00:07.3,-0.000652313,-0.002346039,0.014368057,0,
00:07.3,-0.000663757,-0.002357483,0.014390945,0,
00:07.3,-0.000658035,-0.002363205,0.01440239,0,
00:07.3,-0.000663757,-0.002363205,0.01440239,0,
00:07.3,-0.000658035,-0.002357483,0.014390945,0,
00:07.3,-0.000658035,-0.002351761,0.014379501,0,
00:07.3,-0.000675201,-0.002340317,0.014385223,0,
00:07.3,-0.000675201,-0.002351761,0.014385223,0,
00:07.3,-0.000652313,-0.002368927,0.014379501,0,
00:07.3,-0.000617981,-0.002368927,0.014396667,0,
00:07.3,-0.000652313,-0.002351761,0.014390945,0,
00:07.3,-0.000686646,-0.002357483,0.014385223,0,
00:07.3,-0.000669479,-0.002340317,0.014396667,0,
00:07.3,-0.000663757,-0.002351761,0.014396667,0,
00:07.3,-0.000658035,-0.002380371,0.014379501,0,
00:07.3,-0.000663757,-0.002368927,0.014385223,0,
00:07.3,-0.000669479,-0.002357483,0.014396667,0,
00:07.3,-0.000669479,-0.002334595,0.01440239,0,
00:07.3,-0.000663757,-0.002346039,0.014390945,0,
00:07.3,-0.000635147,-0.002351761,0.014385223,0,
00:07.3,-0.000652313,-0.002351761,0.014373779,0,
00:07.3,-0.000686646,-0.002351761,0.014390945,0,
00:07.3,-0.000669479,-0.002351761,0.014390945,0,
00:07.4,-0.000669479,-0.002351761,0.014396667,0,
00:07.4,-0.000669479,-0.002351761,0.014390945,0,
00:07.4,-0.000663757,-0.002357483,0.014396667,0,
00:07.4,-0.000675201,-0.002357483,0.014385223,0,
00:07.4,-0.000663757,-0.002351761,0.01440239,0,
00:07.4,-0.000646591,-0.002357483,0.014390945,0,
00:07.4,-0.000658035,-0.002363205,0.014390945,0,
00:07.4,-0.000663757,-0.002368927,0.014362335,0,
00:07.4,-0.000669479,-0.002351761,0.014390945,0,
00:07.4,-0.000663757,-0.002351761,0.014396667,0,
00:07.4,-0.000663757,-0.002340317,0.014413834,0,
00:07.4,-0.000658035,-0.002351761,0.014396667,0,
00:07.4,-0.000652313,-0.002368927,0.014379501,0,
00:07.4,-0.000635147,-0.002351761,0.014368057,0,
00:07.4,-0.000686646,-0.002351761,0.014408112,0,
00:07.4,-0.000692368,-0.002363205,0.014408112,0,
00:07.4,-0.000675201,-0.002351761,0.014390945,0,
00:07.4,-0.000669479,-0.002351761,0.014390945,0,
00:07.4,-0.000652313,-0.002346039,0.014373779,0,
00:07.4,-0.000658035,-0.002346039,0.014385223,0,
00:07.4,-0.000692368,-0.002357483,0.014396667,0,
00:07.4,-0.000675201,-0.002351761,0.014379501,0,
00:07.4,-0.000663757,-0.002351761,0.014385223,0,
00:07.4,-0.000675201,-0.002357483,0.014390945,0,
00:07.4,-0.000686646,-0.002363205,0.01440239,0,
00:07.5,-0.000663757,-0.002346039,0.014385223,0,
00:07.5,-0.000658035,-0.002351761,0.014385223,0,
00:07.5,-0.000663757,-0.002351761,0.014390945,0,
00:07.5,-0.000669479,-0.002351761,0.014385223,0,
00:07.5,-0.000675201,-0.002357483,0.014379501,0,
00:07.5,-0.000669479,-0.002357483,0.014396667,0,
00:07.5,-0.000680923,-0.002357483,0.014390945,0,
00:07.5,-0.000663757,-0.002340317,0.014379501,0,
00:07.5,-0.000669479,-0.002351761,0.014396667,0,
00:07.5,-0.000680923,-0.002357483,0.01440239,0,
00:07.5,-0.000680923,-0.002363205,0.01440239,0,
00:07.5,-0.000675201,-0.002357483,0.014396667,0,
00:07.5,-0.000669479,-0.002351761,0.014385223,0,
00:07.5,-0.000669479,-0.002351761,0.014379501,0,
00:07.5,-0.000680923,-0.002368927,0.014385223,0,
00:07.5,-0.000680923,-0.002357483,0.014385223,0,
00:07.5,-0.000658035,-0.002346039,0.014379501,0,
00:07.5,-0.000675201,-0.002357483,0.014379501,0,
00:07.5,-0.000703812,-0.002363205,0.014390945,0,
00:07.5,-0.000686646,-0.002368927,0.014390945,0,
00:07.5,-0.000669479,-0.002374649,0.014379501,0,
00:07.5,-0.000663757,-0.002363205,0.014379501,0,
00:07.5,-0.000675201,-0.002351761,0.014390945,0,
00:07.5,-0.000669479,-0.002351761,0.014390945,0,
00:07.5,-0.000675201,-0.002357483,0.014390945,0,
00:07.6,-0.000675201,-0.002351761,0.014379501,0,
00:07.6,-0.000646591,-0.002346039,0.014390945,0,
00:07.6,-0.000646591,-0.002346039,0.014385223,0,
00:07.6,-0.000703812,-0.002357483,0.014379501,0,
00:07.6,-0.000692368,-0.002357483,0.014368057,0,
00:07.6,-0.000680923,-0.002351761,0.014368057,0,
00:07.6,-0.000675201,-0.002357483,0.014390945,0,
00:07.6,-0.000680923,-0.002363205,0.014385223,0,
00:07.6,-0.000675201,-0.002351761,0.014385223,0,
00:07.6,-0.000680923,-0.002351761,0.014385223,0,
00:07.6,-0.000686646,-0.002363205,0.014385223,0,
00:07.6,-0.000692368,-0.002357483,0.014373779,0,
00:07.6,-0.000686646,-0.002357483,0.014356613,0,
00:07.6,-0.000652313,-0.002363205,0.014379501,0,
00:07.6,-0.000640869,-0.002386093,0.014385223,0,
00:07.6,-0.000686646,-0.002363205,0.014373779,0,
00:07.6,-0.000686646,-0.002334595,0.014379501,0,
00:07.6,-0.000680923,-0.002363205,0.014379501,0,
00:07.6,-0.000680923,-0.002346039,0.014379501,0,
00:07.6,-0.000680923,-0.002357483,0.014362335,0,
00:07.6,-0.000669479,-0.002368927,0.014373779,0,
00:07.6,-0.000646591,-0.002351761,0.014373779,0,
00:07.6,-0.000663757,-0.002346039,0.014373779,0,
00:07.6,-0.000703812,-0.002357483,0.014368057,0,
00:07.6,-0.000686646,-0.002363205,0.014373779,0,
00:07.7,-0.000680923,-0.002351761,0.014379501,0,
00:07.7,-0.000680923,-0.002351761,0.014368057,0,
00:07.7,-0.000686646,-0.002368927,0.014368057,0,
00:07.7,-0.000680923,-0.002357483,0.014368057,0,
00:07.7,-0.000680923,-0.002357483,0.014373779,0,
00:07.7,-0.000686646,-0.002368927,0.014345169,0,
00:07.7,-0.000686646,-0.002346039,0.014356613,0,
00:07.7,-0.000686646,-0.002346039,0.014379501,0,
00:07.7,-0.000686646,-0.002351761,0.014379501,0,
00:07.7,-0.000669479,-0.002363205,0.014362335,0,
00:07.7,-0.000652313,-0.002351761,0.014368057,0,
00:07.7,-0.000652313,-0.002357483,0.014379501,0,
00:07.7,-0.000703812,-0.002357483,0.014373779,0,
00:07.7,-0.00069809,-0.002351761,0.014368057,0,
00:07.7,-0.000680923,-0.002351761,0.014368057,0,
00:07.7,-0.000686646,-0.002351761,0.014362335,0,
00:07.7,-0.000675201,-0.002357483,0.014362335,0,
00:07.7,-0.000686646,-0.002363205,0.014356613,0,
00:07.7,-0.000686646,-0.002363205,0.014356613,0,
00:07.7,-0.000686646,-0.002357483,0.014373779,0,
00:07.7,-0.000686646,-0.002357483,0.014373779,0,
00:07.7,-0.000680923,-0.002357483,0.014385223,0,
00:07.7,-0.000686646,-0.002357483,0.014362335,0,
00:07.7,-0.000686646,-0.002357483,0.014356613,0,
00:07.7,-0.000686646,-0.002368927,0.014368057,0,
00:07.8,-0.000680923,-0.002380371,0.014356613,0,
00:07.8,-0.000692368,-0.002340317,0.014368057,0,
00:07.8,-0.000692368,-0.002346039,0.014356613,0,
00:07.8,-0.000680923,-0.002363205,0.014356613,0,
00:07.8,-0.000680923,-0.002368927,0.014362335,0,
00:07.8,-0.000686646,-0.002368927,0.014379501,0,
00:07.8,-0.000686646,-0.002351761,0.014362335,0,
00:07.8,-0.000663757,-0.002357483,0.014362335,0,
00:07.8,-0.000680923,-0.002351761,0.014368057,0,
00:07.8,-0.000663757,-0.002357483,0.014362335,0,
00:07.8,-0.00069809,-0.002363205,0.014368057,0,
00:07.8,-0.000715256,-0.002368927,0.014356613,0,
00:07.8,-0.000680923,-0.002357483,0.014356613,0,
00:07.8,-0.000686646,-0.002346039,0.014362335,0,
00:07.8,-0.000686646,-0.002351761,0.014362335,0,
00:07.8,-0.000686646,-0.002357483,0.014356613,0,
00:07.8,-0.000686646,-0.002363205,0.014356613,0,
00:07.8,-0.000692368,-0.002357483,0.014362335,0,
00:07.8,-0.000692368,-0.002346039,0.014356613,0,
00:07.8,-0.000692368,-0.002351761,0.014350891,0,
00:07.8,-0.000686646,-0.002351761,0.014350891,0,
00:07.8,-0.000686646,-0.002363205,0.014356613,0,
00:07.8,-0.000703812,-0.002357483,0.014356613,0,
00:07.8,-0.000703812,-0.002363205,0.014350891,0,
00:07.8,-0.000680923,-0.002351761,0.014356613,0,
00:07.9,-0.000680923,-0.002357483,0.014350891,0,
00:07.9,-0.000686646,-0.002363205,0.014356613,0,
00:07.9,-0.000692368,-0.002357483,0.014356613,0,
00:07.9,-0.000675201,-0.002363205,0.014339447,0,
00:07.9,-0.000658035,-0.002363205,0.014350891,0,
00:07.9,-0.00069809,-0.002346039,0.014356613,0,
00:07.9,-0.000703812,-0.002346039,0.014362335,0,
00:07.9,-0.000692368,-0.002357483,0.014345169,0,
00:07.9,-0.000692368,-0.002363205,0.014345169,0,
00:07.9,-0.000692368,-0.002357483,0.014362335,0,
00:07.9,-0.00069809,-0.002368927,0.014356613,0,
00:07.9,-0.00069809,-0.002363205,0.014339447,0,
00:07.9,-0.00069809,-0.002340317,0.014345169,0,
00:07.9,-0.000675201,-0.002334595,0.014333725,0,
00:07.9,-0.000646591,-0.002351761,0.014345169,0,
00:07.9,-0.000709534,-0.002357483,0.014356613,0,
00:07.9,-0.000720978,-0.002351761,0.014350891,0,
00:07.9,-0.000715256,-0.002357483,0.014333725,0,
00:07.9,-0.000680923,-0.002357483,0.014350891,0,
00:07.9,-0.000680923,-0.002346039,0.014345169,0,
00:07.9,-0.00069809,-0.002357483,0.014339447,0,
00:07.9,-0.00069809,-0.002363205,0.014350891,0,
00:07.9,-0.000692368,-0.002380371,0.014350891,0,
00:07.9,-0.000680923,-0.002363205,0.014328003,0,
00:07.9,-0.000675201,-0.002340317,0.014339447,0,
00:08.0,-0.000709534,-0.002351761,0.014350891,0,
00:08.0,-0.000703812,-0.002363205,0.014333725,0,
00:08.0,-0.000692368,-0.002357483,0.014328003,0,
00:08.0,-0.000692368,-0.002363205,0.014345169,0,
00:08.0,-0.000703812,-0.002374649,0.014350891,0,
00:08.0,-0.00069809,-0.002363205,0.014356613,0,
00:08.0,-0.00069809,-0.002346039,0.014345169,0,
00:08.0,-0.00069809,-0.002357483,0.014345169,0,
00:08.0,-0.000703812,-0.002368927,0.014328003,0,
00:08.0,-0.000692368,-0.002357483,0.014339447,0,
00:08.0,-0.00069809,-0.002357483,0.014345169,0,
00:08.0,-0.000709534,-0.002357483,0.014328003,0,
00:00:08,-0.000680923,-0.002357483,0.014316559,0,
00:08.0,-0.000686646,-0.002357483,0.014350891,0,
00:08.0,-0.00069809,-0.002357483,0.014356613,0,
00:08.0,-0.000675201,-0.002357483,0.014356613,0,
00:08.0,-0.000658035,-0.002346039,0.014345169,0,
00:08.0,-0.000709534,-0.002363205,0.014328003,0,
00:08.0,-0.000715256,-0.002368927,0.014328003,0,
00:08.0,-0.00069809,-0.002351761,0.014345169,0,
00:08.0,-0.00069809,-0.002374649,0.014339447,0,
00:08.0,-0.000692368,-0.002374649,0.014333725,0,
00:08.0,-0.000675201,-0.002351761,0.014328003,0,
00:08.0,-0.000703812,-0.002363205,0.014345169,0,
00:08.0,-0.00069809,-0.002334595,0.014339447,0,
00:08.1,-0.00069809,-0.002334595,0.014310837,0,
00:08.1,-0.000703812,-0.002363205,0.014328003,0,
00:08.1,-0.000703812,-0.002368927,0.014350891,0,
00:08.1,-0.00069809,-0.002363205,0.014345169,0,
00:08.1,-0.00069809,-0.002363205,0.014328003,0,
00:08.1,-0.00069809,-0.002357483,0.014339447,0,
00:08.1,-0.000709534,-0.002357483,0.014333725,0,
00:08.1,-0.000715256,-0.002374649,0.014328003,0,
00:08.1,-0.000686646,-0.002386093,0.014322281,0,
00:08.1,-0.000692368,-0.002368927,0.014328003,0,
00:08.1,-0.00069809,-0.002346039,0.014339447,0,
00:08.1,-0.000703812,-0.002357483,0.014328003,0,
00:08.1,-0.00069809,-0.002351761,0.014316559,0,
00:08.1,-0.00069809,-0.002357483,0.014322281,0,
00:08.1,-0.000680923,-0.002368927,0.014333725,0,
00:08.1,-0.000669479,-0.002363205,0.014333725,0,
00:08.1,-0.000715256,-0.002351761,0.014333725,0,
00:08.1,-0.000715256,-0.002363205,0.014333725,0,
00:08.1,-0.000703812,-0.002346039,0.014316559,0,
00:08.1,-0.000692368,-0.002357483,0.014316559,0,
00:08.1,-0.000669479,-0.002368927,0.014333725,0,
00:08.1,-0.00069809,-0.002357483,0.014333725,0,
00:08.1,-0.000715256,-0.002357483,0.014333725,0,
00:08.1,-0.000715256,-0.002357483,0.014316559,0,
00:08.1,-0.000703812,-0.002363205,0.014328003,0,
00:08.2,-0.00069809,-0.002357483,0.014316559,0,
00:08.2,-0.000703812,-0.002357483,0.014316559,0,
00:08.2,-0.000709534,-0.002357483,0.014305115,0,
00:08.2,-0.000686646,-0.002351761,0.014328003,0,
00:08.2,-0.000692368,-0.002357483,0.014333725,0,
00:08.2,-0.00069809,-0.002357483,0.014322281,0,
00:08.2,-0.000709534,-0.002357483,0.014316559,0,
00:08.2,-0.000709534,-0.002363205,0.014322281,0,
00:08.2,-0.000703812,-0.002363205,0.014316559,0,
00:08.2,-0.000692368,-0.002363205,0.014322281,0,
00:08.2,-0.000703812,-0.002357483,0.014316559,0,
00:08.2,-0.000703812,-0.002363205,0.014305115,0,
00:08.2,-0.00069809,-0.002374649,0.014310837,0,
00:08.2,-0.000703812,-0.002346039,0.014305115,0,
00:08.2,-0.00069809,-0.002334595,0.014316559,0,
00:08.2,-0.000669479,-0.002357483,0.014322281,0,
00:08.2,-0.000692368,-0.002351761,0.014316559,0,
00:08.2,-0.000686646,-0.002363205,0.014316559,0,
00:08.2,-0.000703812,-0.002368927,0.014299393,0,
00:08.2,-0.0007267,-0.002363205,0.014316559,0,
00:08.2,-0.000709534,-0.002368927,0.014322281,0,
00:08.2,-0.000703812,-0.002363205,0.014310837,0,
00:08.2,-0.000703812,-0.002363205,0.014299393,0,
00:08.2,-0.000715256,-0.002340317,0.014293671,0,
00:08.2,-0.000703812,-0.002351761,0.014305115,0,
00:08.3,-0.00069809,-0.002357483,0.014322281,0,
00:08.3,-0.00069809,-0.002351761,0.014293671,0,
00:08.3,-0.000703812,-0.002363205,0.014299393,0,
00:08.3,-0.000709534,-0.002357483,0.014305115,0,
00:08.3,-0.000703812,-0.002363205,0.014299393,0,
00:08.3,-0.000686646,-0.002357483,0.014305115,0,
00:08.3,-0.000692368,-0.002351761,0.014316559,0,
00:08.3,-0.000703812,-0.002363205,0.014293671,0,
00:08.3,-0.000709534,-0.002374649,0.014299393,0,
00:08.3,-0.00069809,-0.002357483,0.014293671,0,
00:08.3,-0.000692368,-0.002346039,0.014299393,0,
00:08.3,-0.00069809,-0.002368927,0.014293671,0,
00:08.3,-0.000669479,-0.002368927,0.014305115,0,
00:08.3,-0.00069809,-0.002363205,0.014316559,0,
00:08.3,-0.000720978,-0.002357483,0.014293671,0,
00:08.3,-0.000703812,-0.002363205,0.014293671,0,
00:08.3,-0.000703812,-0.002368927,0.014299393,0,
00:08.3,-0.000715256,-0.002363205,0.014293671,0,
00:08.3,-0.000715256,-0.002357483,0.014299393,0,
00:08.3,-0.000658035,-0.002351761,0.014293671,0,
00:08.3,-0.000686646,-0.002351761,0.014293671,0,
00:08.3,-0.000720978,-0.002346039,0.014299393,0,
00:08.3,-0.000709534,-0.002357483,0.014276505,0,
00:08.3,-0.000709534,-0.002368927,0.014282227,0,
00:08.3,-0.000703812,-0.002363205,0.014299393,0,
00:08.4,-0.000709534,-0.002368927,0.014310837,0,
00:08.4,-0.000709534,-0.002357483,0.014299393,0,
00:08.4,-0.000715256,-0.002357483,0.014299393,0,
00:08.4,-0.000703812,-0.002351761,0.014293671,0,
00:08.4,-0.00069809,-0.002351761,0.014287949,0,
00:08.4,-0.000703812,-0.002357483,0.014293671,0,
00:08.4,-0.000703812,-0.002363205,0.014293671,0,
00:08.4,-0.00069809,-0.002357483,0.014270782,0,
00:08.4,-0.000680923,-0.002363205,0.014293671,0,
00:08.4,-0.000715256,-0.002351761,0.014305115,0,
00:08.4,-0.000720978,-0.002351761,0.014287949,0,
00:08.4,-0.000709534,-0.002363205,0.014299393,0,
00:08.4,-0.000709534,-0.002363205,0.014287949,0,
00:08.4,-0.000715256,-0.002368927,0.014287949,0,
00:08.4,-0.000720978,-0.002357483,0.014299393,0,
00:08.4,-0.00069809,-0.002363205,0.014287949,0,
00:08.4,-0.000663757,-0.002368927,0.014293671,0,
00:08.4,-0.000703812,-0.002351761,0.014282227,0,
00:08.4,-0.0007267,-0.002357483,0.014276505,0,
00:08.4,-0.000715256,-0.002380371,0.014287949,0,
00:08.4,-0.000709534,-0.002340317,0.014293671,0,
00:08.4,-0.000709534,-0.002357483,0.014282227,0,
00:08.4,-0.000709534,-0.002357483,0.014276505,0,
00:08.4,-0.000709534,-0.002351761,0.01426506,0,
00:08.4,-0.000703812,-0.002351761,0.014293671,0,
00:08.5,-0.000715256,-0.002363205,0.014299393,0,
00:08.5,-0.000709534,-0.002368927,0.014287949,0,
00:08.5,-0.000715256,-0.002363205,0.014270782,0,
00:08.5,-0.000715256,-0.002363205,0.014276505,0,
00:08.5,-0.000709534,-0.002368927,0.014287949,0,
00:08.5,-0.000703812,-0.002363205,0.014270782,0,
00:08.5,-0.000703812,-0.002363205,0.014287949,0,
00:08.5,-0.000675201,-0.002351761,0.014282227,0,
00:08.5,-0.00069809,-0.002351761,0.014282227,0,
00:08.5,-0.000743866,-0.002357483,0.014282227,0,
00:08.5,-0.0007267,-0.002351761,0.014282227,0,
00:08.5,-0.000709534,-0.002380371,0.014270782,0,
00:08.5,-0.000709534,-0.002368927,0.014282227,0,
00:08.5,-0.000709534,-0.002351761,0.014270782,0,
00:08.5,-0.000703812,-0.002357483,0.014270782,0,
00:08.5,-0.000703812,-0.002346039,0.014287949,0,
00:08.5,-0.000703812,-0.002346039,0.014270782,0,
00:08.5,-0.000703812,-0.002357483,0.01426506,0,
00:08.5,-0.000692368,-0.002368927,0.014282227,0,
00:08.5,-0.000675201,-0.002363205,0.014270782,0,
00:08.5,-0.0007267,-0.002368927,0.014259338,0,
00:08.5,-0.000715256,-0.002351761,0.014259338,0,
00:08.5,-0.000715256,-0.002357483,0.014287949,0,
00:08.5,-0.000720978,-0.002368927,0.014270782,0,
00:08.5,-0.000715256,-0.002357483,0.014287949,0,
00:08.6,-0.000709534,-0.002368927,0.01426506,0,
00:08.6,-0.000715256,-0.002380371,0.01426506,0,
00:08.6,-0.000709534,-0.002368927,0.014270782,0,
00:08.6,-0.000715256,-0.002374649,0.014270782,0,
00:08.6,-0.000715256,-0.002363205,0.014276505,0,
00:08.6,-0.00069809,-0.002363205,0.014276505,0,
00:08.6,-0.000669479,-0.002363205,0.014276505,0,
00:08.6,-0.00069809,-0.002340317,0.014270782,0,
00:08.6,-0.000732422,-0.002351761,0.014259338,0,
00:08.6,-0.000715256,-0.002363205,0.014253616,0,
00:08.6,-0.000715256,-0.002363205,0.01426506,0,
00:08.6,-0.000709534,-0.002357483,0.014276505,0,
00:08.6,-0.000709534,-0.002357483,0.014276505,0,
00:08.6,-0.000703812,-0.002357483,0.014253616,0,
00:08.6,-0.00069809,-0.002357483,0.014270782,0,
00:08.6,-0.000715256,-0.002357483,0.014276505,0,
00:08.6,-0.000715256,-0.002357483,0.01426506,0,
00:08.6,-0.000709534,-0.002363205,0.01426506,0,
00:08.6,-0.000709534,-0.002363205,0.014253616,0,
00:08.6,-0.000703812,-0.002357483,0.01426506,0,
00:08.6,-0.000715256,-0.002374649,0.014276505,0,
00:08.6,-0.000692368,-0.002380371,0.014270782,0,
00:08.6,-0.000669479,-0.002351761,0.014253616,0,
00:08.6,-0.000732422,-0.002368927,0.01426506,0,
00:08.6,-0.000738144,-0.002391815,0.014259338,0,
00:08.7,-0.000720978,-0.002386093,0.014276505,0,
00:08.7,-0.000703812,-0.002386093,0.01426506,0,
00:08.7,-0.000703812,-0.002346039,0.014253616,0,
00:08.7,-0.000680923,-0.002340317,0.01426506,0,
00:08.7,-0.000692368,-0.002346039,0.01426506,0,
00:08.7,-0.0007267,-0.002368927,0.01426506,0,
00:08.7,-0.000709534,-0.002363205,0.014270782,0,
00:08.7,-0.000715256,-0.002368927,0.014276505,0,
00:08.7,-0.000715256,-0.002368927,0.014270782,0,
00:08.7,-0.000715256,-0.002374649,0.014259338,0,
00:08.7,-0.000703812,-0.002368927,0.014253616,0,
00:08.7,-0.000703812,-0.002351761,0.014276505,0,
00:08.7,-0.000703812,-0.002346039,0.014253616,0,
00:08.7,-0.000703812,-0.002357483,0.014253616,0,
00:08.7,-0.000715256,-0.002368927,0.014259338,0,
00:08.7,-0.000715256,-0.002374649,0.014259338,0,
00:08.7,-0.000720978,-0.002380371,0.014270782,0,
00:08.7,-0.000709534,-0.002374649,0.014259338,0,
00:08.7,-0.000709534,-0.002368927,0.014253616,0,
00:08.7,-0.000720978,-0.002351761,0.01426506,0,
00:08.7,-0.000709534,-0.002351761,0.014247894,0,
00:08.7,-0.00069809,-0.002374649,0.014259338,0,
00:08.7,-0.000709534,-0.002374649,0.01426506,0,
00:08.7,-0.000703812,-0.002363205,0.014253616,0,
00:08.7,-0.000715256,-0.002368927,0.014247894,0,
00:08.8,-0.000709534,-0.002363205,0.014259338,0,
00:08.8,-0.000703812,-0.002368927,0.014253616,0,
00:08.8,-0.000680923,-0.002368927,0.01426506,0,
00:08.8,-0.000709534,-0.002368927,0.014253616,0,
00:08.8,-0.0007267,-0.002374649,0.014253616,0,
00:08.8,-0.000720978,-0.002374649,0.014253616,0,
00:08.8,-0.000715256,-0.002357483,0.014253616,0,
00:08.8,-0.000703812,-0.002363205,0.014247894,0,
00:08.8,-0.000703812,-0.002368927,0.014253616,0,
00:08.8,-0.000715256,-0.002357483,0.014242172,0,
00:08.8,-0.000715256,-0.002386093,0.014253616,0,
00:08.8,-0.000715256,-0.002391815,0.014259338,0,
00:08.8,-0.000709534,-0.002363205,0.014242172,0,
00:08.8,-0.000720978,-0.002374649,0.01426506,0,
00:08.8,-0.000720978,-0.002357483,0.014259338,0,
00:08.8,-0.0007267,-0.002363205,0.014253616,0,
00:08.8,-0.000703812,-0.002368927,0.014247894,0,
00:08.8,-0.000703812,-0.002363205,0.014247894,0,
00:08.8,-0.000715256,-0.002363205,0.014253616,0,
00:08.8,-0.000715256,-0.002374649,0.014253616,0,
00:08.8,-0.000703812,-0.002374649,0.014247894,0,
00:08.8,-0.000675201,-0.002363205,0.014247894,0,
00:08.8,-0.00069809,-0.002363205,0.014247894,0,
00:08.8,-0.000738144,-0.002374649,0.014259338,0,
00:08.8,-0.000732422,-0.002391815,0.014247894,0,
00:08.9,-0.000720978,-0.002380371,0.014247894,0,
00:08.9,-0.000709534,-0.002357483,0.01423645,0,
00:08.9,-0.000715256,-0.002351761,0.014242172,0,
00:08.9,-0.000715256,-0.002374649,0.014253616,0,
00:08.9,-0.000703812,-0.002380371,0.014247894,0,
00:08.9,-0.00069809,-0.002380371,0.014242172,0,
00:08.9,-0.000720978,-0.002357483,0.014253616,0,
00:08.9,-0.0007267,-0.002363205,0.014242172,0,
00:08.9,-0.000732422,-0.002363205,0.01423645,0,
00:08.9,-0.0007267,-0.002380371,0.014242172,0,
00:08.9,-0.000703812,-0.002368927,0.014247894,0,
00:08.9,-0.000709534,-0.002363205,0.01423645,0,
00:08.9,-0.000720978,-0.002363205,0.01423645,0,
00:08.9,-0.000715256,-0.002368927,0.014247894,0,
00:08.9,-0.000709534,-0.002363205,0.014242172,0,
00:08.9,-0.000715256,-0.002368927,0.01423645,0,
00:08.9,-0.000715256,-0.002363205,0.01423645,0,
00:08.9,-0.000715256,-0.002386093,0.014247894,0,
00:08.9,-0.000715256,-0.002374649,0.01423645,0,
00:08.9,-0.000715256,-0.002357483,0.01423645,0,
00:08.9,-0.000715256,-0.002368927,0.01423645,0,
00:08.9,-0.000709534,-0.002357483,0.014242172,0,
00:08.9,-0.000720978,-0.002351761,0.014213562,0,
00:08.9,-0.000720978,-0.002386093,0.014225006,0,
00:08.9,-0.000720978,-0.002386093,0.014230728,0,
00:09.0,-0.000715256,-0.002357483,0.014230728,0,
00:09.0,-0.00069809,-0.002346039,0.014247894,0,
00:09.0,-0.000709534,-0.002363205,0.014225006,0,
00:09.0,-0.000743866,-0.002380371,0.014225006,0,
00:09.0,-0.000720978,-0.002368927,0.014247894,0,
00:09.0,-0.000680923,-0.002351761,0.01423645,0,
00:09.0,-0.000692368,-0.002368927,0.014230728,0,
00:09.0,-0.000738144,-0.002380371,0.014225006,0,
00:09.0,-0.0007267,-0.002368927,0.014230728,0,
00:09.0,-0.000715256,-0.002368927,0.01423645,0,
00:09.0,-0.000715256,-0.002368927,0.01423645,0,
00:09.0,-0.000720978,-0.002380371,0.01423645,0,
00:00:09,-0.000720978,-0.002368927,0.014219284,0,
00:09.0,-0.0007267,-0.002368927,0.014213562,0,
00:09.0,-0.000720978,-0.002368927,0.014230728,0,
00:09.0,-0.000715256,-0.002374649,0.014225006,0,
00:09.0,-0.000715256,-0.002357483,0.014225006,0,
00:09.0,-0.0007267,-0.002368927,0.01423645,0,
00:09.0,-0.000720978,-0.002374649,0.01423645,0,
00:09.0,-0.000715256,-0.002374649,0.01423645,0,
00:09.0,-0.000715256,-0.002363205,0.014230728,0,
00:09.0,-0.000692368,-0.002368927,0.014219284,0,
00:09.0,-0.000703812,-0.002346039,0.014219284,0,
00:09.0,-0.000732422,-0.002357483,0.014230728,0,
00:09.0,-0.000738144,-0.002368927,0.014242172,0,
00:09.1,-0.000743866,-0.002386093,0.01423645,0,
00:09.1,-0.000709534,-0.002380371,0.014225006,0,
00:09.1,-0.000709534,-0.002357483,0.014219284,0,
00:09.1,-0.000715256,-0.002340317,0.01420784,0,
00:09.1,-0.000720978,-0.002363205,0.01423645,0,
00:09.1,-0.000715256,-0.002363205,0.014230728,0,
00:09.1,-0.000720978,-0.002363205,0.014225006,0,
00:09.1,-0.000720978,-0.002374649,0.014219284,0,
00:09.1,-0.000715256,-0.002368927,0.014225006,0,
00:09.1,-0.0007267,-0.002363205,0.01423645,0,
00:09.1,-0.00069809,-0.002374649,0.01423645,0,
00:09.1,-0.000686646,-0.002368927,0.014219284,0,
00:09.1,-0.000738144,-0.002368927,0.014213562,0,
00:09.1,-0.000738144,-0.002386093,0.01423645,0,
00:09.1,-0.0007267,-0.002357483,0.014230728,0,
00:09.1,-0.0007267,-0.002357483,0.014225006,0,
00:09.1,-0.000720978,-0.002357483,0.014225006,0,
00:09.1,-0.000738144,-0.002363205,0.014230728,0,
00:09.1,-0.000715256,-0.002374649,0.01420784,0,
00:09.1,-0.000686646,-0.002368927,0.014213562,0,
00:09.1,-0.000709534,-0.002351761,0.014230728,0,
00:09.1,-0.000743866,-0.002351761,0.014225006,0,
00:09.1,-0.000720978,-0.002374649,0.014225006,0,
00:09.1,-0.000720978,-0.002374649,0.01423645,0,
00:09.1,-0.0007267,-0.002351761,0.01423645,0,
00:09.2,-0.0007267,-0.002363205,0.014225006,0,
00:09.2,-0.000720978,-0.002363205,0.014219284,0,
00:09.2,-0.000720978,-0.002368927,0.014225006,0,
00:09.2,-0.000720978,-0.002368927,0.014230728,0,
00:09.2,-0.0007267,-0.002368927,0.014225006,0,
00:09.2,-0.000738144,-0.002357483,0.014230728,0,
00:09.2,-0.0007267,-0.002363205,0.014213562,0,
00:09.2,-0.000720978,-0.002386093,0.014230728,0,
00:09.2,-0.000732422,-0.002374649,0.014225006,0,
00:09.2,-0.000720978,-0.002363205,0.014213562,0,
00:09.2,-0.000720978,-0.002380371,0.014219284,0,
00:09.2,-0.000720978,-0.002346039,0.014225006,0,
00:09.2,-0.000720978,-0.002351761,0.014225006,0,
00:09.2,-0.000720978,-0.002357483,0.014202118,0,
00:09.2,-0.0007267,-0.002357483,0.014219284,0,
00:09.2,-0.000709534,-0.002368927,0.014242172,0,
00:09.2,-0.000652313,-0.002374649,0.014230728,0,
00:09.2,-0.000732422,-0.002363205,0.014230728,0,
00:09.2,-0.00075531,-0.002351761,0.014225006,0,
00:09.2,-0.000738144,-0.002368927,0.014230728,0,
00:09.2,-0.0007267,-0.002363205,0.01423645,0,
00:09.2,-0.000720978,-0.002357483,0.014225006,0,
00:09.2,-0.0007267,-0.002368927,0.014219284,0,
00:09.2,-0.000738144,-0.002363205,0.014213562,0,
00:09.2,-0.0007267,-0.002363205,0.014230728,0,
00:09.3,-0.000732422,-0.002363205,0.014225006,0,
00:09.3,-0.000732422,-0.002363205,0.014230728,0,
00:09.3,-0.000732422,-0.002380371,0.014230728,0,
00:09.3,-0.000720978,-0.002374649,0.01420784,0,
00:09.3,-0.0007267,-0.002363205,0.014225006,0,
00:09.3,-0.0007267,-0.002351761,0.014225006,0,
00:09.3,-0.0007267,-0.002363205,0.014230728,0,
00:09.3,-0.000732422,-0.002368927,0.014213562,0,
00:09.3,-0.000720978,-0.002357483,0.014225006,0,
00:09.3,-0.000692368,-0.002368927,0.014202118,0,
00:09.3,-0.0007267,-0.002357483,0.014225006,0,
00:09.3,-0.000749588,-0.002368927,0.014247894,0,
00:09.3,-0.000749588,-0.002374649,0.014225006,0,
00:09.3,-0.000720978,-0.002357483,0.014225006,0,
00:09.3,-0.000715256,-0.002363205,0.014213562,0,
00:09.3,-0.000720978,-0.002357483,0.014190674,0,
00:09.3,-0.000686646,-0.002351761,0.014219284,0,
00:09.3,-0.000738144,-0.002374649,0.014230728,0,
00:09.3,-0.000743866,-0.002368927,0.014219284,0,
00:09.3,-0.000738144,-0.002351761,0.014213562,0,
00:09.3,-0.000732422,-0.002363205,0.014225006,0,
00:09.3,-0.0007267,-0.002368927,0.014219284,0,
00:09.3,-0.000732422,-0.002363205,0.014219284,0,
00:09.3,-0.000732422,-0.002363205,0.014213562,0,
00:09.3,-0.0007267,-0.002368927,0.014219284,0,
00:09.4,-0.000732422,-0.002368927,0.014219284,0,
00:09.4,-0.0007267,-0.002357483,0.014225006,0,
00:09.4,-0.000732422,-0.002346039,0.014213562,0,
00:09.4,-0.0007267,-0.002351761,0.014202118,0,
00:09.4,-0.000732422,-0.002357483,0.014190674,0,
00:09.4,-0.000738144,-0.002368927,0.014213562,0,
00:09.4,-0.000732422,-0.002380371,0.014213562,0,
00:09.4,-0.000732422,-0.002374649,0.014219284,0,
00:09.4,-0.000743866,-0.002368927,0.014219284,0,
00:09.4,-0.000720978,-0.002363205,0.014213562,0,
00:09.4,-0.00069809,-0.002368927,0.014202118,0,
00:09.4,-0.000720978,-0.002368927,0.014213562,0,
00:09.4,-0.000749588,-0.002368927,0.014219284,0,
00:09.4,-0.000743866,-0.002368927,0.014213562,0,
00:09.4,-0.000732422,-0.002351761,0.014225006,0,
00:09.4,-0.0007267,-0.002351761,0.014202118,0,
00:09.4,-0.000732422,-0.002368927,0.014202118,0,
00:09.4,-0.000732422,-0.002357483,0.014213562,0,
00:09.4,-0.0007267,-0.002357483,0.014213562,0,
00:09.4,-0.000732422,-0.002357483,0.014219284,0,
00:09.4,-0.000732422,-0.002357483,0.014213562,0,
00:09.4,-0.000732422,-0.002363205,0.014196396,0,
00:09.4,-0.000732422,-0.002363205,0.014219284,0,
00:09.4,-0.000732422,-0.002374649,0.014202118,0,
00:09.4,-0.000732422,-0.002368927,0.014213562,0,
00:09.5,-0.000732422,-0.002363205,0.014213562,0,
00:09.5,-0.00069809,-0.002368927,0.014213562,0,
00:09.5,-0.000732422,-0.002368927,0.014202118,0,
00:09.5,-0.000761032,-0.002351761,0.014202118,0,
00:09.5,-0.000720978,-0.002368927,0.014213562,0,
00:09.5,-0.0007267,-0.002374649,0.01420784,0,
00:09.5,-0.000761032,-0.002386093,0.01420784,0,
00:09.5,-0.000743866,-0.002368927,0.014213562,0,
00:09.5,-0.000732422,-0.002351761,0.014202118,0,
00:09.5,-0.0007267,-0.002357483,0.014219284,0,
00:09.5,-0.0007267,-0.002368927,0.01420784,0,
00:09.5,-0.0007267,-0.002368927,0.014202118,0,
00:09.5,-0.000743866,-0.002363205,0.01420784,0,
00:09.5,-0.000738144,-0.002363205,0.01420784,0,
00:09.5,-0.000732422,-0.002363205,0.014202118,0,
00:09.5,-0.000743866,-0.002374649,0.01420784,0,
00:09.5,-0.000738144,-0.002357483,0.014213562,0,
00:09.5,-0.000732422,-0.002363205,0.014213562,0,
00:09.5,-0.000732422,-0.002374649,0.014213562,0,
00:09.5,-0.000738144,-0.002357483,0.01420784,0,
00:09.5,-0.000738144,-0.002351761,0.014213562,0,
00:09.5,-0.0007267,-0.002357483,0.014219284,0,
00:09.5,-0.000738144,-0.002368927,0.01420784,0,
00:09.5,-0.000743866,-0.002363205,0.014196396,0,
00:09.5,-0.000732422,-0.002368927,0.014184952,0,
00:09.6,-0.000738144,-0.002386093,0.014213562,0,
00:09.6,-0.000738144,-0.002351761,0.014219284,0,
00:09.6,-0.000732422,-0.002351761,0.014202118,0,
00:09.6,-0.000692368,-0.002357483,0.014213562,0,
00:09.6,-0.000703812,-0.002368927,0.014225006,0,
00:09.6,-0.000761032,-0.002374649,0.014213562,0,
00:09.6,-0.000766754,-0.002374649,0.014213562,0,
00:09.6,-0.000738144,-0.002374649,0.014213562,0,
00:09.6,-0.000743866,-0.002374649,0.014219284,0,
00:09.6,-0.000738144,-0.002363205,0.01420784,0,
00:09.6,-0.000738144,-0.002363205,0.014196396,0,
00:09.6,-0.000738144,-0.002368927,0.014202118,0,
00:09.6,-0.000732422,-0.002357483,0.01420784,0,
00:09.6,-0.000738144,-0.002363205,0.014190674,0,
00:09.6,-0.000743866,-0.002380371,0.014213562,0,
00:09.6,-0.000743866,-0.002374649,0.014213562,0,
00:09.6,-0.000738144,-0.002346039,0.01420784,0,
00:09.6,-0.000738144,-0.002357483,0.014213562,0,
00:09.6,-0.000738144,-0.002357483,0.014202118,0,
00:09.6,-0.000738144,-0.002368927,0.01420784,0,
00:09.6,-0.000738144,-0.002368927,0.01420784,0,
00:09.6,-0.000743866,-0.002363205,0.01420784,0,
00:09.6,-0.000749588,-0.002363205,0.014202118,0,
00:09.6,-0.00075531,-0.002357483,0.014213562,0,
00:09.6,-0.000732422,-0.002380371,0.014213562,0,
00:09.7,-0.000709534,-0.002357483,0.014213562,0,
00:09.7,-0.000709534,-0.002357483,0.014196396,0,
00:09.7,-0.000749588,-0.002363205,0.01420784,0,
00:09.7,-0.000761032,-0.002374649,0.014202118,0,
00:09.7,-0.000743866,-0.002374649,0.014202118,0,
00:09.7,-0.000738144,-0.002357483,0.014202118,0,
00:09.7,-0.000743866,-0.002368927,0.014196396,0,
00:09.7,-0.000732422,-0.002368927,0.014219284,0,
00:09.7,-0.0007267,-0.002374649,0.014196396,0,
00:09.7,-0.000703812,-0.002363205,0.014202118,0,
00:09.7,-0.000761032,-0.002368927,0.01420784,0,
00:09.7,-0.00075531,-0.002374649,0.014202118,0,
00:09.7,-0.000743866,-0.002374649,0.014196396,0,
00:09.7,-0.000743866,-0.002363205,0.014202118,0,
00:09.7,-0.000749588,-0.002363205,0.01420784,0,
00:09.7,-0.000738144,-0.002363205,0.01420784,0,
00:09.7,-0.000738144,-0.002351761,0.014196396,0,
00:09.7,-0.000749588,-0.002351761,0.014196396,0,
00:09.7,-0.000743866,-0.002374649,0.014184952,0,
00:09.7,-0.000743866,-0.002374649,0.01420784,0,
00:09.7,-0.000761032,-0.002374649,0.01420784,0,
00:09.7,-0.000738144,-0.002363205,0.014196396,0,
00:09.7,-0.000720978,-0.002363205,0.014184952,0,
00:09.7,-0.000709534,-0.002368927,0.01420784,0,
00:09.7,-0.000738144,-0.002357483,0.01420784,0,
00:09.8,-0.00075531,-0.002357483,0.014202118,0,
00:09.8,-0.00075531,-0.002368927,0.014196396,0,
00:09.8,-0.00075531,-0.002386093,0.014184952,0,
00:09.8,-0.000738144,-0.002357483,0.014196396,0,
00:09.8,-0.000738144,-0.002351761,0.014190674,0,
00:09.8,-0.000743866,-0.002374649,0.014196396,0,
00:09.8,-0.000743866,-0.002374649,0.014202118,0,
00:09.8,-0.000749588,-0.002351761,0.014202118,0,
00:09.8,-0.000749588,-0.002351761,0.014196396,0,
00:09.8,-0.000743866,-0.002363205,0.014202118,0,
00:09.8,-0.000738144,-0.002363205,0.014184952,0,
00:09.8,-0.000743866,-0.002357483,0.014196396,0,
00:09.8,-0.000738144,-0.002351761,0.014196396,0,
00:09.8,-0.000761032,-0.002357483,0.014184952,0,
00:09.8,-0.000749588,-0.002363205,0.014184952,0,
00:09.8,-0.000732422,-0.002363205,0.014196396,0,
00:09.8,-0.000738144,-0.002363205,0.014196396,0,
00:09.8,-0.000703812,-0.002363205,0.014196396,0,
00:09.8,-0.000743866,-0.002368927,0.014202118,0,
