Elapsed_Time,EMG1,EMG2,EMG3,BioRadio Event,Unnamed: 5
00:00:00,-0.000297546,-0.001470566,0.011850357,0,
00:00.0,-0.000331879,-0.001470566,0.011827469,0,
00:00.0,-0.00028038,-0.001464844,0.011884689,0,
00:00.0,-0.000331879,-0.001470566,0.011816025,0,
00:00.0,-0.000411987,-0.001476288,0.011838913,0,
00:00.0,-0.000366211,-0.001476288,0.011821747,0,
00:00.0,-0.000423431,-0.001487732,0.011833191,0,
00:00.0,-0.000303268,-0.001470566,0.011844635,0,
00:00.0,-0.000217438,-0.001459122,0.011867523,0,
00:00.0,-0.00028038,-0.001464844,0.011838913,0,
00:00.0,-0.000320435,-0.001470566,0.011844635,0,
00:00.0,-0.000366211,-0.001464844,0.011856079,0,
00:00.0,-0.000383377,-0.00148201,0.011798859,0,
00:00.1,-0.000291824,-0.001476288,0.011833191,0,
00:00.1,-0.000257492,-0.001476288,0.011884689,0,
00:00.1,-0.00028038,-0.001464844,0.011873245,0,
00:00.1,-0.000291824,-0.001459122,0.011850357,0,
00:00.1,-0.000326157,-0.001470566,0.011850357,0,
00:00.1,-0.000349045,-0.001464844,0.011867523,0,
00:00.1,-0.000314713,-0.001470566,0.0119133,0,
00:00.1,-0.00025177,-0.001459122,0.011867523,0,
00:00.1,-0.000320435,-0.001470566,0.011787415,0,
00:00.1,-0.000303268,-0.001470566,0.011856079,0,
00:00.1,-0.000326157,-0.001476288,0.011867523,0,
00:00.1,-0.000331879,-0.00148201,0.011861801,0,
00:00.1,-0.000286102,-0.001476288,0.011861801,0,
00:00.1,-0.000371933,-0.00148201,0.011867523,0,
00:00.1,-0.000389099,-0.001476288,0.011873245,0,
00:00.1,-0.000274658,-0.001476288,0.011896133,0,
00:00.1,-0.000371933,-0.001487732,0.011901855,0,
00:00.1,-0.000274658,-0.001476288,0.011827469,0,
00:00.1,-0.000314713,-0.00148201,0.011861801,0,
00:00.1,-0.000286102,-0.00148201,0.011896133,0,
00:00.1,-0.000246048,-0.00148201,0.011907578,0,
00:00.1,-0.000400543,-0.001487732,0.011884689,0,
00:00.1,-0.000326157,-0.00148201,0.011901855,0,
00:00.1,-0.000286102,-0.001470566,0.011890411,0,
00:00.1,-0.000377655,-0.001476288,0.011821747,0,
00:00.2,-0.000326157,-0.001487732,0.011873245,0,
00:00.2,-0.00022316,-0.001487732,0.011867523,0,
00:00.2,-0.000234604,-0.00148201,0.011907578,0,
00:00.2,-0.000274658,-0.001487732,0.011907578,0,
00:00.2,-0.000337601,-0.001487732,0.011901855,0,
00:00.2,-0.000366211,-0.001493454,0.011901855,0,
00:00.2,-0.000360489,-0.001493454,0.011873245,0,
00:00.2,-0.000291824,-0.001493454,0.011890411,0,
00:00.2,-0.000263214,-0.001499176,0.011924744,0,
00:00.2,-0.000291824,-0.001504898,0.011890411,0,
00:00.2,-0.000297546,-0.001493454,0.011907578,0,
00:00.2,-0.000349045,-0.001487732,0.0119133,0,
00:00.2,-0.000337601,-0.001487732,0.011890411,0,
00:00.2,-0.000320435,-0.001493454,0.011884689,0,
00:00.2,-0.00028038,-0.001493454,0.011930466,0,
00:00.2,-0.000263214,-0.001499176,0.011936188,0,
00:00.2,-0.000274658,-0.001516342,0.011907578,0,
00:00.2,-0.000291824,-0.001499176,0.011930466,0,
00:00.2,-0.000303268,-0.001499176,0.011953354,0,
00:00.2,-0.00030899,-0.001504898,0.011901855,0,
00:00.2,-0.000291824,-0.001499176,0.011884689,0,
00:00.2,-0.000360489,-0.001504898,0.011953354,0,
00:00.2,-0.000263214,-0.001499176,0.0119133,0,
00:00.2,-0.000337601,-0.001499176,0.0119133,0,
00:00.2,-0.000326157,-0.00151062,0.011901855,0,
00:00.3,-0.00028038,-0.001516342,0.011907578,0,
00:00.3,-0.000394821,-0.001522064,0.01194191,0,
00:00.3,-0.000452042,-0.001522064,0.011930466,0,
00:00.3,-0.000200272,-0.001499176,0.011930466,0,
00:00.3,-0.00025177,-0.00151062,0.01194191,0,
00:00.3,-0.000274658,-0.001516342,0.011953354,0,
00:00.3,-0.00025177,-0.001504898,0.01194191,0,
00:00.3,-0.000303268,-0.00151062,0.011953354,0,
00:00.3,-0.000291824,-0.001516342,0.011924744,0,
00:00.3,-0.000303268,-0.001527786,0.011959076,0,
00:00.3,-0.00028038,-0.001522064,0.011953354,0,
00:00.3,-0.000291824,-0.001516342,0.011947632,0,
00:00.3,-0.000291824,-0.001516342,0.01194191,0,
00:00.3,-0.000291824,-0.001522064,0.01194191,0,
00:00.3,-0.000303268,-0.001527786,0.011924744,0,
00:00.3,-0.00030899,-0.001516342,0.011947632,0,
00:00.3,-0.000331879,-0.001527786,0.011964798,0,
00:00.3,-0.000326157,-0.001527786,0.011953354,0,
00:00.3,-0.000303268,-0.001527786,0.011953354,0,
00:00.3,-0.000337601,-0.001533508,0.011924744,0,
00:00.3,-0.000343323,-0.001533508,0.011924744,0,
00:00.3,-0.000326157,-0.001527786,0.01194191,0,
00:00.3,-0.000400543,-0.001533508,0.011947632,0,
00:00.3,-0.00028038,-0.001533508,0.011981964,0,
00:00.3,-0.000200272,-0.001533508,0.011907578,0,
00:00.4,-0.000257492,-0.00153923,0.01194191,0,
00:00.4,-0.000268936,-0.001550674,0.011924744,0,
00:00.4,-0.000286102,-0.001533508,0.011947632,0,
00:00.4,-0.000303268,-0.001544952,0.011981964,0,
00:00.4,-0.000297546,-0.00153923,0.0119133,0,
00:00.4,-0.000320435,-0.001550674,0.011953354,0,
00:00.4,-0.000314713,-0.001556396,0.01197052,0,
00:00.4,-0.000314713,-0.001550674,0.011936188,0,
00:00.4,-0.000303268,-0.001550674,0.011919022,0,
00:00.4,-0.000337601,-0.001550674,0.011924744,0,
00:00.4,-0.000331879,-0.001556396,0.01197052,0,
00:00.4,-0.000394821,-0.001567841,0.011964798,0,
00:00.4,-0.000274658,-0.001562119,0.011930466,0,
00:00.4,-0.000326157,-0.001562119,0.011947632,0,
00:00.4,-0.000297546,-0.001556396,0.011924744,0,
00:00.4,-0.000331879,-0.001556396,0.011907578,0,
00:00.4,-0.000303268,-0.001556396,0.011964798,0,
00:00.4,-0.000291824,-0.001556396,0.01194191,0,
00:00.4,-0.000303268,-0.001567841,0.011924744,0,
00:00.4,-0.000291824,-0.001556396,0.011907578,0,
00:00.4,-0.000326157,-0.001562119,0.011884689,0,
00:00.4,-0.000394821,-0.001573563,0.011924744,0,
00:00.4,-0.000331879,-0.001567841,0.011924744,0,
00:00.4,-0.000274658,-0.001556396,0.011947632,0,
00:00.4,-0.000337601,-0.001573563,0.011930466,0,
00:00.5,-0.000320435,-0.001573563,0.011919022,0,
00:00.5,-0.000337601,-0.001573563,0.011919022,0,
00:00.5,-0.000440598,-0.001567841,0.011896133,0,
00:00.5,-0.000354767,-0.001573563,0.011919022,0,
00:00.5,-0.00028038,-0.001567841,0.011901855,0,
00:00.5,-0.000257492,-0.001573563,0.01194191,0,
00:00.5,-0.000343323,-0.001585007,0.011919022,0,
00:00.5,-0.000371933,-0.001573563,0.011890411,0,
00:00.5,-0.000480652,-0.001573563,0.011890411,0,
00:00.5,-0.000400543,-0.001579285,0.011873245,0,
00:00.5,-0.00019455,-0.001567841,0.011867523,0,
00:00.5,-0.000286102,-0.001573563,0.011867523,0,
00:00.5,-0.000343323,-0.001585007,0.0119133,0,
00:00.5,-0.000343323,-0.001573563,0.011878967,0,
00:00.5,-0.000331879,-0.001579285,0.011907578,0,
00:00.5,-0.000360489,-0.001579285,0.011907578,0,
00:00.5,-0.000354767,-0.001590729,0.011878967,0,
00:00.5,-0.000320435,-0.001585007,0.011867523,0,
00:00.5,-0.000371933,-0.001579285,0.011873245,0,
00:00.5,-0.000389099,-0.001573563,0.011884689,0,
00:00.5,-0.00044632,-0.001567841,0.011821747,0,
00:00.5,-0.000406265,-0.001585007,0.011833191,0,
00:00.5,-0.000383377,-0.001590729,0.011878967,0,
00:00.5,-0.000371933,-0.001579285,0.011884689,0,
00:00.5,-0.000394821,-0.001573563,0.011890411,0,
00:00.6,-0.000423431,-0.001585007,0.011867523,0,
00:00.6,-0.000389099,-0.001602173,0.011873245,0,
00:00.6,-0.000366211,-0.001590729,0.011821747,0,
00:00.6,-0.000469208,-0.001585007,0.011827469,0,
00:00.6,-0.000406265,-0.001585007,0.011844635,0,
00:00.6,-0.000377655,-0.001579285,0.011850357,0,
00:00.6,-0.000417709,-0.001579285,0.011798859,0,
00:00.6,-0.000394821,-0.001585007,0.011827469,0,
00:00.6,-0.000394821,-0.001585007,0.011810303,0,
00:00.6,-0.000423431,-0.001590729,0.011827469,0,
00:00.6,-0.000457764,-0.001590729,0.011844635,0,
00:00.6,-0.000417709,-0.001567841,0.011810303,0,
00:00.6,-0.000423431,-0.001585007,0.011867523,0,
00:00.6,-0.000429153,-0.001590729,0.011833191,0,
00:00.6,-0.000537872,-0.001590729,0.011730194,0,
00:00.6,-0.00050354,-0.001590729,0.011810303,0,
00:00.6,-0.00044632,-0.001590729,0.011827469,0,
00:00.6,-0.000509262,-0.001596451,0.011793137,0,
00:00.6,-0.00050354,-0.001602173,0.011793137,0,
00:00.6,-0.00044632,-0.001602173,0.011816025,0,
00:00.6,-0.00044632,-0.001602173,0.011798859,0,
00:00.6,-0.00056076,-0.001596451,0.01174736,0,
00:00.6,-0.000452042,-0.001590729,0.011798859,0,
00:00.6,-0.000480652,-0.001607895,0.01177597,0,
00:00.6,-0.000457764,-0.001607895,0.011764526,0,
00:00.7,-0.000440598,-0.001596451,0.011764526,0,
00:00.7,-0.000492096,-0.001590729,0.01174736,0,
00:00.7,-0.00050354,-0.001602173,0.011793137,0,
00:00.7,-0.000480652,-0.001602173,0.011793137,0,
00:00.7,-0.000509262,-0.001607895,0.011707306,0,
00:00.7,-0.000514984,-0.001607895,0.011713028,0,
00:00.7,-0.000589371,-0.001607895,0.011741638,0,
00:00.7,-0.000509262,-0.001607895,0.011787415,0,
00:00.7,-0.000509262,-0.001613617,0.011753082,0,
00:00.7,-0.000583649,-0.001625061,0.01174736,0,
00:00.7,-0.000629425,-0.001602173,0.011781693,0,
00:00.7,-0.000600815,-0.001607895,0.01171875,0,
00:00.7,-0.000514984,-0.001613617,0.01171875,0,
00:00.7,-0.000492096,-0.001619339,0.01171875,0,
00:00.7,-0.000549316,-0.001625061,0.011713028,0,
00:00.7,-0.000692368,-0.001625061,0.011713028,0,
00:00.7,-0.000543594,-0.001613617,0.011672974,0,
00:00.7,-0.000543594,-0.001619339,0.011667252,0,
00:00.7,-0.000566483,-0.001619339,0.011672974,0,
00:00.7,-0.000566483,-0.001630783,0.011684418,0,
00:00.7,-0.000526428,-0.001625061,0.011678696,0,
00:00.7,-0.000606537,-0.001613617,0.011632919,0,
00:00.7,-0.000577927,-0.001619339,0.011667252,0,
00:00.7,-0.000600815,-0.001630783,0.011632919,0,
00:00.7,-0.000658035,-0.001625061,0.011615753,0,
00:00.8,-0.000686646,-0.001625061,0.01166153,0,
00:00.8,-0.000566483,-0.001625061,0.01166153,0,
00:00.8,-0.000589371,-0.001625061,0.011632919,0,
00:00.8,-0.000606537,-0.001625061,0.011598587,0,
00:00.8,-0.000663757,-0.001625061,0.011604309,0,
00:00.8,-0.000675201,-0.001647949,0.011581421,0,
00:00.8,-0.000589371,-0.001625061,0.011604309,0,
00:00.8,-0.000572205,-0.001613617,0.011535645,0,
00:00.8,-0.000612259,-0.001630783,0.011587143,0,
00:00.8,-0.000663757,-0.001630783,0.011558533,0,
00:00.8,-0.000795364,-0.001642227,0.011512756,0,
00:00.8,-0.000635147,-0.001625061,0.011529922,0,
00:00.8,-0.000606537,-0.001625061,0.0115242,0,
00:00.8,-0.000629425,-0.001625061,0.011512756,0,
00:00.8,-0.000617981,-0.001630783,0.011529922,0,
00:00.8,-0.000675201,-0.001636505,0.011507034,0,
00:00.8,-0.000761032,-0.001642227,0.011529922,0,
00:00.8,-0.000629425,-0.001636505,0.011484146,0,
00:00.8,-0.000669479,-0.001642227,0.011461258,0,
00:00.8,-0.000686646,-0.001642227,0.011472702,0,
00:00.8,-0.000629425,-0.001636505,0.01149559,0,
00:00.8,-0.000669479,-0.001636505,0.011449814,0,
00:00.8,-0.00069809,-0.001647949,0.011415482,0,
00:00.8,-0.000749588,-0.001642227,0.011461258,0,
00:00.8,-0.000640869,-0.001636505,0.011461258,0,
00:00.9,-0.000686646,-0.001642227,0.011421204,0,
00:00.9,-0.000732422,-0.001642227,0.011404037,0,
00:00.9,-0.000720978,-0.001636505,0.011415482,0,
00:00.9,-0.000692368,-0.001642227,0.01140976,0,
00:00.9,-0.000640869,-0.001642227,0.011398315,0,
00:00.9,-0.000663757,-0.001659393,0.011426926,0,
00:00.9,-0.000692368,-0.001636505,0.011386871,0,
00:00.9,-0.0007267,-0.001642227,0.011352539,0,
00:00.9,-0.000732422,-0.001636505,0.011352539,0,
00:00.9,-0.000623703,-0.001636505,0.011392593,0,
00:00.9,-0.000686646,-0.001636505,0.011341095,0,
00:00.9,-0.000640869,-0.001647949,0.011369705,0,
00:00.9,-0.000692368,-0.001647949,0.011369705,0,
00:00.9,-0.000709534,-0.001647949,0.011352539,0,
00:00.9,-0.000743866,-0.001647949,0.011301041,0,
00:00.9,-0.000686646,-0.001642227,0.01127243,0,
00:00.9,-0.000669479,-0.001630783,0.011358261,0,
00:00.9,-0.000680923,-0.001642227,0.011312485,0,
00:00.9,-0.000686646,-0.001653671,0.011318207,0,
00:00.9,-0.000692368,-0.001642227,0.011312485,0,
00:00.9,-0.000703812,-0.001636505,0.011318207,0,
00:00.9,-0.000846863,-0.001642227,0.011278152,0,
00:00.9,-0.00069809,-0.001636505,0.011226654,0,
00:00.9,-0.000749588,-0.001630783,0.011255264,0,
00:00.9,-0.000652313,-0.001636505,0.011323929,0,
00:01.0,-0.000606537,-0.001642227,0.011238098,0,
00:01.0,-0.000663757,-0.001630783,0.01124382,0,
00:01.0,-0.00069809,-0.001647949,0.01127243,0,
00:01.0,-0.000709534,-0.001642227,0.011209488,0,
00:01.0,-0.000635147,-0.001630783,0.011163712,0,
00:01.0,-0.000686646,-0.001659393,0.01121521,0,
00:01.0,-0.000692368,-0.001659393,0.011238098,0,
00:01.0,-0.000743866,-0.001653671,0.011198044,0,
00:01.0,-0.000692368,-0.001653671,0.0111866,0,
00:01.0,-0.000715256,-0.001659393,0.011163712,0,
00:01.0,-0.0007267,-0.001659393,0.011117935,0,
00:01.0,-0.000680923,-0.001659393,0.011198044,0,
00:00:01,-0.000658035,-0.001665115,0.011180878,0,
00:01.0,-0.000743866,-0.001670837,0.011175156,0,
00:01.0,-0.000801086,-0.001670837,0.011198044,0,
00:01.0,-0.000583649,-0.001670837,0.011129379,0,
00:01.0,-0.000623703,-0.001670837,0.011100769,0,
00:01.0,-0.000749588,-0.001670837,0.011117935,0,
00:01.0,-0.000778198,-0.001676559,0.011129379,0,
00:01.0,-0.000675201,-0.001688004,0.011089325,0,
00:01.0,-0.000663757,-0.001682281,0.011095047,0,
00:01.0,-0.000709534,-0.001693726,0.011152267,0,
00:01.0,-0.000635147,-0.001688004,0.011077881,0,
00:01.0,-0.000680923,-0.001682281,0.011072159,0,
00:01.0,-0.000709534,-0.001688004,0.011037827,0,
00:01.1,-0.000772476,-0.001688004,0.011072159,0,
00:01.1,-0.000692368,-0.001688004,0.011095047,0,
00:01.1,-0.000720978,-0.001682281,0.01102066,0,
00:01.1,-0.000715256,-0.001699448,0.011066437,0,
00:01.1,-0.000703812,-0.001688004,0.011014938,0,
00:01.1,-0.000675201,-0.001688004,0.011003494,0,
00:01.1,-0.00069809,-0.001693726,0.011072159,0,
00:01.1,-0.00069809,-0.001699448,0.010974884,0,
00:01.1,-0.00078392,-0.001693726,0.011026382,0,
00:01.1,-0.000778198,-0.001693726,0.011014938,0,
00:01.1,-0.000606537,-0.001693726,0.011003494,0,
00:01.1,-0.000623703,-0.00170517,0.010986328,0,
00:01.1,-0.000669479,-0.001688004,0.010957718,0,
00:01.1,-0.000680923,-0.001688004,0.010997772,0,
00:01.1,-0.000680923,-0.00170517,0.011009216,0,
00:01.1,-0.000686646,-0.001693726,0.010951996,0,
00:01.1,-0.000675201,-0.001693726,0.010969162,0,
00:01.1,-0.000686646,-0.001693726,0.010986328,0,
00:01.1,-0.000663757,-0.001688004,0.010940552,0,
00:01.1,-0.000692368,-0.001693726,0.010940552,0,
00:01.1,-0.00069809,-0.001693726,0.010929108,0,
00:01.1,-0.0007267,-0.001699448,0.010940552,0,
00:01.1,-0.000629425,-0.001688004,0.010940552,0,
00:01.1,-0.000612259,-0.001682281,0.010894775,0,
00:01.1,-0.000692368,-0.001688004,0.010889053,0,
00:01.2,-0.000680923,-0.001688004,0.010894775,0,
00:01.2,-0.000669479,-0.001688004,0.010900497,0,
00:01.2,-0.000675201,-0.001688004,0.010911942,0,
00:01.2,-0.000766754,-0.001682281,0.010911942,0,
00:01.2,-0.000818253,-0.001693726,0.010900497,0,
00:01.2,-0.000600815,-0.001688004,0.010866165,0,
00:01.2,-0.000669479,-0.001693726,0.010889053,0,
00:01.2,-0.000646591,-0.001693726,0.010871887,0,
00:01.2,-0.000686646,-0.001688004,0.010889053,0,
00:01.2,-0.000675201,-0.001682281,0.010860443,0,
00:01.2,-0.00069809,-0.001688004,0.010808945,0,
00:01.2,-0.000692368,-0.001682281,0.010848999,0,
00:01.2,-0.000646591,-0.001693726,0.010877609,0,
00:01.2,-0.0007267,-0.001699448,0.010894775,0,
00:01.2,-0.000658035,-0.001693726,0.010831833,0,
00:01.2,-0.000658035,-0.001693726,0.010820389,0,
00:01.2,-0.000629425,-0.001682281,0.010826111,0,
00:01.2,-0.000640869,-0.001676559,0.010837555,0,
00:01.2,-0.000743866,-0.001659393,0.010808945,0,
00:01.2,-0.000766754,-0.001682281,0.010843277,0,
00:01.2,-0.000692368,-0.001682281,0.010820389,0,
00:01.2,-0.000629425,-0.001682281,0.010837555,0,
00:01.2,-0.00069809,-0.001676559,0.010820389,0,
00:01.2,-0.00078392,-0.001682281,0.010780334,0,
00:01.2,-0.000629425,-0.001688004,0.010797501,0,
00:01.3,-0.000606537,-0.001682281,0.010843277,0,
00:01.3,-0.000640869,-0.001676559,0.010831833,0,
00:01.3,-0.000669479,-0.001676559,0.010826111,0,
00:01.3,-0.000680923,-0.001682281,0.010808945,0,
00:01.3,-0.000720978,-0.001676559,0.010786057,0,
00:01.3,-0.000640869,-0.001670837,0.01076889,0,
00:01.3,-0.000663757,-0.001665115,0.010803223,0,
00:01.3,-0.000663757,-0.001659393,0.010751724,0,
00:01.3,-0.000663757,-0.001665115,0.01076889,0,
00:01.3,-0.000629425,-0.001665115,0.01076889,0,
00:01.3,-0.000646591,-0.001670837,0.01076889,0,
00:01.3,-0.00069809,-0.001665115,0.010786057,0,
00:01.3,-0.000680923,-0.001653671,0.010728836,0,
00:01.3,-0.000732422,-0.001642227,0.010746002,0,
00:01.3,-0.000761032,-0.001653671,0.010728836,0,
00:01.3,-0.000612259,-0.001659393,0.010728836,0,
00:01.3,-0.000640869,-0.001653671,0.01076889,0,
00:01.3,-0.000675201,-0.001659393,0.010757446,0,
00:01.3,-0.000646591,-0.001659393,0.01074028,0,
00:01.3,-0.000675201,-0.001653671,0.010763168,0,
00:01.3,-0.000749588,-0.001653671,0.010734558,0,
00:01.3,-0.000680923,-0.001665115,0.010723114,0,
00:01.3,-0.000583649,-0.001647949,0.010728836,0,
00:01.3,-0.000635147,-0.001647949,0.010688782,0,
00:01.3,-0.000669479,-0.001647949,0.01068306,0,
00:01.4,-0.000629425,-0.001659393,0.010751724,0,
00:01.4,-0.000635147,-0.001647949,0.010705948,0,
00:01.4,-0.000703812,-0.001647949,0.010694504,0,
00:01.4,-0.000675201,-0.001636505,0.01071167,0,
00:01.4,-0.000669479,-0.001636505,0.01071167,0,
00:01.4,-0.000675201,-0.001642227,0.010705948,0,
00:01.4,-0.000652313,-0.001642227,0.010705948,0,
00:01.4,-0.000692368,-0.001636505,0.010671616,0,
00:01.4,-0.000772476,-0.001647949,0.010705948,0,
00:01.4,-0.000646591,-0.001642227,0.010705948,0,
00:01.4,-0.000612259,-0.001636505,0.010688782,0,
00:01.4,-0.000663757,-0.001630783,0.010631561,0,
00:01.4,-0.000652313,-0.001630783,0.010705948,0,
00:01.4,-0.000652313,-0.001647949,0.010665894,0,
00:01.4,-0.000663757,-0.001653671,0.010694504,0,
00:01.4,-0.000715256,-0.001636505,0.010688782,0,
00:01.4,-0.000617981,-0.001619339,0.010665894,0,
00:01.4,-0.000612259,-0.001625061,0.010637283,0,
00:01.4,-0.000675201,-0.001630783,0.010671616,0,
00:01.4,-0.000617981,-0.001619339,0.010654449,0,
00:01.4,-0.000703812,-0.001625061,0.010677338,0,
00:01.4,-0.000675201,-0.001625061,0.010643005,0,
00:01.4,-0.000680923,-0.001619339,0.010660172,0,
00:01.4,-0.000640869,-0.001630783,0.010688782,0,
00:01.4,-0.000675201,-0.001636505,0.010665894,0,
00:01.5,-0.000715256,-0.001636505,0.010677338,0,
00:01.5,-0.000577927,-0.001636505,0.010665894,0,
00:01.5,-0.000606537,-0.001625061,0.010660172,0,
00:01.5,-0.000658035,-0.001625061,0.010677338,0,
00:01.5,-0.000663757,-0.001630783,0.010665894,0,
00:01.5,-0.000686646,-0.001642227,0.010648727,0,
00:01.5,-0.000629425,-0.001625061,0.010631561,0,
00:01.5,-0.000652313,-0.001625061,0.010648727,0,
00:01.5,-0.000646591,-0.001630783,0.010643005,0,
00:01.5,-0.000600815,-0.001630783,0.010648727,0,
00:01.5,-0.000623703,-0.001625061,0.010631561,0,
00:01.5,-0.000646591,-0.001636505,0.010620117,0,
00:01.5,-0.000680923,-0.001630783,0.010660172,0,
00:01.5,-0.000669479,-0.001625061,0.010660172,0,
00:01.5,-0.000635147,-0.001625061,0.010614395,0,
00:01.5,-0.000646591,-0.001625061,0.010585785,0,
00:01.5,-0.000617981,-0.001630783,0.010620117,0,
00:01.5,-0.000629425,-0.001630783,0.010625839,0,
00:01.5,-0.000709534,-0.001636505,0.010677338,0,
00:01.5,-0.000715256,-0.001625061,0.010665894,0,
00:01.5,-0.000606537,-0.001625061,0.010625839,0,
00:01.5,-0.000589371,-0.001630783,0.010620117,0,
00:01.5,-0.000663757,-0.001630783,0.010597229,0,
00:01.5,-0.000606537,-0.001625061,0.010654449,0,
00:01.5,-0.000606537,-0.001630783,0.010637283,0,
00:01.6,-0.000612259,-0.001630783,0.010631561,0,
00:01.6,-0.000612259,-0.001625061,0.010625839,0,
00:01.6,-0.000583649,-0.001613617,0.010637283,0,
00:01.6,-0.000612259,-0.001619339,0.010648727,0,
00:01.6,-0.000595093,-0.001619339,0.010614395,0,
00:01.6,-0.00056076,-0.001625061,0.010637283,0,
00:01.6,-0.000629425,-0.001613617,0.010631561,0,
00:01.6,-0.000658035,-0.001602173,0.010602951,0,
00:01.6,-0.000629425,-0.001596451,0.010620117,0,
00:01.6,-0.000606537,-0.001590729,0.010643005,0,
00:01.6,-0.000577927,-0.001590729,0.010648727,0,
00:01.6,-0.000595093,-0.001596451,0.010625839,0,
00:01.6,-0.000583649,-0.001590729,0.01068306,0,
00:01.6,-0.000595093,-0.001590729,0.010608673,0,
00:01.6,-0.000617981,-0.001596451,0.010643005,0,
00:01.6,-0.000703812,-0.001579285,0.010637283,0,
00:01.6,-0.000686646,-0.001567841,0.010585785,0,
00:01.6,-0.00053215,-0.001567841,0.010602951,0,
00:01.6,-0.000543594,-0.001573563,0.010631561,0,
00:01.6,-0.000583649,-0.001573563,0.010654449,0,
00:01.6,-0.000646591,-0.001579285,0.010654449,0,
00:01.6,-0.000652313,-0.001573563,0.010631561,0,
00:01.6,-0.000583649,-0.001573563,0.010625839,0,
00:01.6,-0.000600815,-0.001562119,0.010614395,0,
00:01.6,-0.000526428,-0.001562119,0.010665894,0,
00:01.7,-0.00056076,-0.001556396,0.010625839,0,
00:01.7,-0.000623703,-0.001567841,0.010643005,0,
00:01.7,-0.000652313,-0.001562119,0.010620117,0,
00:01.7,-0.000612259,-0.001567841,0.010625839,0,
00:01.7,-0.000572205,-0.001573563,0.010637283,0,
00:01.7,-0.000600815,-0.001567841,0.010648727,0,
00:01.7,-0.000640869,-0.001562119,0.010608673,0,
00:01.7,-0.000549316,-0.001562119,0.010614395,0,
00:01.7,-0.000583649,-0.001562119,0.010643005,0,
00:01.7,-0.000617981,-0.001544952,0.010620117,0,
00:01.7,-0.000612259,-0.001556396,0.010631561,0,
00:01.7,-0.000617981,-0.001550674,0.010614395,0,
00:01.7,-0.000572205,-0.001556396,0.010597229,0,
00:01.7,-0.000549316,-0.001550674,0.010648727,0,
00:01.7,-0.000606537,-0.001550674,0.010654449,0,
00:01.7,-0.000646591,-0.001544952,0.010643005,0,
00:01.7,-0.000709534,-0.001544952,0.010631561,0,
00:01.7,-0.000640869,-0.001550674,0.010614395,0,
00:01.7,-0.00044632,-0.001550674,0.010620117,0,
00:01.7,-0.000555038,-0.00153923,0.010614395,0,
00:01.7,-0.00056076,-0.00153923,0.01068306,0,
00:01.7,-0.000572205,-0.001550674,0.010643005,0,
00:01.7,-0.000595093,-0.001550674,0.010648727,0,
00:01.7,-0.000612259,-0.00153923,0.010591507,0,
00:01.7,-0.000566483,-0.001533508,0.010602951,0,
00:01.8,-0.000572205,-0.001550674,0.010637283,0,
00:01.8,-0.000606537,-0.001556396,0.010660172,0,
00:01.8,-0.000600815,-0.001544952,0.010700226,0,
00:01.8,-0.000600815,-0.00153923,0.010637283,0,
00:01.8,-0.000577927,-0.00153923,0.010637283,0,
00:01.8,-0.000595093,-0.001550674,0.010648727,0,
00:01.8,-0.00056076,-0.001544952,0.010665894,0,
00:01.8,-0.000652313,-0.001544952,0.010637283,0,
00:01.8,-0.000606537,-0.00153923,0.010625839,0,
00:01.8,-0.00056076,-0.001544952,0.010654449,0,
00:01.8,-0.000572205,-0.001544952,0.010688782,0,
00:01.8,-0.000509262,-0.001544952,0.010625839,0,
00:01.8,-0.00053215,-0.001533508,0.010614395,0,
00:01.8,-0.000549316,-0.00153923,0.010688782,0,
00:01.8,-0.00056076,-0.001544952,0.010637283,0,
00:01.8,-0.00056076,-0.001544952,0.010620117,0,
00:01.8,-0.000600815,-0.00153923,0.010700226,0,
00:01.8,-0.000509262,-0.001527786,0.010631561,0,
00:01.8,-0.000555038,-0.001527786,0.010654449,0,
00:01.8,-0.00056076,-0.001522064,0.010694504,0,
00:01.8,-0.000537872,-0.001533508,0.010700226,0,
00:01.8,-0.000537872,-0.001522064,0.010671616,0,
00:01.8,-0.000549316,-0.001516342,0.010648727,0,
00:01.8,-0.000566483,-0.001516342,0.010643005,0,
00:01.8,-0.000492096,-0.001527786,0.01068306,0,
00:01.9,-0.00053215,-0.001527786,0.010648727,0,
00:01.9,-0.000572205,-0.001527786,0.010677338,0,
00:01.9,-0.000526428,-0.001522064,0.01068306,0,
00:01.9,-0.000577927,-0.001533508,0.010717392,0,
00:01.9,-0.00053215,-0.001527786,0.010677338,0,
00:01.9,-0.000572205,-0.001522064,0.010648727,0,
00:01.9,-0.000526428,-0.001522064,0.010677338,0,
00:01.9,-0.000497818,-0.001516342,0.01068306,0,
00:01.9,-0.00053215,-0.001516342,0.010694504,0,
00:01.9,-0.000520706,-0.001522064,0.01068306,0,
00:01.9,-0.000543594,-0.001522064,0.010671616,0,
00:01.9,-0.000520706,-0.001516342,0.010677338,0,
00:01.9,-0.000555038,-0.001522064,0.010660172,0,
00:01.9,-0.000549316,-0.001504898,0.010648727,0,
00:01.9,-0.000520706,-0.001516342,0.010665894,0,
00:01.9,-0.000583649,-0.001516342,0.010700226,0,
00:01.9,-0.00056076,-0.00151062,0.010734558,0,
00:01.9,-0.000514984,-0.00151062,0.01074028,0,
00:01.9,-0.000452042,-0.00151062,0.010688782,0,
00:01.9,-0.000463486,-0.001516342,0.010665894,0,
00:01.9,-0.00047493,-0.001504898,0.010677338,0,
00:01.9,-0.000583649,-0.001516342,0.010665894,0,
00:01.9,-0.000526428,-0.001504898,0.010717392,0,
00:01.9,-0.000617981,-0.00151062,0.010746002,0,
00:01.9,-0.000543594,-0.001499176,0.010723114,0,
00:02.0,-0.000480652,-0.001499176,0.010700226,0,
00:02.0,-0.000480652,-0.001499176,0.010728836,0,
00:02.0,-0.00053215,-0.001504898,0.010728836,0,
00:02.0,-0.000549316,-0.001499176,0.010694504,0,
00:02.0,-0.000549316,-0.001504898,0.010717392,0,
00:02.0,-0.000543594,-0.001504898,0.010700226,0,
00:02.0,-0.00047493,-0.001499176,0.010688782,0,
00:02.0,-0.00047493,-0.001493454,0.010694504,0,
00:02.0,-0.000480652,-0.00151062,0.010763168,0,
00:02.0,-0.000463486,-0.001499176,0.010728836,0,
00:02.0,-0.000572205,-0.001499176,0.010780334,0,
00:02.0,-0.000520706,-0.001493454,0.010700226,0,
00:00:02,-0.00047493,-0.001487732,0.01071167,0,
00:02.0,-0.000480652,-0.001493454,0.010757446,0,
00:02.0,-0.000537872,-0.001493454,0.010717392,0,
00:02.0,-0.000514984,-0.001493454,0.010751724,0,
00:02.0,-0.000497818,-0.001493454,0.010717392,0,
00:02.0,-0.000514984,-0.001487732,0.010746002,0,
00:02.0,-0.000549316,-0.001487732,0.010746002,0,
00:02.0,-0.000514984,-0.001487732,0.010751724,0,
00:02.0,-0.000514984,-0.001487732,0.010757446,0,
00:02.0,-0.000577927,-0.001504898,0.010728836,0,
00:02.0,-0.000583649,-0.001499176,0.010757446,0,
00:02.0,-0.00050354,-0.001493454,0.01076889,0,
00:02.0,-0.000457764,-0.00148201,0.01074028,0,
00:02.1,-0.000457764,-0.00148201,0.010751724,0,
00:02.1,-0.000486374,-0.001487732,0.010786057,0,
00:02.1,-0.000520706,-0.001476288,0.01076889,0,
00:02.1,-0.000452042,-0.00148201,0.010751724,0,
00:02.1,-0.00050354,-0.001487732,0.010786057,0,
00:02.1,-0.000526428,-0.00148201,0.01076889,0,
00:02.1,-0.000480652,-0.001470566,0.010763168,0,
00:02.1,-0.000480652,-0.001487732,0.010734558,0,
00:02.1,-0.000463486,-0.001476288,0.010751724,0,
00:02.1,-0.000480652,-0.001470566,0.010780334,0,
00:02.1,-0.000537872,-0.001493454,0.010774612,0,
00:02.1,-0.00050354,-0.001487732,0.010757446,0,
00:02.1,-0.000509262,-0.001487732,0.010780334,0,
00:02.1,-0.000492096,-0.00148201,0.01076889,0,
00:02.1,-0.000480652,-0.001476288,0.01074028,0,
00:02.1,-0.000514984,-0.001464844,0.010786057,0,
00:02.1,-0.00053215,-0.001476288,0.010797501,0,
00:02.1,-0.000469208,-0.001476288,0.010826111,0,
00:02.1,-0.000423431,-0.001470566,0.010814667,0,
00:02.1,-0.000480652,-0.001470566,0.010774612,0,
00:02.1,-0.000492096,-0.001476288,0.01076889,0,
00:02.1,-0.000497818,-0.00148201,0.010808945,0,
00:02.1,-0.000429153,-0.001476288,0.010814667,0,
00:02.1,-0.000480652,-0.001470566,0.010780334,0,
00:02.1,-0.00056076,-0.001487732,0.010808945,0,
00:02.2,-0.000469208,-0.001476288,0.010820389,0,
00:02.2,-0.000486374,-0.001476288,0.010808945,0,
00:02.2,-0.000423431,-0.001476288,0.010791779,0,
00:02.2,-0.000440598,-0.001464844,0.010774612,0,
00:02.2,-0.00047493,-0.001470566,0.010774612,0,
00:02.2,-0.000486374,-0.001476288,0.010837555,0,
00:02.2,-0.00053215,-0.001476288,0.010883331,0,
00:02.2,-0.000480652,-0.001476288,0.010854721,0,
00:02.2,-0.000440598,-0.001476288,0.010786057,0,
00:02.2,-0.000417709,-0.00148201,0.010831833,0,
00:02.2,-0.000463486,-0.001470566,0.010820389,0,
00:02.2,-0.00047493,-0.001470566,0.010843277,0,
00:02.2,-0.000480652,-0.001470566,0.010854721,0,
00:02.2,-0.000463486,-0.001476288,0.010837555,0,
00:02.2,-0.000434875,-0.001476288,0.010848999,0,
00:02.2,-0.00044632,-0.001476288,0.010866165,0,
00:02.2,-0.000492096,-0.001470566,0.010854721,0,
00:02.2,-0.000612259,-0.001470566,0.010843277,0,
00:02.2,-0.00053215,-0.001464844,0.010848999,0,
00:02.2,-0.000331879,-0.001464844,0.010860443,0,
00:02.2,-0.000400543,-0.00148201,0.010848999,0,
00:02.2,-0.000440598,-0.001464844,0.010854721,0,
00:02.2,-0.000480652,-0.001459122,0.010831833,0,
00:02.2,-0.00044632,-0.001459122,0.010848999,0,
00:02.2,-0.000440598,-0.001464844,0.010889053,0,
00:02.3,-0.000480652,-0.001470566,0.010820389,0,
00:02.3,-0.000492096,-0.001464844,0.010854721,0,
00:02.3,-0.00044632,-0.001464844,0.010877609,0,
00:02.3,-0.00044632,-0.001464844,0.010900497,0,
00:02.3,-0.000394821,-0.001470566,0.010871887,0,
00:02.3,-0.000452042,-0.0014534,0.010889053,0,
00:02.3,-0.00047493,-0.0014534,0.010929108,0,
00:02.3,-0.000497818,-0.001459122,0.010923386,0,
00:02.3,-0.000463486,-0.001459122,0.010843277,0,
00:02.3,-0.000429153,-0.001464844,0.010860443,0,
00:02.3,-0.000423431,-0.001459122,0.010906219,0,
00:02.3,-0.000492096,-0.001464844,0.010917664,0,
00:02.3,-0.000440598,-0.0014534,0.010877609,0,
00:02.3,-0.000411987,-0.001436234,0.010889053,0,
00:02.3,-0.000429153,-0.001441956,0.010894775,0,
00:02.3,-0.000469208,-0.001447678,0.010917664,0,
00:02.3,-0.000434875,-0.001459122,0.010940552,0,
00:02.3,-0.000480652,-0.0014534,0.010923386,0,
00:02.3,-0.000497818,-0.001447678,0.010929108,0,
00:02.3,-0.00044632,-0.001441956,0.010883331,0,
00:02.3,-0.000383377,-0.001436234,0.010883331,0,
00:02.3,-0.000434875,-0.001441956,0.010900497,0,
00:02.3,-0.000383377,-0.001430511,0.010951996,0,
00:02.3,-0.000411987,-0.001436234,0.010911942,0,
00:02.3,-0.000457764,-0.001441956,0.010917664,0,
00:02.4,-0.000463486,-0.001441956,0.010923386,0,
00:02.4,-0.000423431,-0.001447678,0.01093483,0,
00:02.4,-0.000469208,-0.001447678,0.010917664,0,
00:02.4,-0.000406265,-0.001430511,0.010946274,0,
00:02.4,-0.000440598,-0.001436234,0.010917664,0,
00:02.4,-0.000417709,-0.001430511,0.010923386,0,
00:02.4,-0.000440598,-0.001430511,0.010940552,0,
00:02.4,-0.000480652,-0.001436234,0.010929108,0,
00:02.4,-0.000406265,-0.001430511,0.010917664,0,
00:02.4,-0.000383377,-0.001430511,0.01096344,0,
00:02.4,-0.000417709,-0.001436234,0.010980606,0,
00:02.4,-0.000429153,-0.001441956,0.010980606,0,
00:02.4,-0.000423431,-0.001441956,0.010951996,0,
00:02.4,-0.000509262,-0.001419067,0.010911942,0,
00:02.4,-0.00050354,-0.001424789,0.010917664,0,
00:02.4,-0.000326157,-0.001441956,0.010923386,0,
00:02.4,-0.000411987,-0.001424789,0.010957718,0,
00:02.4,-0.000492096,-0.001424789,0.010997772,0,
00:02.4,-0.000377655,-0.001419067,0.010980606,0,
00:02.4,-0.000406265,-0.001424789,0.010940552,0,
00:02.4,-0.000440598,-0.001424789,0.010957718,0,
00:02.4,-0.000463486,-0.001436234,0.01096344,0,
00:02.4,-0.000469208,-0.001430511,0.01093483,0,
00:02.4,-0.000389099,-0.001430511,0.010997772,0,
00:02.4,-0.000394821,-0.001430511,0.010986328,0,
00:02.5,-0.000394821,-0.001424789,0.010969162,0,
00:02.5,-0.000423431,-0.001419067,0.010969162,0,
00:02.5,-0.000417709,-0.001419067,0.010969162,0,
00:02.5,-0.000417709,-0.001424789,0.01096344,0,
00:02.5,-0.000411987,-0.001424789,0.01096344,0,
00:02.5,-0.000440598,-0.001424789,0.010997772,0,
00:02.5,-0.000486374,-0.001419067,0.011026382,0,
00:02.5,-0.000452042,-0.001413345,0.010957718,0,
00:02.5,-0.000394821,-0.001424789,0.010974884,0,
00:02.5,-0.000371933,-0.001430511,0.011032104,0,
00:02.5,-0.00044632,-0.001419067,0.010997772,0,
00:02.5,-0.000514984,-0.001424789,0.010980606,0,
00:02.5,-0.000452042,-0.001424789,0.010997772,0,
00:02.5,-0.000354767,-0.001413345,0.011003494,0,
00:02.5,-0.000406265,-0.001419067,0.010969162,0,
00:02.5,-0.000406265,-0.001419067,0.01102066,0,
00:02.5,-0.000429153,-0.001430511,0.011009216,0,
00:02.5,-0.000406265,-0.001424789,0.010997772,0,
00:02.5,-0.000394821,-0.001419067,0.011026382,0,
00:02.5,-0.000400543,-0.001424789,0.011003494,0,
00:02.5,-0.000434875,-0.001424789,0.010986328,0,
00:02.5,-0.000394821,-0.001419067,0.011003494,0,
00:02.5,-0.000394821,-0.001424789,0.011043549,0,
00:02.5,-0.000383377,-0.001419067,0.011003494,0,
00:02.5,-0.000440598,-0.001419067,0.011014938,0,
00:02.6,-0.000457764,-0.001424789,0.011026382,0,
00:02.6,-0.000417709,-0.001424789,0.011095047,0,
00:02.6,-0.000406265,-0.001413345,0.011072159,0,
00:02.6,-0.000411987,-0.001424789,0.010997772,0,
00:02.6,-0.000343323,-0.001419067,0.010980606,0,
00:02.6,-0.000452042,-0.001419067,0.01102066,0,
00:02.6,-0.000469208,-0.001424789,0.011009216,0,
00:02.6,-0.000394821,-0.001413345,0.011083603,0,
00:02.6,-0.000486374,-0.001419067,0.011083603,0,
00:02.6,-0.000394821,-0.001419067,0.011077881,0,
00:02.6,-0.000383377,-0.001424789,0.011077881,0,
00:02.6,-0.000394821,-0.001419067,0.01102066,0,
00:02.6,-0.000360489,-0.001424789,0.011032104,0,
00:02.6,-0.000389099,-0.001430511,0.011037827,0,
00:02.6,-0.000423431,-0.001424789,0.011054993,0,
00:02.6,-0.000417709,-0.001430511,0.011066437,0,
00:02.6,-0.000377655,-0.001419067,0.011072159,0,
00:02.6,-0.000349045,-0.001419067,0.011095047,0,
00:02.6,-0.000371933,-0.001424789,0.011049271,0,
00:02.6,-0.000400543,-0.001413345,0.011077881,0,
00:02.6,-0.000434875,-0.001424789,0.011089325,0,
00:02.6,-0.000429153,-0.001419067,0.011037827,0,
00:02.6,-0.000377655,-0.001419067,0.011054993,0,
00:02.6,-0.000337601,-0.001413345,0.011095047,0,
00:02.6,-0.000371933,-0.001413345,0.011135101,0,
00:02.7,-0.000389099,-0.001419067,0.011072159,0,
00:02.7,-0.000383377,-0.001419067,0.011135101,0,
00:02.7,-0.000371933,-0.001424789,0.011077881,0,
00:02.7,-0.000411987,-0.001436234,0.011072159,0,
00:02.7,-0.000434875,-0.001436234,0.011083603,0,
00:02.7,-0.000400543,-0.001419067,0.011112213,0,
00:02.7,-0.000343323,-0.001419067,0.011135101,0,
00:02.7,-0.000434875,-0.001430511,0.011152267,0,
00:02.7,-0.000400543,-0.001430511,0.011089325,0,
00:02.7,-0.000383377,-0.001430511,0.011043549,0,
00:02.7,-0.000383377,-0.001436234,0.011129379,0,
00:02.7,-0.000429153,-0.001436234,0.011100769,0,
00:02.7,-0.000411987,-0.001407623,0.011106491,0,
00:02.7,-0.000326157,-0.001407623,0.011140823,0,
00:02.7,-0.000343323,-0.001419067,0.011106491,0,
00:02.7,-0.000429153,-0.001430511,0.011129379,0,
00:02.7,-0.000417709,-0.001424789,0.011135101,0,
00:02.7,-0.000349045,-0.001424789,0.011192322,0,
00:02.7,-0.000349045,-0.001430511,0.011163712,0,
00:02.7,-0.000389099,-0.001419067,0.011100769,0,
00:02.7,-0.000440598,-0.001424789,0.011152267,0,
00:02.7,-0.000457764,-0.001430511,0.01115799,0,
00:02.7,-0.000371933,-0.001430511,0.011175156,0,
00:02.7,-0.000314713,-0.001430511,0.011169434,0,
00:02.7,-0.000389099,-0.001430511,0.011169434,0,
00:02.8,-0.000371933,-0.001424789,0.011129379,0,
00:02.8,-0.000389099,-0.001419067,0.011135101,0,
00:02.8,-0.000400543,-0.001419067,0.011129379,0,
00:02.8,-0.000383377,-0.001424789,0.011152267,0,
00:02.8,-0.000371933,-0.001430511,0.0111866,0,
00:02.8,-0.000383377,-0.001430511,0.011175156,0,
00:02.8,-0.000343323,-0.001424789,0.011180878,0,
00:02.8,-0.000331879,-0.001419067,0.011146545,0,
00:02.8,-0.000331879,-0.001430511,0.01115799,0,
00:02.8,-0.000400543,-0.001430511,0.01115799,0,
00:02.8,-0.000366211,-0.001424789,0.011146545,0,
00:02.8,-0.000377655,-0.001424789,0.011203766,0,
00:02.8,-0.000366211,-0.001424789,0.011209488,0,
00:02.8,-0.000423431,-0.001424789,0.011192322,0,
00:02.8,-0.00044632,-0.001436234,0.011203766,0,
00:02.8,-0.000343323,-0.001430511,0.011175156,0,
00:02.8,-0.000371933,-0.001424789,0.011192322,0,
00:02.8,-0.000366211,-0.001430511,0.011209488,0,
00:02.8,-0.000434875,-0.001430511,0.0111866,0,
00:02.8,-0.000354767,-0.001424789,0.011203766,0,
00:02.8,-0.000331879,-0.001430511,0.011203766,0,
00:02.8,-0.000389099,-0.001430511,0.011209488,0,
00:02.8,-0.00053215,-0.001424789,0.011192322,0,
00:02.8,-0.000343323,-0.001419067,0.011198044,0,
00:02.8,-0.000228882,-0.001413345,0.011198044,0,
00:02.9,-0.00022316,-0.001424789,0.011209488,0,
00:02.9,-0.000377655,-0.001436234,0.011209488,0,
00:02.9,-0.000423431,-0.001424789,0.011209488,0,
00:02.9,-0.000411987,-0.001419067,0.011209488,0,
00:02.9,-0.000389099,-0.001424789,0.011255264,0,
00:02.9,-0.000343323,-0.001424789,0.011175156,0,
00:02.9,-0.000452042,-0.001436234,0.011238098,0,
00:02.9,-0.000354767,-0.001436234,0.011278152,0,
00:02.9,-0.000314713,-0.001430511,0.011198044,0,
00:02.9,-0.000349045,-0.001413345,0.011255264,0,
00:02.9,-0.000400543,-0.001419067,0.011192322,0,
00:02.9,-0.000400543,-0.001413345,0.011226654,0,
00:02.9,-0.000354767,-0.001424789,0.011278152,0,
00:02.9,-0.000360489,-0.001424789,0.011255264,0,
00:02.9,-0.000314713,-0.001430511,0.011249542,0,
00:02.9,-0.000383377,-0.001419067,0.011220932,0,
00:02.9,-0.000383377,-0.001419067,0.011209488,0,
00:02.9,-0.00030899,-0.001424789,0.011278152,0,
00:02.9,-0.000314713,-0.001413345,0.011266708,0,
00:02.9,-0.000320435,-0.001419067,0.01127243,0,
00:02.9,-0.000371933,-0.001430511,0.011278152,0,
00:02.9,-0.000371933,-0.001419067,0.011249542,0,
00:02.9,-0.000360489,-0.001419067,0.011249542,0,
00:02.9,-0.000349045,-0.001424789,0.011266708,0,
00:02.9,-0.000383377,-0.001424789,0.01124382,0,
00:03.0,-0.000331879,-0.001424789,0.011266708,0,
00:03.0,-0.000366211,-0.001413345,0.011260986,0,
00:03.0,-0.000440598,-0.001419067,0.011278152,0,
00:03.0,-0.000383377,-0.001424789,0.011283875,0,
00:03.0,-0.000480652,-0.001424789,0.011283875,0,
00:03.0,-0.000303268,-0.001430511,0.01127243,0,
00:03.0,-0.000263214,-0.001419067,0.011301041,0,
00:03.0,-0.000343323,-0.001419067,0.011266708,0,
00:03.0,-0.000331879,-0.001419067,0.011278152,0,
00:03.0,-0.000360489,-0.001436234,0.011295319,0,
00:03.0,-0.00030899,-0.001424789,0.01124382,0,
00:03.0,-0.000303268,-0.001419067,0.011306763,0,
00:00:03,-0.000429153,-0.001413345,0.011335373,0,
00:03.0,-0.000389099,-0.001413345,0.011283875,0,
00:03.0,-0.000400543,-0.001419067,0.011289597,0,
00:03.0,-0.000337601,-0.001413345,0.01127243,0,
00:03.0,-0.00030899,-0.001407623,0.011323929,0,
00:03.0,-0.000360489,-0.001419067,0.011301041,0,
00:03.0,-0.000360489,-0.001424789,0.011352539,0,
00:03.0,-0.000343323,-0.001424789,0.011301041,0,
00:03.0,-0.000406265,-0.001413345,0.011266708,0,
00:03.0,-0.000343323,-0.001413345,0.011381149,0,
00:03.0,-0.000394821,-0.001424789,0.011352539,0,
00:03.0,-0.000349045,-0.001419067,0.011283875,0,
00:03.0,-0.000286102,-0.001419067,0.011323929,0,
00:03.1,-0.000320435,-0.001407623,0.011335373,0,
00:03.1,-0.000349045,-0.001407623,0.011341095,0,
00:03.1,-0.000360489,-0.001419067,0.011335373,0,
00:03.1,-0.000326157,-0.001419067,0.011312485,0,
00:03.1,-0.000297546,-0.001424789,0.011289597,0,
00:03.1,-0.000297546,-0.001419067,0.011318207,0,
00:03.1,-0.000354767,-0.001419067,0.011335373,0,
00:03.1,-0.000429153,-0.001424789,0.011318207,0,
00:03.1,-0.000371933,-0.001413345,0.011318207,0,
00:03.1,-0.000400543,-0.001419067,0.011358261,0,
00:03.1,-0.000377655,-0.001419067,0.011352539,0,
00:03.1,-0.000389099,-0.001419067,0.011341095,0,
00:03.1,-0.000331879,-0.001424789,0.01140976,0,
00:03.1,-0.000297546,-0.001424789,0.011346817,0,
00:03.1,-0.000337601,-0.001424789,0.011335373,0,
00:03.1,-0.000440598,-0.001419067,0.011323929,0,
00:03.1,-0.000337601,-0.001419067,0.011352539,0,
00:03.1,-0.00028038,-0.001407623,0.01143837,0,
00:03.1,-0.000320435,-0.001413345,0.011426926,0,
00:03.1,-0.000297546,-0.001413345,0.011278152,0,
00:03.1,-0.00030899,-0.001424789,0.011352539,0,
00:03.1,-0.000337601,-0.001424789,0.011381149,0,
00:03.1,-0.000400543,-0.001419067,0.011386871,0,
00:03.1,-0.000354767,-0.001413345,0.011375427,0,
00:03.1,-0.000349045,-0.001424789,0.011363983,0,
00:03.2,-0.000326157,-0.001419067,0.011341095,0,
00:03.2,-0.000326157,-0.001419067,0.011363983,0,
00:03.2,-0.000360489,-0.001424789,0.011404037,0,
00:03.2,-0.00030899,-0.001424789,0.011398315,0,
00:03.2,-0.000377655,-0.001424789,0.011381149,0,
00:03.2,-0.000423431,-0.001413345,0.011398315,0,
00:03.2,-0.000331879,-0.001419067,0.011398315,0,
00:03.2,-0.000337601,-0.001419067,0.011426926,0,
00:03.2,-0.000389099,-0.001424789,0.011421204,0,
00:03.2,-0.000349045,-0.001430511,0.011306763,0,
00:03.2,-0.000331879,-0.001419067,0.01140976,0,
00:03.2,-0.000406265,-0.001413345,0.011472702,0,
00:03.2,-0.000349045,-0.001424789,0.011386871,0,
00:03.2,-0.00030899,-0.001430511,0.01143837,0,
00:03.2,-0.000320435,-0.001424789,0.011386871,0,
00:03.2,-0.000331879,-0.001424789,0.011398315,0,
00:03.2,-0.000360489,-0.001419067,0.011386871,0,
00:03.2,-0.000377655,-0.001419067,0.011432648,0,
00:03.2,-0.000400543,-0.001413345,0.011352539,0,
00:03.2,-0.00030899,-0.001419067,0.011392593,0,
00:03.2,-0.00030899,-0.001413345,0.011421204,0,
00:03.2,-0.000389099,-0.001424789,0.011432648,0,
00:03.2,-0.000423431,-0.001430511,0.011449814,0,
00:03.2,-0.000320435,-0.001424789,0.01143837,0,
00:03.2,-0.000303268,-0.001424789,0.011432648,0,
00:03.3,-0.000337601,-0.001419067,0.011444092,0,
00:03.3,-0.000343323,-0.001407623,0.011489868,0,
00:03.3,-0.000349045,-0.001424789,0.011375427,0,
00:03.3,-0.000366211,-0.001424789,0.011398315,0,
00:03.3,-0.000286102,-0.001419067,0.011415482,0,
00:03.3,-0.000326157,-0.001413345,0.011461258,0,
00:03.3,-0.000423431,-0.001430511,0.011472702,0,
00:03.3,-0.000331879,-0.001424789,0.011421204,0,
00:03.3,-0.000314713,-0.001419067,0.01140976,0,
00:03.3,-0.000337601,-0.001424789,0.011472702,0,
00:03.3,-0.000371933,-0.001424789,0.011449814,0,
00:03.3,-0.000349045,-0.001430511,0.011449814,0,
00:03.3,-0.000383377,-0.001424789,0.01143837,0,
00:03.3,-0.000360489,-0.001424789,0.011432648,0,
00:03.3,-0.000326157,-0.001413345,0.011432648,0,
00:03.3,-0.000343323,-0.001419067,0.01143837,0,
00:03.3,-0.000463486,-0.001419067,0.0115242,0,
00:03.3,-0.000360489,-0.001419067,0.011455536,0,
00:03.3,-0.000286102,-0.001413345,0.011426926,0,
00:03.3,-0.000314713,-0.001413345,0.011489868,0,
00:03.3,-0.000383377,-0.001419067,0.011507034,0,
00:03.3,-0.000326157,-0.001430511,0.01143837,0,
00:03.3,-0.000354767,-0.001419067,0.011449814,0,
00:03.3,-0.000383377,-0.001424789,0.011432648,0,
00:03.3,-0.000303268,-0.001424789,0.01149559,0,
00:03.4,-0.000371933,-0.001419067,0.011489868,0,
00:03.4,-0.000303268,-0.001424789,0.01146698,0,
00:03.4,-0.000337601,-0.001430511,0.01146698,0,
00:03.4,-0.000354767,-0.001424789,0.01149559,0,
00:03.4,-0.000343323,-0.001430511,0.011449814,0,
00:03.4,-0.000331879,-0.001424789,0.011461258,0,
00:03.4,-0.000331879,-0.001424789,0.011489868,0,
00:03.4,-0.000354767,-0.001419067,0.011478424,0,
00:03.4,-0.000349045,-0.001419067,0.011484146,0,
00:03.4,-0.000389099,-0.001424789,0.011512756,0,
00:03.4,-0.000337601,-0.001419067,0.011432648,0,
00:03.4,-0.000314713,-0.001424789,0.011512756,0,
00:03.4,-0.000371933,-0.001419067,0.01149559,0,
00:03.4,-0.000366211,-0.001424789,0.011455536,0,
00:03.4,-0.000492096,-0.001424789,0.011512756,0,
00:03.4,-0.000337601,-0.001419067,0.011478424,0,
00:03.4,-0.000240326,-0.001407623,0.011478424,0,
00:03.4,-0.000291824,-0.001419067,0.01149559,0,
00:03.4,-0.000297546,-0.001419067,0.011529922,0,
00:03.4,-0.000360489,-0.001419067,0.01149559,0,
00:03.4,-0.000303268,-0.001424789,0.011518478,0,
00:03.4,-0.000383377,-0.001430511,0.011478424,0,
00:03.4,-0.000354767,-0.001424789,0.011489868,0,
00:03.4,-0.000320435,-0.001413345,0.011512756,0,
00:03.4,-0.000360489,-0.001419067,0.011501312,0,
00:03.5,-0.000337601,-0.001419067,0.011518478,0,
00:03.5,-0.000326157,-0.001413345,0.011547089,0,
00:03.5,-0.000291824,-0.001419067,0.011507034,0,
00:03.5,-0.000360489,-0.001424789,0.011518478,0,
00:03.5,-0.000394821,-0.001430511,0.011489868,0,
00:03.5,-0.000389099,-0.001419067,0.011484146,0,
00:03.5,-0.000440598,-0.001424789,0.011507034,0,
00:03.5,-0.000394821,-0.001424789,0.01146698,0,
00:03.5,-0.00030899,-0.001419067,0.011484146,0,
00:03.5,-0.000246048,-0.001419067,0.011478424,0,
00:03.5,-0.000389099,-0.001424789,0.011564255,0,
00:03.5,-0.000360489,-0.001436234,0.011547089,0,
00:03.5,-0.000297546,-0.001419067,0.0115242,0,
00:03.5,-0.000320435,-0.001407623,0.011501312,0,
00:03.5,-0.00030899,-0.001419067,0.011501312,0,
00:03.5,-0.000343323,-0.001424789,0.0115242,0,
00:03.5,-0.000366211,-0.001419067,0.011535645,0,
00:03.5,-0.000343323,-0.001424789,0.011552811,0,
00:03.5,-0.00028038,-0.001419067,0.011541367,0,
00:03.5,-0.000291824,-0.001419067,0.011507034,0,
00:03.5,-0.000320435,-0.001419067,0.011569977,0,
00:03.5,-0.000349045,-0.001424789,0.01149559,0,
00:03.5,-0.000394821,-0.001419067,0.011472702,0,
00:03.5,-0.000366211,-0.001419067,0.011535645,0,
00:03.5,-0.000303268,-0.001419067,0.011535645,0,
00:03.6,-0.000371933,-0.001419067,0.0115242,0,
00:03.6,-0.000429153,-0.001424789,0.011535645,0,
00:03.6,-0.000383377,-0.001424789,0.01149559,0,
00:03.6,-0.000314713,-0.001424789,0.011518478,0,
00:03.6,-0.000274658,-0.001424789,0.011547089,0,
00:03.6,-0.000337601,-0.001430511,0.011518478,0,
00:03.6,-0.000371933,-0.001430511,0.011541367,0,
00:03.6,-0.000291824,-0.001424789,0.011558533,0,
00:03.6,-0.000389099,-0.001424789,0.011575699,0,
00:03.6,-0.000303268,-0.001419067,0.01149559,0,
00:03.6,-0.000343323,-0.001424789,0.011541367,0,
00:03.6,-0.000349045,-0.001424789,0.011575699,0,
00:03.6,-0.000303268,-0.001413345,0.011512756,0,
00:03.6,-0.000360489,-0.001413345,0.011564255,0,
00:03.6,-0.000303268,-0.001424789,0.011592865,0,
00:03.6,-0.000354767,-0.001424789,0.011535645,0,
00:03.6,-0.000354767,-0.001436234,0.011564255,0,
00:03.6,-0.000343323,-0.001424789,0.011541367,0,
00:03.6,-0.000377655,-0.001419067,0.0115242,0,
00:03.6,-0.000371933,-0.001424789,0.011552811,0,
00:03.6,-0.000360489,-0.001424789,0.011547089,0,
00:03.6,-0.000240326,-0.001424789,0.01149559,0,
00:03.6,-0.000389099,-0.001430511,0.011569977,0,
00:03.6,-0.000343323,-0.001419067,0.011575699,0,
00:03.6,-0.000268936,-0.001419067,0.011541367,0,
00:03.7,-0.000326157,-0.001424789,0.011581421,0,
00:03.7,-0.000389099,-0.001430511,0.011547089,0,
00:03.7,-0.000337601,-0.001424789,0.011547089,0,
00:03.7,-0.000291824,-0.001424789,0.011575699,0,
00:03.7,-0.000274658,-0.001430511,0.011547089,0,
00:03.7,-0.000377655,-0.001424789,0.011592865,0,
00:03.7,-0.000360489,-0.001424789,0.011564255,0,
00:03.7,-0.000303268,-0.001430511,0.011569977,0,
00:03.7,-0.000366211,-0.001436234,0.011610031,0,
00:03.7,-0.000349045,-0.001430511,0.011564255,0,
00:03.7,-0.00030899,-0.001419067,0.011610031,0,
00:03.7,-0.000429153,-0.001424789,0.011552811,0,
00:03.7,-0.000383377,-0.001430511,0.011610031,0,
00:03.7,-0.000297546,-0.001407623,0.011569977,0,
00:03.7,-0.000314713,-0.001419067,0.011535645,0,
00:03.7,-0.000389099,-0.001424789,0.011587143,0,
00:03.7,-0.000297546,-0.001424789,0.011592865,0,
00:03.7,-0.00030899,-0.001419067,0.011564255,0,
00:03.7,-0.00044632,-0.001424789,0.011587143,0,
00:03.7,-0.000274658,-0.001424789,0.011575699,0,
00:03.7,-0.000286102,-0.001424789,0.011587143,0,
00:03.7,-0.000331879,-0.001424789,0.011587143,0,
00:03.7,-0.000331879,-0.001419067,0.011592865,0,
00:03.7,-0.00030899,-0.001419067,0.011501312,0,
00:03.7,-0.000314713,-0.001424789,0.011627197,0,
00:03.8,-0.000303268,-0.001424789,0.011615753,0,
00:03.8,-0.000440598,-0.001424789,0.011627197,0,
00:03.8,-0.000366211,-0.001430511,0.011581421,0,
00:03.8,-0.000274658,-0.001424789,0.011610031,0,
00:03.8,-0.000417709,-0.001424789,0.011627197,0,
00:03.8,-0.000326157,-0.001424789,0.011564255,0,
00:03.8,-0.000331879,-0.001419067,0.011592865,0,
00:03.8,-0.000383377,-0.001430511,0.011610031,0,
00:03.8,-0.000320435,-0.001424789,0.011587143,0,
00:03.8,-0.000303268,-0.001424789,0.011575699,0,
00:03.8,-0.000383377,-0.001424789,0.011592865,0,
00:03.8,-0.000360489,-0.001436234,0.011610031,0,
00:03.8,-0.00025177,-0.001430511,0.011604309,0,
00:03.8,-0.000337601,-0.001430511,0.011575699,0,
00:03.8,-0.000331879,-0.001424789,0.011604309,0,
00:03.8,-0.000343323,-0.001424789,0.011650085,0,
00:03.8,-0.000360489,-0.001430511,0.011575699,0,
00:03.8,-0.000314713,-0.001424789,0.011547089,0,
00:03.8,-0.000320435,-0.001436234,0.011615753,0,
00:03.8,-0.000400543,-0.001430511,0.011650085,0,
00:03.8,-0.000394821,-0.001419067,0.011621475,0,
00:03.8,-0.000377655,-0.001424789,0.011610031,0,
00:03.8,-0.000406265,-0.001424789,0.011610031,0,
00:03.8,-0.000360489,-0.001419067,0.011638641,0,
00:03.8,-0.00028038,-0.001419067,0.011650085,0,
00:03.9,-0.000314713,-0.001424789,0.011621475,0,
00:03.9,-0.000377655,-0.001430511,0.011610031,0,
00:03.9,-0.00030899,-0.001430511,0.011615753,0,
00:03.9,-0.000297546,-0.001441956,0.011610031,0,
00:03.9,-0.000389099,-0.001436234,0.011587143,0,
00:03.9,-0.000354767,-0.001430511,0.011632919,0,
00:03.9,-0.000337601,-0.001424789,0.011615753,0,
00:03.9,-0.000371933,-0.001419067,0.011615753,0,
00:03.9,-0.000366211,-0.001424789,0.011604309,0,
00:03.9,-0.000354767,-0.001419067,0.011644363,0,
00:03.9,-0.000349045,-0.001424789,0.011632919,0,
00:03.9,-0.000326157,-0.001430511,0.011632919,0,
00:03.9,-0.000337601,-0.001430511,0.011615753,0,
00:03.9,-0.000331879,-0.001424789,0.011592865,0,
00:03.9,-0.000366211,-0.001430511,0.011621475,0,
00:03.9,-0.000394821,-0.001430511,0.011644363,0,
00:03.9,-0.000389099,-0.001436234,0.011644363,0,
00:03.9,-0.000452042,-0.001436234,0.01166153,0,
00:03.9,-0.000400543,-0.001430511,0.011598587,0,
00:03.9,-0.00030899,-0.001430511,0.011627197,0,
00:03.9,-0.000360489,-0.001424789,0.011621475,0,
00:03.9,-0.000354767,-0.001419067,0.011615753,0,
00:03.9,-0.000360489,-0.001424789,0.011655807,0,
00:03.9,-0.000423431,-0.001413345,0.011604309,0,
00:03.9,-0.000389099,-0.001424789,0.011598587,0,
00:04.0,-0.000394821,-0.001430511,0.011644363,0,
00:04.0,-0.000366211,-0.001430511,0.011655807,0,
00:04.0,-0.000337601,-0.001436234,0.011644363,0,
00:04.0,-0.000360489,-0.001430511,0.011638641,0,
00:04.0,-0.000349045,-0.001424789,0.011632919,0,
00:04.0,-0.000377655,-0.001424789,0.011667252,0,
00:04.0,-0.000440598,-0.001424789,0.011684418,0,
00:04.0,-0.000366211,-0.001424789,0.011632919,0,
00:04.0,-0.000320435,-0.001419067,0.011598587,0,
00:04.0,-0.000360489,-0.001424789,0.011644363,0,
00:04.0,-0.000394821,-0.001419067,0.01166153,0,
00:04.0,-0.000389099,-0.001419067,0.011655807,0,
00:00:04,-0.000509262,-0.001436234,0.011672974,0,
00:04.0,-0.000429153,-0.001424789,0.011684418,0,
00:04.0,-0.000360489,-0.001419067,0.011655807,0,
00:04.0,-0.00047493,-0.001430511,0.011621475,0,
00:04.0,-0.000291824,-0.001424789,0.011610031,0,
00:04.0,-0.000366211,-0.001419067,0.01166153,0,
00:04.0,-0.000406265,-0.001424789,0.011667252,0,
00:04.0,-0.000394821,-0.001419067,0.011667252,0,
00:04.0,-0.000377655,-0.001424789,0.011655807,0,
00:04.0,-0.000389099,-0.001419067,0.01166153,0,
00:04.0,-0.000429153,-0.001413345,0.011655807,0,
00:04.0,-0.00044632,-0.001419067,0.011678696,0,
00:04.0,-0.000434875,-0.001419067,0.011678696,0,
00:04.1,-0.000383377,-0.001424789,0.011632919,0,
00:04.1,-0.000389099,-0.001424789,0.011638641,0,
00:04.1,-0.000406265,-0.001419067,0.01169014,0,
00:04.1,-0.000394821,-0.001419067,0.011672974,0,
00:04.1,-0.000492096,-0.001430511,0.011678696,0,
00:04.1,-0.000394821,-0.001430511,0.011684418,0,
00:04.1,-0.000360489,-0.001419067,0.011667252,0,
00:04.1,-0.000429153,-0.001413345,0.01169014,0,
00:04.1,-0.000469208,-0.001413345,0.011667252,0,
00:04.1,-0.000440598,-0.001419067,0.011707306,0,
00:04.1,-0.000452042,-0.001430511,0.01171875,0,
00:04.1,-0.000394821,-0.001419067,0.011644363,0,
00:04.1,-0.000371933,-0.001419067,0.011655807,0,
00:04.1,-0.000423431,-0.001413345,0.011672974,0,
00:04.1,-0.000463486,-0.001419067,0.011713028,0,
00:04.1,-0.000463486,-0.001424789,0.011753082,0,
00:04.1,-0.00044632,-0.001419067,0.011724472,0,
00:04.1,-0.000417709,-0.001413345,0.011650085,0,
00:04.1,-0.000400543,-0.001407623,0.011678696,0,
00:04.1,-0.000394821,-0.001413345,0.011667252,0,
00:04.1,-0.000400543,-0.001424789,0.011701584,0,
00:04.1,-0.000423431,-0.001424789,0.011741638,0,
00:04.1,-0.000492096,-0.001424789,0.011713028,0,
00:04.1,-0.000429153,-0.001419067,0.01171875,0,
00:04.1,-0.000406265,-0.001413345,0.011713028,0,
00:04.2,-0.000429153,-0.001413345,0.011730194,0,
00:04.2,-0.000452042,-0.001419067,0.011707306,0,
00:04.2,-0.000434875,-0.001419067,0.011741638,0,
00:04.2,-0.000526428,-0.001424789,0.011713028,0,
00:04.2,-0.000440598,-0.001419067,0.011724472,0,
00:04.2,-0.000400543,-0.001419067,0.011758804,0,
00:04.2,-0.000440598,-0.001413345,0.011730194,0,
00:04.2,-0.000492096,-0.001424789,0.011781693,0,
00:04.2,-0.000469208,-0.001419067,0.011713028,0,
00:04.2,-0.000434875,-0.001419067,0.011695862,0,
00:04.2,-0.000463486,-0.001419067,0.01177597,0,
00:04.2,-0.000492096,-0.001424789,0.011735916,0,
00:04.2,-0.000543594,-0.001419067,0.011758804,0,
00:04.2,-0.000394821,-0.001407623,0.01177597,0,
00:04.2,-0.000389099,-0.001407623,0.011741638,0,
00:04.2,-0.000434875,-0.001419067,0.011741638,0,
00:04.2,-0.000423431,-0.001413345,0.011764526,0,
00:04.2,-0.00047493,-0.001419067,0.011787415,0,
00:04.2,-0.000469208,-0.001419067,0.011758804,0,
00:04.2,-0.000434875,-0.001413345,0.01174736,0,
00:04.2,-0.000486374,-0.001424789,0.011821747,0,
00:04.2,-0.000492096,-0.001424789,0.011827469,0,
00:04.2,-0.000429153,-0.001413345,0.011804581,0,
00:04.2,-0.000469208,-0.001413345,0.011758804,0,
00:04.2,-0.000492096,-0.001407623,0.01177597,0,
00:04.3,-0.000537872,-0.001407623,0.011770248,0,
00:04.3,-0.000463486,-0.001419067,0.011861801,0,
00:04.3,-0.000429153,-0.001419067,0.011833191,0,
00:04.3,-0.000429153,-0.001413345,0.011798859,0,
00:04.3,-0.000457764,-0.001419067,0.011798859,0,
00:04.3,-0.000497818,-0.001419067,0.011798859,0,
00:04.3,-0.000457764,-0.001407623,0.011838913,0,
00:04.3,-0.000486374,-0.001407623,0.011856079,0,
00:04.3,-0.000457764,-0.001413345,0.011856079,0,
00:04.3,-0.000480652,-0.001413345,0.011856079,0,
00:04.3,-0.000440598,-0.001413345,0.011810303,0,
00:04.3,-0.000469208,-0.001424789,0.011856079,0,
00:04.3,-0.000434875,-0.001407623,0.011861801,0,
00:04.3,-0.000480652,-0.001413345,0.011850357,0,
00:04.3,-0.000549316,-0.001419067,0.011867523,0,
00:04.3,-0.00050354,-0.001424789,0.011856079,0,
00:04.3,-0.000480652,-0.001419067,0.011890411,0,
00:04.3,-0.000566483,-0.001419067,0.011964798,0,
00:04.3,-0.000480652,-0.001407623,0.011878967,0,
00:04.3,-0.000452042,-0.001430511,0.011873245,0,
00:04.3,-0.000429153,-0.001419067,0.011867523,0,
00:04.3,-0.000457764,-0.001413345,0.011901855,0,
00:04.3,-0.000452042,-0.001413345,0.011873245,0,
00:04.3,-0.000526428,-0.001430511,0.011890411,0,
00:04.3,-0.00050354,-0.001419067,0.011924744,0,
00:04.4,-0.000417709,-0.001413345,0.011919022,0,
00:04.4,-0.00047493,-0.001407623,0.011901855,0,
00:04.4,-0.000469208,-0.001413345,0.011924744,0,
00:04.4,-0.000469208,-0.001419067,0.0119133,0,
00:04.4,-0.000514984,-0.001424789,0.011953354,0,
00:04.4,-0.000514984,-0.001419067,0.011930466,0,
00:04.4,-0.000463486,-0.001419067,0.011930466,0,
00:04.4,-0.000463486,-0.001419067,0.012010574,0,
00:04.4,-0.000480652,-0.001424789,0.011936188,0,
00:04.4,-0.000537872,-0.001424789,0.011936188,0,
00:04.4,-0.000537872,-0.001413345,0.01197052,0,
00:04.4,-0.000497818,-0.001413345,0.011993408,0,
00:04.4,-0.000463486,-0.001419067,0.011987686,0,
00:04.4,-0.000434875,-0.001424789,0.011981964,0,
00:04.4,-0.00050354,-0.001419067,0.011964798,0,
00:04.4,-0.000486374,-0.001413345,0.011976242,0,
00:04.4,-0.00047493,-0.001407623,0.011987686,0,
00:04.4,-0.000497818,-0.001407623,0.01197052,0,
00:04.4,-0.000417709,-0.001419067,0.012010574,0,
00:04.4,-0.000457764,-0.001419067,0.01197052,0,
00:04.4,-0.000469208,-0.001407623,0.012022018,0,
00:04.4,-0.000526428,-0.001413345,0.012010574,0,
00:04.4,-0.000520706,-0.001413345,0.011976242,0,
00:04.4,-0.000463486,-0.001407623,0.01202774,0,
00:04.4,-0.00044632,-0.001413345,0.012039185,0,
00:04.5,-0.000486374,-0.001407623,0.012033463,0,
00:04.5,-0.00053215,-0.001407623,0.012039185,0,
00:04.5,-0.000555038,-0.001419067,0.012044907,0,
00:04.5,-0.000429153,-0.001413345,0.012010574,0,
00:04.5,-0.000497818,-0.001413345,0.012062073,0,
00:04.5,-0.00047493,-0.001419067,0.012102127,0,
00:04.5,-0.000434875,-0.001396179,0.012022018,0,
00:04.5,-0.00047493,-0.001401901,0.012056351,0,
00:04.5,-0.000509262,-0.001396179,0.012056351,0,
00:04.5,-0.000509262,-0.001413345,0.012050629,0,
00:04.5,-0.000480652,-0.001413345,0.012067795,0,
00:04.5,-0.000423431,-0.001407623,0.012067795,0,
00:04.5,-0.000429153,-0.001401901,0.012090683,0,
00:04.5,-0.000469208,-0.001413345,0.012084961,0,
00:04.5,-0.000520706,-0.001407623,0.012033463,0,
00:04.5,-0.000497818,-0.001407623,0.012125015,0,
00:04.5,-0.000497818,-0.001401901,0.012073517,0,
00:04.5,-0.00053215,-0.001413345,0.012050629,0,
00:04.5,-0.00047493,-0.001407623,0.012090683,0,
00:04.5,-0.000417709,-0.001401901,0.012107849,0,
00:04.5,-0.000526428,-0.001407623,0.012073517,0,
00:04.5,-0.000480652,-0.001413345,0.012102127,0,
00:04.5,-0.000514984,-0.001407623,0.012130737,0,
00:04.5,-0.000617981,-0.001413345,0.012119293,0,
00:04.5,-0.00047493,-0.001407623,0.012090683,0,
00:04.6,-0.000314713,-0.001390457,0.012073517,0,
00:04.6,-0.000452042,-0.001390457,0.012119293,0,
00:04.6,-0.000492096,-0.001401901,0.012130737,0,
00:04.6,-0.000469208,-0.001407623,0.012125015,0,
00:04.6,-0.000480652,-0.001407623,0.012102127,0,
00:04.6,-0.00050354,-0.001413345,0.012113571,0,
00:04.6,-0.000526428,-0.001407623,0.012125015,0,
00:04.6,-0.000480652,-0.001401901,0.012130737,0,
00:04.6,-0.000463486,-0.001407623,0.012096405,0,
00:04.6,-0.000463486,-0.001401901,0.012136459,0,
00:04.6,-0.000492096,-0.001401901,0.01216507,0,
00:04.6,-0.000492096,-0.001407623,0.012084961,0,
00:04.6,-0.000520706,-0.001396179,0.012130737,0,
00:04.6,-0.000589371,-0.001401901,0.012130737,0,
00:04.6,-0.000537872,-0.001396179,0.012096405,0,
00:04.6,-0.00056076,-0.001390457,0.012136459,0,
00:04.6,-0.000452042,-0.001396179,0.012113571,0,
00:04.6,-0.000417709,-0.001390457,0.012119293,0,
00:04.6,-0.00044632,-0.001390457,0.01216507,0,
00:04.6,-0.000452042,-0.001396179,0.012147903,0,
00:04.6,-0.000469208,-0.001401901,0.01216507,0,
00:04.6,-0.00050354,-0.001396179,0.012102127,0,
00:04.6,-0.000480652,-0.001390457,0.012102127,0,
00:04.6,-0.000486374,-0.001390457,0.012090683,0,
00:04.6,-0.000486374,-0.001390457,0.012113571,0,
00:04.7,-0.000480652,-0.001396179,0.012136459,0,
00:04.7,-0.000452042,-0.001401901,0.012142181,0,
00:04.7,-0.000509262,-0.001396179,0.012153625,0,
00:04.7,-0.000520706,-0.001390457,0.012153625,0,
00:04.7,-0.000543594,-0.001401901,0.012119293,0,
00:04.7,-0.000595093,-0.001396179,0.012107849,0,
00:04.7,-0.000555038,-0.001384735,0.012130737,0,
00:04.7,-0.000486374,-0.001390457,0.012113571,0,
00:04.7,-0.00053215,-0.001390457,0.012136459,0,
00:04.7,-0.000463486,-0.001396179,0.012187958,0,
00:04.7,-0.000434875,-0.001384735,0.012147903,0,
00:04.7,-0.000429153,-0.001379013,0.012142181,0,
00:04.7,-0.000480652,-0.001379013,0.012136459,0,
00:04.7,-0.000514984,-0.001379013,0.012130737,0,
00:04.7,-0.000514984,-0.001379013,0.012130737,0,
00:04.7,-0.000463486,-0.001384735,0.012102127,0,
00:04.7,-0.000463486,-0.001379013,0.012113571,0,
00:04.7,-0.000480652,-0.001384735,0.012079239,0,
00:04.7,-0.000509262,-0.001390457,0.012102127,0,
00:04.7,-0.000520706,-0.001396179,0.012170792,0,
00:04.7,-0.000606537,-0.001379013,0.012107849,0,
00:04.7,-0.000589371,-0.001379013,0.012113571,0,
00:04.7,-0.000480652,-0.001373291,0.012119293,0,
00:04.7,-0.000463486,-0.001384735,0.012130737,0,
00:04.7,-0.000469208,-0.001390457,0.012142181,0,
00:04.8,-0.000400543,-0.001379013,0.012113571,0,
00:04.8,-0.000469208,-0.001367569,0.012090683,0,
00:04.8,-0.00056076,-0.001367569,0.012125015,0,
00:04.8,-0.000486374,-0.001384735,0.012142181,0,
00:04.8,-0.00050354,-0.001367569,0.012096405,0,
00:04.8,-0.000497818,-0.001367569,0.012125015,0,
00:04.8,-0.000452042,-0.001361847,0.012119293,0,
00:04.8,-0.000469208,-0.001361847,0.012136459,0,
00:04.8,-0.000509262,-0.001367569,0.012119293,0,
00:04.8,-0.00050354,-0.001367569,0.012142181,0,
00:04.8,-0.00044632,-0.001361847,0.012079239,0,
00:04.8,-0.000509262,-0.001367569,0.012079239,0,
00:04.8,-0.000514984,-0.001356125,0.012073517,0,
00:04.8,-0.000509262,-0.001361847,0.012090683,0,
00:04.8,-0.000652313,-0.001367569,0.012090683,0,
00:04.8,-0.000623703,-0.001373291,0.012119293,0,
00:04.8,-0.000389099,-0.001356125,0.012102127,0,
00:04.8,-0.000457764,-0.001356125,0.012056351,0,
00:04.8,-0.000440598,-0.001356125,0.012033463,0,
00:04.8,-0.000457764,-0.001338959,0.012113571,0,
00:04.8,-0.000514984,-0.001338959,0.012084961,0,
00:04.8,-0.000486374,-0.001356125,0.012084961,0,
00:04.8,-0.000486374,-0.001350403,0.012102127,0,
00:04.8,-0.000537872,-0.001344681,0.012079239,0,
00:04.8,-0.000537872,-0.001338959,0.012062073,0,
00:04.9,-0.000469208,-0.001344681,0.012079239,0,
00:04.9,-0.000520706,-0.001344681,0.012113571,0,
00:04.9,-0.000566483,-0.001344681,0.012107849,0,
00:04.9,-0.000509262,-0.001338959,0.012050629,0,
00:04.9,-0.000509262,-0.001350403,0.012062073,0,
00:04.9,-0.000509262,-0.001350403,0.012044907,0,
00:04.9,-0.00050354,-0.001338959,0.012067795,0,
00:04.9,-0.000469208,-0.001338959,0.012073517,0,
00:04.9,-0.000463486,-0.001333237,0.012039185,0,
00:04.9,-0.000457764,-0.001327515,0.012033463,0,
00:04.9,-0.000434875,-0.001333237,0.012079239,0,
00:04.9,-0.000457764,-0.001338959,0.012067795,0,
00:04.9,-0.000492096,-0.001338959,0.012016296,0,
00:04.9,-0.000463486,-0.001338959,0.011993408,0,
00:04.9,-0.000492096,-0.001344681,0.012073517,0,
00:04.9,-0.000457764,-0.001338959,0.01202774,0,
00:04.9,-0.000457764,-0.001327515,0.011993408,0,
00:04.9,-0.000440598,-0.001338959,0.012056351,0,
00:04.9,-0.000463486,-0.001338959,0.012004852,0,
00:04.9,-0.000526428,-0.001333237,0.012022018,0,
00:04.9,-0.00053215,-0.001333237,0.012022018,0,
00:04.9,-0.000452042,-0.001338959,0.012044907,0,
00:04.9,-0.000400543,-0.001333237,0.012004852,0,
00:04.9,-0.000486374,-0.001333237,0.012010574,0,
00:04.9,-0.000469208,-0.001333237,0.012010574,0,
00:05.0,-0.000394821,-0.001344681,0.011947632,0,
00:05.0,-0.000417709,-0.001338959,0.01199913,0,
00:05.0,-0.000440598,-0.001333237,0.011976242,0,
00:05.0,-0.00047493,-0.001333237,0.012016296,0,
00:05.0,-0.00044632,-0.001344681,0.01197052,0,
00:05.0,-0.000400543,-0.001344681,0.011987686,0,
00:05.0,-0.000469208,-0.001338959,0.011964798,0,
00:05.0,-0.000520706,-0.001333237,0.011947632,0,
00:05.0,-0.000463486,-0.001327515,0.011964798,0,
00:05.0,-0.00047493,-0.001338959,0.011959076,0,
00:05.0,-0.000429153,-0.001321793,0.011953354,0,
00:05.0,-0.000440598,-0.001333237,0.011964798,0,
00:00:05,-0.000429153,-0.001333237,0.011981964,0,
00:05.0,-0.000492096,-0.001316071,0.011930466,0,
00:05.0,-0.000423431,-0.001333237,0.011924744,0,
00:05.0,-0.000400543,-0.001333237,0.011873245,0,
00:05.0,-0.000537872,-0.001333237,0.01197052,0,
00:05.0,-0.000486374,-0.001344681,0.011936188,0,
00:05.0,-0.000400543,-0.001344681,0.011936188,0,
00:05.0,-0.000417709,-0.001338959,0.011890411,0,
00:05.0,-0.000457764,-0.001350403,0.011901855,0,
00:05.0,-0.000411987,-0.001333237,0.01194191,0,
00:05.0,-0.000383377,-0.001333237,0.011884689,0,
00:05.0,-0.000480652,-0.001350403,0.011907578,0,
00:05.0,-0.000537872,-0.001356125,0.011896133,0,
00:05.1,-0.000520706,-0.001361847,0.011884689,0,
00:05.1,-0.000400543,-0.001350403,0.011850357,0,
00:05.1,-0.00044632,-0.001361847,0.011907578,0,
00:05.1,-0.000366211,-0.001361847,0.011884689,0,
00:05.1,-0.000514984,-0.001350403,0.011804581,0,
00:05.1,-0.000486374,-0.001350403,0.011861801,0,
00:05.1,-0.000417709,-0.001361847,0.011896133,0,
00:05.1,-0.00050354,-0.001356125,0.011878967,0,
00:05.1,-0.000480652,-0.001350403,0.011873245,0,
00:05.1,-0.000463486,-0.001356125,0.011844635,0,
00:05.1,-0.000520706,-0.001367569,0.011838913,0,
00:05.1,-0.00050354,-0.001367569,0.011878967,0,
00:05.1,-0.000434875,-0.001367569,0.011867523,0,
00:05.1,-0.000480652,-0.001373291,0.011810303,0,
00:05.1,-0.000469208,-0.001373291,0.011844635,0,
00:05.1,-0.000480652,-0.001373291,0.011838913,0,
00:05.1,-0.000486374,-0.001384735,0.011827469,0,
00:05.1,-0.000429153,-0.001384735,0.011798859,0,
00:05.1,-0.000457764,-0.001384735,0.011816025,0,
00:05.1,-0.000509262,-0.001379013,0.011816025,0,
00:05.1,-0.000497818,-0.001379013,0.011827469,0,
00:05.1,-0.000509262,-0.001384735,0.011804581,0,
00:05.1,-0.000572205,-0.001390457,0.011816025,0,
00:05.1,-0.000486374,-0.001396179,0.01174736,0,
00:05.1,-0.000434875,-0.001396179,0.011804581,0,
00:05.2,-0.000463486,-0.001390457,0.011827469,0,
00:05.2,-0.000480652,-0.001384735,0.011827469,0,
00:05.2,-0.000497818,-0.001384735,0.01177597,0,
00:05.2,-0.000589371,-0.001384735,0.011804581,0,
00:05.2,-0.000595093,-0.001396179,0.011798859,0,
00:05.2,-0.000480652,-0.001407623,0.011741638,0,
00:05.2,-0.000520706,-0.001413345,0.011770248,0,
00:05.2,-0.00050354,-0.001413345,0.011804581,0,
00:05.2,-0.000463486,-0.001396179,0.011741638,0,
00:05.2,-0.000480652,-0.001401901,0.011650085,0,
00:05.2,-0.000457764,-0.001407623,0.011764526,0,
00:05.2,-0.000537872,-0.001407623,0.011753082,0,
00:05.2,-0.000514984,-0.001413345,0.011735916,0,
00:05.2,-0.000526428,-0.001413345,0.011701584,0,
00:05.2,-0.000612259,-0.001424789,0.011753082,0,
00:05.2,-0.000492096,-0.001424789,0.011758804,0,
00:05.2,-0.000514984,-0.001413345,0.011701584,0,
00:05.2,-0.000555038,-0.001413345,0.011707306,0,
00:05.2,-0.000555038,-0.001413345,0.011672974,0,
00:05.2,-0.000520706,-0.001419067,0.011724472,0,
00:05.2,-0.000595093,-0.001441956,0.011713028,0,
00:05.2,-0.00047493,-0.001424789,0.011730194,0,
00:05.2,-0.00050354,-0.001424789,0.011735916,0,
00:05.2,-0.000514984,-0.001424789,0.011672974,0,
00:05.2,-0.000555038,-0.001436234,0.011684418,0,
00:05.3,-0.000652313,-0.001436234,0.011730194,0,
00:05.3,-0.00053215,-0.001424789,0.011684418,0,
00:05.3,-0.00044632,-0.001419067,0.011615753,0,
00:05.3,-0.000549316,-0.001430511,0.01166153,0,
00:05.3,-0.00053215,-0.001441956,0.011678696,0,
00:05.3,-0.000555038,-0.001447678,0.011650085,0,
00:05.3,-0.000629425,-0.001447678,0.011678696,0,
00:05.3,-0.000583649,-0.001441956,0.01166153,0,
00:05.3,-0.000537872,-0.001436234,0.011604309,0,
00:05.3,-0.00056076,-0.001436234,0.011627197,0,
00:05.3,-0.00056076,-0.001436234,0.011678696,0,
00:05.3,-0.000589371,-0.001436234,0.011644363,0,
00:05.3,-0.000623703,-0.001441956,0.011632919,0,
00:05.3,-0.000635147,-0.001459122,0.011627197,0,
00:05.3,-0.000589371,-0.0014534,0.011621475,0,
00:05.3,-0.000623703,-0.001447678,0.01171875,0,
00:05.3,-0.000635147,-0.001447678,0.011610031,0,
00:05.3,-0.000572205,-0.0014534,0.011535645,0,
00:05.3,-0.000566483,-0.001447678,0.011587143,0,
00:05.3,-0.000595093,-0.001459122,0.011621475,0,
00:05.3,-0.000589371,-0.001470566,0.011587143,0,
00:05.3,-0.000612259,-0.001464844,0.011564255,0,
00:05.3,-0.000595093,-0.00148201,0.011615753,0,
00:05.3,-0.000612259,-0.00148201,0.011592865,0,
00:05.3,-0.000663757,-0.001470566,0.011564255,0,
00:05.4,-0.000617981,-0.00148201,0.011592865,0,
00:05.4,-0.000612259,-0.001487732,0.011541367,0,
00:05.4,-0.000617981,-0.001476288,0.011564255,0,
00:05.4,-0.000623703,-0.00148201,0.011592865,0,
00:05.4,-0.000663757,-0.001493454,0.011529922,0,
00:05.4,-0.000715256,-0.001487732,0.011541367,0,
00:05.4,-0.000583649,-0.001476288,0.011512756,0,
00:05.4,-0.000692368,-0.00148201,0.011569977,0,
00:05.4,-0.00075531,-0.001476288,0.011512756,0,
00:05.4,-0.000663757,-0.001487732,0.011541367,0,
00:05.4,-0.000583649,-0.001487732,0.011529922,0,
00:05.4,-0.000589371,-0.001487732,0.01149559,0,
00:05.4,-0.000646591,-0.001487732,0.011512756,0,
00:05.4,-0.000652313,-0.00148201,0.011501312,0,
00:05.4,-0.000646591,-0.001487732,0.011478424,0,
00:05.4,-0.000663757,-0.00148201,0.011461258,0,
00:05.4,-0.000663757,-0.001476288,0.011478424,0,
00:05.4,-0.000640869,-0.00148201,0.011472702,0,
00:05.4,-0.000680923,-0.00148201,0.011449814,0,
00:05.4,-0.000761032,-0.001487732,0.011535645,0,
00:05.4,-0.000635147,-0.00148201,0.01146698,0,
00:05.4,-0.000640869,-0.00148201,0.011404037,0,
00:05.4,-0.000675201,-0.001476288,0.011426926,0,
00:05.4,-0.000686646,-0.001476288,0.011472702,0,
00:05.4,-0.000738144,-0.001487732,0.011455536,0,
00:05.5,-0.00069809,-0.001493454,0.011415482,0,
00:05.5,-0.000692368,-0.001487732,0.011404037,0,
00:05.5,-0.000778198,-0.001493454,0.011375427,0,
00:05.5,-0.000692368,-0.00148201,0.011363983,0,
00:05.5,-0.000635147,-0.001499176,0.011432648,0,
00:05.5,-0.000692368,-0.001504898,0.011398315,0,
00:05.5,-0.000652313,-0.001504898,0.011369705,0,
00:05.5,-0.000715256,-0.001504898,0.011381149,0,
00:05.5,-0.000646591,-0.001504898,0.01140976,0,
00:05.5,-0.000646591,-0.001499176,0.011358261,0,
00:05.5,-0.000715256,-0.001504898,0.011352539,0,
00:05.5,-0.000715256,-0.001499176,0.01140976,0,
00:05.5,-0.000646591,-0.001504898,0.011358261,0,
00:05.5,-0.000658035,-0.001516342,0.011295319,0,
00:05.5,-0.000738144,-0.001527786,0.011358261,0,
00:05.5,-0.000743866,-0.001516342,0.011363983,0,
00:05.5,-0.000652313,-0.001504898,0.01127243,0,
00:05.5,-0.000669479,-0.001504898,0.011312485,0,
00:05.5,-0.00069809,-0.001499176,0.011341095,0,
00:05.5,-0.000715256,-0.001504898,0.011341095,0,
00:05.5,-0.000772476,-0.00151062,0.011329651,0,
00:05.5,-0.000778198,-0.001516342,0.011306763,0,
00:05.5,-0.000663757,-0.001504898,0.011301041,0,
00:05.5,-0.000663757,-0.001504898,0.011278152,0,
00:05.5,-0.000795364,-0.001516342,0.011283875,0,
00:05.6,-0.000680923,-0.00151062,0.011312485,0,
00:05.6,-0.000743866,-0.00151062,0.011278152,0,
00:05.6,-0.000703812,-0.00151062,0.011295319,0,
00:05.6,-0.000617981,-0.001504898,0.01127243,0,
00:05.6,-0.000640869,-0.00151062,0.011266708,0,
00:05.6,-0.000680923,-0.001516342,0.01127243,0,
00:05.6,-0.000709534,-0.001493454,0.01121521,0,
00:05.6,-0.000709534,-0.001487732,0.011226654,0,
00:05.6,-0.000732422,-0.001499176,0.011203766,0,
00:05.6,-0.000795364,-0.00151062,0.011295319,0,
00:05.6,-0.0007267,-0.001504898,0.011255264,0,
00:05.6,-0.000663757,-0.001493454,0.01121521,0,
00:05.6,-0.000703812,-0.001504898,0.011203766,0,
00:05.6,-0.00075531,-0.001504898,0.011238098,0,
00:05.6,-0.00075531,-0.001499176,0.01121521,0,
00:05.6,-0.000720978,-0.001493454,0.0111866,0,
00:05.6,-0.000823975,-0.001504898,0.01121521,0,
00:05.6,-0.000743866,-0.001499176,0.011180878,0,
00:05.6,-0.00069809,-0.001493454,0.011192322,0,
00:05.6,-0.00069809,-0.001487732,0.011163712,0,
00:05.6,-0.000732422,-0.001493454,0.011169434,0,
00:05.6,-0.0007267,-0.001493454,0.011175156,0,
00:05.6,-0.000715256,-0.001499176,0.011180878,0,
00:05.6,-0.000761032,-0.001493454,0.01121521,0,
00:05.6,-0.000841141,-0.001476288,0.011146545,0,
00:05.7,-0.0007267,-0.001476288,0.011140823,0,
00:05.7,-0.000680923,-0.001487732,0.01115799,0,
00:05.7,-0.00078392,-0.001487732,0.011129379,0,
00:05.7,-0.000812531,-0.001487732,0.011123657,0,
00:05.7,-0.000715256,-0.001493454,0.0111866,0,
00:05.7,-0.00075531,-0.001487732,0.011135101,0,
00:05.7,-0.000869751,-0.001476288,0.011123657,0,
00:05.7,-0.000852585,-0.001470566,0.011077881,0,
00:05.7,-0.000743866,-0.001470566,0.011106491,0,
00:05.7,-0.000732422,-0.001470566,0.011129379,0,
00:05.7,-0.000732422,-0.001476288,0.011117935,0,
00:05.7,-0.000732422,-0.00148201,0.011123657,0,
00:05.7,-0.00078392,-0.001464844,0.011066437,0,
00:05.7,-0.000801086,-0.001470566,0.011077881,0,
00:05.7,-0.000823975,-0.001459122,0.011083603,0,
00:05.7,-0.000778198,-0.001470566,0.011083603,0,
00:05.7,-0.00078392,-0.001464844,0.011066437,0,
00:05.7,-0.000795364,-0.001464844,0.011095047,0,
00:05.7,-0.000738144,-0.001459122,0.011083603,0,
00:05.7,-0.000720978,-0.001464844,0.011043549,0,
00:05.7,-0.000738144,-0.0014534,0.011060715,0,
00:05.7,-0.000858307,-0.001459122,0.011072159,0,
00:05.7,-0.000898361,-0.001470566,0.011032104,0,
00:05.7,-0.000858307,-0.001459122,0.01099205,0,
00:05.7,-0.000743866,-0.0014534,0.011060715,0,
00:05.8,-0.000772476,-0.001447678,0.011032104,0,
00:05.8,-0.000846863,-0.0014534,0.011009216,0,
00:05.8,-0.000743866,-0.001464844,0.01102066,0,
00:05.8,-0.000778198,-0.001441956,0.011009216,0,
00:05.8,-0.0007267,-0.001436234,0.010997772,0,
00:05.8,-0.000761032,-0.001436234,0.011026382,0,
00:05.8,-0.000812531,-0.001441956,0.011014938,0,
00:05.8,-0.00078392,-0.001441956,0.010980606,0,
00:05.8,-0.000835419,-0.001430511,0.010957718,0,
00:05.8,-0.000818253,-0.001447678,0.010946274,0,
00:05.8,-0.000778198,-0.001436234,0.010969162,0,
00:05.8,-0.000778198,-0.001436234,0.011054993,0,
00:05.8,-0.000778198,-0.001436234,0.010980606,0,
00:05.8,-0.000801086,-0.001441956,0.010946274,0,
00:05.8,-0.000778198,-0.001447678,0.010951996,0,
00:05.8,-0.000858307,-0.001436234,0.010951996,0,
00:05.8,-0.000898361,-0.001441956,0.010929108,0,
00:05.8,-0.000789642,-0.0014534,0.010969162,0,
00:05.8,-0.000835419,-0.001447678,0.01096344,0,
00:05.8,-0.000881195,-0.001459122,0.010929108,0,
00:05.8,-0.000766754,-0.001447678,0.010929108,0,
00:05.8,-0.000823975,-0.001436234,0.010951996,0,
00:05.8,-0.000835419,-0.001436234,0.010894775,0,
00:05.8,-0.000766754,-0.001436234,0.010906219,0,
00:05.8,-0.000766754,-0.001459122,0.010917664,0,
00:05.9,-0.000841141,-0.001459122,0.010929108,0,
00:05.9,-0.000864029,-0.001447678,0.010871887,0,
00:05.9,-0.000835419,-0.0014534,0.010900497,0,
00:05.9,-0.00078392,-0.001441956,0.010854721,0,
00:05.9,-0.000801086,-0.001447678,0.010871887,0,
00:05.9,-0.000881195,-0.001459122,0.010986328,0,
00:05.9,-0.000812531,-0.0014534,0.010923386,0,
00:05.9,-0.000886917,-0.001459122,0.010929108,0,
00:05.9,-0.000926971,-0.0014534,0.010826111,0,
00:05.9,-0.000829697,-0.0014534,0.010889053,0,
00:05.9,-0.000812531,-0.001447678,0.010917664,0,
00:05.9,-0.000806808,-0.001441956,0.010860443,0,
00:05.9,-0.000841141,-0.001447678,0.010854721,0,
00:05.9,-0.000881195,-0.001459122,0.010860443,0,
00:05.9,-0.000858307,-0.0014534,0.010860443,0,
00:05.9,-0.000841141,-0.001447678,0.010843277,0,
00:05.9,-0.000898361,-0.001447678,0.010848999,0,
00:05.9,-0.000823975,-0.001447678,0.010831833,0,
00:05.9,-0.000789642,-0.001447678,0.010843277,0,
00:05.9,-0.000841141,-0.001459122,0.010871887,0,
00:05.9,-0.000921249,-0.001459122,0.010831833,0,
00:05.9,-0.000915527,-0.0014534,0.010797501,0,
00:05.9,-0.000886917,-0.001441956,0.010820389,0,
00:05.9,-0.000852585,-0.001436234,0.010814667,0,
00:05.9,-0.000881195,-0.001447678,0.010820389,0,
00:06.0,-0.000915527,-0.001441956,0.010826111,0,
00:06.0,-0.001041412,-0.0014534,0.010860443,0,
00:06.0,-0.000749588,-0.001441956,0.010803223,0,
00:06.0,-0.000852585,-0.001447678,0.010763168,0,
00:06.0,-0.000835419,-0.001441956,0.010774612,0,
00:06.0,-0.000858307,-0.001441956,0.010791779,0,
00:06.0,-0.000921249,-0.001441956,0.010797501,0,
00:06.0,-0.000898361,-0.001430511,0.010780334,0,
00:06.0,-0.000852585,-0.001441956,0.010763168,0,
00:06.0,-0.000818253,-0.001447678,0.010797501,0,
00:06.0,-0.000904083,-0.001441956,0.010763168,0,
00:06.0,-0.000938416,-0.001430511,0.010763168,0,
00:00:06,-0.000886917,-0.001430511,0.010774612,0,
00:06.0,-0.000926971,-0.001436234,0.010705948,0,
00:06.0,-0.000915527,-0.001441956,0.010723114,0,
00:06.0,-0.000852585,-0.001436234,0.01074028,0,
00:06.0,-0.000869751,-0.001430511,0.010774612,0,
00:06.0,-0.000909805,-0.001424789,0.010746002,0,
00:06.0,-0.000972748,-0.001436234,0.010746002,0,
00:06.0,-0.000858307,-0.001447678,0.01074028,0,
00:06.0,-0.000972748,-0.001441956,0.010757446,0,
00:06.0,-0.000955582,-0.001441956,0.010728836,0,
00:06.0,-0.000864029,-0.001441956,0.01074028,0,
00:06.0,-0.000829697,-0.001441956,0.010717392,0,
00:06.0,-0.000881195,-0.001436234,0.010705948,0,
00:06.1,-0.000904083,-0.001447678,0.010700226,0,
00:06.1,-0.000944138,-0.0014534,0.01071167,0,
00:06.1,-0.000881195,-0.001447678,0.010723114,0,
00:06.1,-0.000892639,-0.001430511,0.010694504,0,
00:06.1,-0.000904083,-0.001436234,0.010677338,0,
00:06.1,-0.000898361,-0.001441956,0.010694504,0,
00:06.1,-0.000932693,-0.001447678,0.010717392,0,
00:06.1,-0.000938416,-0.001430511,0.010728836,0,
00:06.1,-0.000961304,-0.001430511,0.01068306,0,
00:06.1,-0.000881195,-0.001430511,0.010677338,0,
00:06.1,-0.000864029,-0.001430511,0.010654449,0,
00:06.1,-0.000926971,-0.001424789,0.010671616,0,
00:06.1,-0.000967026,-0.001436234,0.010728836,0,
00:06.1,-0.00094986,-0.001436234,0.010728836,0,
00:06.1,-0.001058578,-0.001419067,0.010677338,0,
00:06.1,-0.001029968,-0.001419067,0.010660172,0,
00:06.1,-0.000892639,-0.001419067,0.010671616,0,
00:06.1,-0.000858307,-0.001401901,0.010677338,0,
00:06.1,-0.000875473,-0.001407623,0.010688782,0,
00:06.1,-0.000932693,-0.001413345,0.010643005,0,
00:06.1,-0.000932693,-0.001407623,0.010648727,0,
00:06.1,-0.000938416,-0.001396179,0.010665894,0,
00:06.1,-0.000995636,-0.001401901,0.010654449,0,
00:06.1,-0.000926971,-0.001413345,0.010643005,0,
00:06.1,-0.000972748,-0.001407623,0.010654449,0,
00:06.2,-0.000921249,-0.001396179,0.010654449,0,
00:06.2,-0.000944138,-0.001390457,0.010602951,0,
00:06.2,-0.00094986,-0.001413345,0.010591507,0,
00:06.2,-0.000955582,-0.001424789,0.010688782,0,
00:06.2,-0.000961304,-0.001407623,0.010614395,0,
00:06.2,-0.000938416,-0.001407623,0.010614395,0,
00:06.2,-0.000984192,-0.001407623,0.010643005,0,
00:06.2,-0.001024246,-0.001407623,0.010637283,0,
00:06.2,-0.001110077,-0.001407623,0.010625839,0,
00:06.2,-0.000967026,-0.001407623,0.010585785,0,
00:06.2,-0.000829697,-0.001390457,0.010528564,0,
00:06.2,-0.000938416,-0.001407623,0.010608673,0,
00:06.2,-0.000984192,-0.001407623,0.010671616,0,
00:06.2,-0.00100708,-0.001407623,0.010591507,0,
00:06.2,-0.000955582,-0.001407623,0.010562897,0,
00:06.2,-0.001029968,-0.001401901,0.010591507,0,
00:06.2,-0.001064301,-0.001401901,0.010602951,0,
00:06.2,-0.000938416,-0.001401901,0.010574341,0,
00:06.2,-0.000944138,-0.001407623,0.010574341,0,
00:06.2,-0.00097847,-0.001396179,0.010522842,0,
00:06.2,-0.000955582,-0.001396179,0.010562897,0,
00:06.2,-0.000961304,-0.001401901,0.010534286,0,
00:06.2,-0.000967026,-0.001407623,0.010585785,0,
00:06.2,-0.000984192,-0.001396179,0.010534286,0,
00:06.2,-0.00103569,-0.001390457,0.010608673,0,
00:06.3,-0.001024246,-0.001396179,0.010551453,0,
00:06.3,-0.001058578,-0.001396179,0.010551453,0,
00:06.3,-0.001001358,-0.001390457,0.010540009,0,
00:06.3,-0.000972748,-0.001384735,0.01051712,0,
00:06.3,-0.000989914,-0.001401901,0.010522842,0,
00:06.3,-0.000961304,-0.001390457,0.010545731,0,
00:06.3,-0.000972748,-0.001401901,0.010568619,0,
00:06.3,-0.00097847,-0.001396179,0.010505676,0,
00:06.3,-0.001018524,-0.001384735,0.010522842,0,
00:06.3,-0.001104355,-0.001396179,0.01051712,0,
00:06.3,-0.000972748,-0.001379013,0.010551453,0,
00:06.3,-0.000915527,-0.001373291,0.01051712,0,
00:06.3,-0.000984192,-0.001384735,0.010494232,0,
00:06.3,-0.00097847,-0.001379013,0.010482788,0,
00:06.3,-0.000989914,-0.001379013,0.010494232,0,
00:06.3,-0.001018524,-0.001384735,0.010511398,0,
00:06.3,-0.001029968,-0.001390457,0.010522842,0,
00:06.3,-0.001001358,-0.001379013,0.010494232,0,
00:06.3,-0.001041412,-0.001367569,0.010379791,0,
00:06.3,-0.001041412,-0.001367569,0.0104599,0,
00:06.3,-0.00100708,-0.001367569,0.010534286,0,
00:06.3,-0.001024246,-0.001379013,0.010540009,0,
00:06.3,-0.001052856,-0.001373291,0.010494232,0,
00:06.3,-0.000972748,-0.001379013,0.010477066,0,
00:06.3,-0.000961304,-0.001379013,0.010505676,0,
00:06.4,-0.00097847,-0.001373291,0.010499954,0,
00:06.4,-0.001087189,-0.001361847,0.010442734,0,
00:06.4,-0.000967026,-0.001356125,0.0104599,0,
00:06.4,-0.000984192,-0.001361847,0.010414124,0,
00:06.4,-0.001018524,-0.001367569,0.010408401,0,
00:06.4,-0.00100708,-0.001373291,0.010534286,0,
00:06.4,-0.001018524,-0.001367569,0.01048851,0,
00:06.4,-0.001041412,-0.001367569,0.010477066,0,
00:06.4,-0.00094986,-0.001373291,0.0104599,0,
00:06.4,-0.000995636,-0.001367569,0.010396957,0,
00:06.4,-0.001029968,-0.001367569,0.010402679,0,
00:06.4,-0.001058578,-0.001367569,0.010499954,0,
00:06.4,-0.001104355,-0.001379013,0.010437012,0,
00:06.4,-0.000984192,-0.001373291,0.010437012,0,
00:06.4,-0.00097847,-0.001361847,0.01043129,0,
00:06.4,-0.001029968,-0.001356125,0.010437012,0,
00:06.4,-0.001064301,-0.001367569,0.010425568,0,
00:06.4,-0.000938416,-0.001356125,0.010465622,0,
00:06.4,-0.001012802,-0.001356125,0.01043129,0,
00:06.4,-0.000967026,-0.001356125,0.010408401,0,
00:06.4,-0.001024246,-0.001361847,0.010448456,0,
00:06.4,-0.001064301,-0.001373291,0.010408401,0,
00:06.4,-0.000989914,-0.001356125,0.010408401,0,
00:06.4,-0.00100708,-0.001356125,0.010414124,0,
00:06.4,-0.000984192,-0.001361847,0.010414124,0,
00:06.5,-0.001018524,-0.001361847,0.010437012,0,
00:06.5,-0.001064301,-0.001361847,0.010385513,0,
00:06.5,-0.001092911,-0.001356125,0.010391235,0,
00:06.5,-0.001132965,-0.001373291,0.010391235,0,
00:06.5,-0.000932693,-0.001356125,0.010437012,0,
00:06.5,-0.001018524,-0.001350403,0.010425568,0,
00:06.5,-0.001075745,-0.001350403,0.010328293,0,
00:06.5,-0.000972748,-0.001356125,0.010351181,0,
00:06.5,-0.001058578,-0.001350403,0.010391235,0,
00:06.5,-0.000989914,-0.001344681,0.010414124,0,
00:06.5,-0.00094986,-0.001350403,0.010408401,0,
00:06.5,-0.000995636,-0.001344681,0.010402679,0,
00:06.5,-0.001029968,-0.001338959,0.010419846,0,
00:06.5,-0.000984192,-0.001356125,0.010379791,0,
00:06.5,-0.00103569,-0.001356125,0.010374069,0,
00:06.5,-0.001001358,-0.001338959,0.010374069,0,
00:06.5,-0.000967026,-0.001327515,0.010345459,0,
00:06.5,-0.001001358,-0.001333237,0.010368347,0,
00:06.5,-0.001081467,-0.001327515,0.010374069,0,
00:06.5,-0.001081467,-0.001321793,0.010351181,0,
00:06.5,-0.001029968,-0.001321793,0.010379791,0,
00:06.5,-0.000955582,-0.001316071,0.010339737,0,
00:06.5,-0.000984192,-0.001316071,0.010334015,0,
00:06.5,-0.001047134,-0.001327515,0.010368347,0,
00:06.5,-0.001001358,-0.001310349,0.010379791,0,
00:06.6,-0.001104355,-0.001310349,0.010339737,0,
00:06.6,-0.001132965,-0.001310349,0.010396957,0,
00:06.6,-0.001012802,-0.001304626,0.010379791,0,
00:06.6,-0.000915527,-0.001316071,0.010374069,0,
00:06.6,-0.000915527,-0.001293182,0.010362625,0,
00:06.6,-0.000961304,-0.001293182,0.010328293,0,
00:06.6,-0.001001358,-0.001293182,0.010345459,0,
00:06.6,-0.00103569,-0.001304626,0.010328293,0,
00:06.6,-0.001029968,-0.001310349,0.010339737,0,
00:06.6,-0.001018524,-0.001298904,0.010328293,0,
00:06.6,-0.000995636,-0.001293182,0.010322571,0,
00:06.6,-0.001001358,-0.001293182,0.010356903,0,
00:06.6,-0.001092911,-0.00128746,0.010362625,0,
00:06.6,-0.001098633,-0.00128746,0.010345459,0,
00:06.6,-0.000926971,-0.00128746,0.010351181,0,
00:06.6,-0.000961304,-0.00128746,0.010328293,0,
00:06.6,-0.001024246,-0.001276016,0.010339737,0,
00:06.6,-0.001012802,-0.001276016,0.010356903,0,
00:06.6,-0.001024246,-0.001281738,0.010334015,0,
00:06.6,-0.00103569,-0.001276016,0.010316849,0,
00:06.6,-0.000961304,-0.001270294,0.010305405,0,
00:06.6,-0.000972748,-0.001264572,0.010339737,0,
00:06.6,-0.001041412,-0.00125885,0.010305405,0,
00:06.6,-0.00100708,-0.001270294,0.010328293,0,
00:06.6,-0.001052856,-0.001264572,0.010345459,0,
00:06.7,-0.00103569,-0.001264572,0.010362625,0,
00:06.7,-0.00094986,-0.001247406,0.010345459,0,
00:06.7,-0.000955582,-0.001241684,0.010293961,0,
00:06.7,-0.00094986,-0.00125885,0.010311127,0,
00:06.7,-0.001047134,-0.001264572,0.010322571,0,
00:06.7,-0.001058578,-0.00125885,0.010322571,0,
00:06.7,-0.001041412,-0.001253128,0.010271072,0,
00:06.7,-0.001047134,-0.001264572,0.010328293,0,
00:06.7,-0.000984192,-0.00125885,0.010362625,0,
00:06.7,-0.000984192,-0.00125885,0.010271072,0,
00:06.7,-0.001110077,-0.001253128,0.010311127,0,
00:06.7,-0.001024246,-0.001253128,0.010299683,0,
00:06.7,-0.000984192,-0.00125885,0.010328293,0,
00:06.7,-0.000995636,-0.001253128,0.010316849,0,
00:06.7,-0.000915527,-0.001253128,0.010276794,0,
00:06.7,-0.00097847,-0.00125885,0.010385513,0,
00:06.7,-0.00103569,-0.001253128,0.010351181,0,
00:06.7,-0.001052856,-0.001247406,0.010305405,0,
00:06.7,-0.000972748,-0.001247406,0.010305405,0,
00:06.7,-0.000926971,-0.001247406,0.010299683,0,
00:06.7,-0.00100708,-0.001253128,0.010356903,0,
00:06.7,-0.001024246,-0.001253128,0.010316849,0,
00:06.7,-0.00100708,-0.001253128,0.010293961,0,
00:06.7,-0.000995636,-0.001247406,0.010351181,0,
00:06.7,-0.001052856,-0.001253128,0.010322571,0,
00:06.8,-0.00100708,-0.001247406,0.010305405,0,
00:06.8,-0.001024246,-0.001253128,0.010299683,0,
00:06.8,-0.000989914,-0.001253128,0.010311127,0,
00:06.8,-0.00103569,-0.001247406,0.010293961,0,
00:06.8,-0.000961304,-0.001264572,0.010299683,0,
00:06.8,-0.000972748,-0.001264572,0.010311127,0,
00:06.8,-0.000989914,-0.001247406,0.010311127,0,
00:06.8,-0.00097847,-0.001247406,0.010288239,0,
00:06.8,-0.001001358,-0.001241684,0.010305405,0,
00:06.8,-0.001012802,-0.001247406,0.010299683,0,
00:06.8,-0.00100708,-0.001253128,0.010311127,0,
00:06.8,-0.000972748,-0.001247406,0.010293961,0,
00:06.8,-0.001012802,-0.001253128,0.010282516,0,
00:06.8,-0.000989914,-0.001247406,0.010299683,0,
00:06.8,-0.001012802,-0.001253128,0.010334015,0,
00:06.8,-0.001075745,-0.001241684,0.010328293,0,
00:06.8,-0.001132965,-0.001241684,0.010345459,0,
00:06.8,-0.000904083,-0.001241684,0.010271072,0,
00:06.8,-0.00094986,-0.001241684,0.01026535,0,
00:06.8,-0.001041412,-0.001253128,0.010299683,0,
00:06.8,-0.000995636,-0.001241684,0.010311127,0,
00:06.8,-0.00100708,-0.001247406,0.010328293,0,
00:06.8,-0.000972748,-0.001247406,0.010351181,0,
00:06.8,-0.001041412,-0.001241684,0.010282516,0,
00:06.8,-0.00094986,-0.001235962,0.010276794,0,
00:06.9,-0.00094986,-0.001235962,0.010293961,0,
00:06.9,-0.000938416,-0.001241684,0.010288239,0,
00:06.9,-0.00103569,-0.001253128,0.010305405,0,
00:06.9,-0.001052856,-0.001241684,0.010305405,0,
00:06.9,-0.000921249,-0.001241684,0.010299683,0,
00:06.9,-0.000961304,-0.001241684,0.010305405,0,
00:06.9,-0.001012802,-0.00123024,0.01026535,0,
00:06.9,-0.000984192,-0.001224518,0.010311127,0,
00:06.9,-0.001001358,-0.001235962,0.010339737,0,
00:06.9,-0.000972748,-0.001241684,0.010259628,0,
00:06.9,-0.001029968,-0.001241684,0.010293961,0,
00:06.9,-0.00103569,-0.001235962,0.010311127,0,
00:06.9,-0.000967026,-0.001224518,0.010311127,0,
00:06.9,-0.000944138,-0.001224518,0.010293961,0,
00:06.9,-0.00100708,-0.001235962,0.010328293,0,
00:06.9,-0.001029968,-0.001218796,0.010334015,0,
00:06.9,-0.000961304,-0.001218796,0.010305405,0,
00:06.9,-0.000955582,-0.00123024,0.010276794,0,
00:06.9,-0.000944138,-0.00123024,0.010311127,0,
00:06.9,-0.000944138,-0.001224518,0.010345459,0,
00:06.9,-0.001052856,-0.001224518,0.010322571,0,
00:06.9,-0.001058578,-0.001235962,0.010299683,0,
00:06.9,-0.000921249,-0.001218796,0.010293961,0,
00:06.9,-0.000869751,-0.001218796,0.010351181,0,
00:06.9,-0.000875473,-0.001224518,0.010316849,0,
00:07.0,-0.000984192,-0.001213074,0.010299683,0,
00:07.0,-0.00100708,-0.001218796,0.010305405,0,
00:07.0,-0.00103569,-0.001218796,0.010271072,0,
00:07.0,-0.00094986,-0.001224518,0.010299683,0,
00:07.0,-0.000909805,-0.001224518,0.010345459,0,
00:07.0,-0.00100708,-0.001218796,0.010316849,0,
00:07.0,-0.001024246,-0.001213074,0.010316849,0,
00:07.0,-0.000938416,-0.001218796,0.010334015,0,
00:07.0,-0.000967026,-0.001224518,0.010339737,0,
00:07.0,-0.000984192,-0.001224518,0.010339737,0,
00:07.0,-0.000972748,-0.00123024,0.010322571,0,
00:07.0,-0.000967026,-0.00123024,0.010334015,0,
00:00:07,-0.000898361,-0.001213074,0.010328293,0,
00:07.0,-0.000932693,-0.00120163,0.010328293,0,
00:07.0,-0.000961304,-0.001213074,0.010282516,0,
00:07.0,-0.000984192,-0.001218796,0.010391235,0,
00:07.0,-0.000921249,-0.001213074,0.010356903,0,
00:07.0,-0.000989914,-0.001218796,0.010345459,0,
00:07.0,-0.000932693,-0.001218796,0.010345459,0,
00:07.0,-0.000944138,-0.001213074,0.010339737,0,
00:07.0,-0.000961304,-0.00120163,0.010305405,0,
00:07.0,-0.000938416,-0.001213074,0.010311127,0,
00:07.0,-0.000961304,-0.001218796,0.010322571,0,
00:07.0,-0.000909805,-0.001218796,0.010362625,0,
00:07.0,-0.000961304,-0.001213074,0.010368347,0,
00:07.1,-0.001012802,-0.001213074,0.010328293,0,
00:07.1,-0.00097847,-0.001207352,0.010334015,0,
00:07.1,-0.00094986,-0.001195908,0.010345459,0,
00:07.1,-0.000989914,-0.001207352,0.010328293,0,
00:07.1,-0.000909805,-0.001207352,0.010368347,0,
00:07.1,-0.000961304,-0.001207352,0.010385513,0,
00:07.1,-0.000921249,-0.001207352,0.010402679,0,
00:07.1,-0.000921249,-0.00120163,0.010379791,0,
00:07.1,-0.000904083,-0.001207352,0.010374069,0,
00:07.1,-0.000915527,-0.001213074,0.010334015,0,
00:07.1,-0.000881195,-0.001195908,0.010351181,0,
00:07.1,-0.000944138,-0.001207352,0.010368347,0,
00:07.1,-0.001052856,-0.001218796,0.010402679,0,
00:07.1,-0.000932693,-0.001207352,0.010379791,0,
00:07.1,-0.000892639,-0.001207352,0.010368347,0,
00:07.1,-0.000898361,-0.00120163,0.010328293,0,
00:07.1,-0.000921249,-0.001213074,0.010396957,0,
00:07.1,-0.000926971,-0.001218796,0.010356903,0,
00:07.1,-0.000944138,-0.001207352,0.010374069,0,
00:07.1,-0.000938416,-0.001207352,0.010345459,0,
00:07.1,-0.000898361,-0.001207352,0.010362625,0,
00:07.1,-0.000915527,-0.001207352,0.010414124,0,
00:07.1,-0.000955582,-0.00120163,0.010408401,0,
00:07.1,-0.00097847,-0.001213074,0.010402679,0,
00:07.1,-0.000989914,-0.001218796,0.010465622,0,
00:07.2,-0.000967026,-0.001213074,0.010362625,0,
00:07.2,-0.000835419,-0.001207352,0.010402679,0,
00:07.2,-0.000892639,-0.001213074,0.010334015,0,
00:07.2,-0.000881195,-0.001213074,0.010368347,0,
00:07.2,-0.000921249,-0.001224518,0.010425568,0,
00:07.2,-0.000938416,-0.001218796,0.010419846,0,
00:07.2,-0.000961304,-0.001218796,0.01043129,0,
00:07.2,-0.000944138,-0.001207352,0.010437012,0,
00:07.2,-0.000852585,-0.001218796,0.010402679,0,
00:07.2,-0.000904083,-0.001218796,0.010356903,0,
00:07.2,-0.000944138,-0.001213074,0.010385513,0,
00:07.2,-0.000898361,-0.001224518,0.010391235,0,
00:07.2,-0.000875473,-0.001224518,0.010437012,0,
00:07.2,-0.000989914,-0.00123024,0.010425568,0,
00:07.2,-0.001018524,-0.001224518,0.010391235,0,
00:07.2,-0.000812531,-0.001224518,0.010419846,0,
00:07.2,-0.000886917,-0.00123024,0.010419846,0,
00:07.2,-0.000938416,-0.00123024,0.010448456,0,
00:07.2,-0.000967026,-0.00123024,0.010437012,0,
00:07.2,-0.000926971,-0.001241684,0.010437012,0,
00:07.2,-0.000812531,-0.001235962,0.010448456,0,
00:07.2,-0.000829697,-0.001241684,0.010482788,0,
00:07.2,-0.000886917,-0.001241684,0.010414124,0,
00:07.2,-0.000909805,-0.001241684,0.010437012,0,
00:07.2,-0.00097847,-0.001247406,0.010471344,0,
00:07.3,-0.000944138,-0.001247406,0.010454178,0,
00:07.3,-0.000967026,-0.001235962,0.010402679,0,
00:07.3,-0.000915527,-0.001235962,0.010419846,0,
00:07.3,-0.000841141,-0.001253128,0.01043129,0,
00:07.3,-0.000915527,-0.001247406,0.01048851,0,
00:07.3,-0.00094986,-0.001235962,0.010477066,0,
00:07.3,-0.000909805,-0.00123024,0.010442734,0,
00:07.3,-0.000898361,-0.001247406,0.010437012,0,
00:07.3,-0.000852585,-0.00123024,0.010499954,0,
00:07.3,-0.000892639,-0.001235962,0.010425568,0,
00:07.3,-0.000989914,-0.001247406,0.010425568,0,
00:07.3,-0.000961304,-0.001241684,0.010511398,0,
00:07.3,-0.000915527,-0.001247406,0.010471344,0,
00:07.3,-0.000858307,-0.001241684,0.010465622,0,
00:07.3,-0.000841141,-0.001241684,0.010494232,0,
00:07.3,-0.000795364,-0.00123024,0.010494232,0,
00:07.3,-0.000915527,-0.001241684,0.010448456,0,
00:07.3,-0.000898361,-0.001241684,0.010505676,0,
00:07.3,-0.000886917,-0.001241684,0.0104599,0,
00:07.3,-0.000892639,-0.001241684,0.010465622,0,
00:07.3,-0.000904083,-0.001253128,0.010499954,0,
00:07.3,-0.000984192,-0.001247406,0.010471344,0,
00:07.3,-0.000961304,-0.001247406,0.01048851,0,
00:07.3,-0.000789642,-0.001241684,0.0104599,0,
00:07.3,-0.000915527,-0.001247406,0.010494232,0,
00:07.4,-0.000921249,-0.001247406,0.010505676,0,
00:07.4,-0.000858307,-0.001241684,0.010505676,0,
00:07.4,-0.000852585,-0.001241684,0.01048851,0,
00:07.4,-0.000858307,-0.001235962,0.010465622,0,
00:07.4,-0.000904083,-0.001235962,0.010482788,0,
00:07.4,-0.000944138,-0.001247406,0.010477066,0,
00:07.4,-0.000841141,-0.001247406,0.010540009,0,
00:07.4,-0.000823975,-0.001241684,0.010557175,0,
00:07.4,-0.000852585,-0.001235962,0.010511398,0,
00:07.4,-0.000926971,-0.001247406,0.010494232,0,
00:07.4,-0.000892639,-0.001253128,0.010511398,0,
00:07.4,-0.000898361,-0.001235962,0.010505676,0,
00:07.4,-0.000995636,-0.001241684,0.010505676,0,
00:07.4,-0.000835419,-0.001247406,0.010562897,0,
00:07.4,-0.000835419,-0.001247406,0.010540009,0,
00:07.4,-0.000938416,-0.001247406,0.010522842,0,
00:07.4,-0.000904083,-0.001241684,0.010545731,0,
00:07.4,-0.000812531,-0.001235962,0.010528564,0,
00:07.4,-0.000829697,-0.001247406,0.01051712,0,
00:07.4,-0.000875473,-0.001235962,0.010545731,0,
00:07.4,-0.000846863,-0.001247406,0.010540009,0,
00:07.4,-0.000869751,-0.001247406,0.010522842,0,
00:07.4,-0.000909805,-0.001241684,0.010522842,0,
00:07.4,-0.000869751,-0.001247406,0.010499954,0,
00:07.4,-0.000789642,-0.001241684,0.010574341,0,
00:07.5,-0.000818253,-0.001253128,0.010562897,0,
00:07.5,-0.000852585,-0.001235962,0.010534286,0,
00:07.5,-0.000864029,-0.001247406,0.010540009,0,
00:07.5,-0.000858307,-0.001241684,0.010602951,0,
00:07.5,-0.000904083,-0.001247406,0.010540009,0,
00:07.5,-0.000823975,-0.001241684,0.010505676,0,
00:07.5,-0.000869751,-0.001247406,0.010545731,0,
00:07.5,-0.000875473,-0.001247406,0.010580063,0,
00:07.5,-0.000875473,-0.001247406,0.010557175,0,
00:07.5,-0.000789642,-0.001247406,0.010591507,0,
00:07.5,-0.000904083,-0.001253128,0.010540009,0,
00:07.5,-0.000926971,-0.001247406,0.010528564,0,
00:07.5,-0.000795364,-0.001253128,0.010574341,0,
00:07.5,-0.000846863,-0.001253128,0.010591507,0,
00:07.5,-0.000852585,-0.001253128,0.010580063,0,
00:07.5,-0.000806808,-0.001247406,0.010540009,0,
00:07.5,-0.000858307,-0.001253128,0.010585785,0,
00:07.5,-0.000852585,-0.00125885,0.010585785,0,
00:07.5,-0.000806808,-0.001247406,0.010568619,0,
00:07.5,-0.000823975,-0.001247406,0.010540009,0,
00:07.5,-0.000806808,-0.001247406,0.010585785,0,
00:07.5,-0.000806808,-0.001253128,0.010625839,0,
00:07.5,-0.000898361,-0.001264572,0.010631561,0,
00:07.5,-0.000932693,-0.001264572,0.010562897,0,
00:07.5,-0.000875473,-0.00125885,0.010574341,0,
00:07.6,-0.000818253,-0.001253128,0.010597229,0,
00:07.6,-0.000720978,-0.00125885,0.010608673,0,
00:07.6,-0.000823975,-0.001253128,0.010585785,0,
00:07.6,-0.000829697,-0.001270294,0.010614395,0,
00:07.6,-0.000892639,-0.001270294,0.010602951,0,
00:07.6,-0.000944138,-0.00125885,0.010608673,0,
00:07.6,-0.000720978,-0.00125885,0.010602951,0,
00:07.6,-0.000823975,-0.00125885,0.010591507,0,
00:07.6,-0.000829697,-0.001264572,0.010654449,0,
00:07.6,-0.000812531,-0.001270294,0.010614395,0,
00:07.6,-0.000778198,-0.001270294,0.010637283,0,
00:07.6,-0.000806808,-0.001270294,0.010625839,0,
00:07.6,-0.000806808,-0.001264572,0.010620117,0,
00:07.6,-0.000795364,-0.001276016,0.010631561,0,
00:07.6,-0.000818253,-0.001270294,0.010602951,0,
00:07.6,-0.000823975,-0.001276016,0.010614395,0,
00:07.6,-0.000772476,-0.00128746,0.010654449,0,
00:07.6,-0.000835419,-0.001281738,0.010648727,0,
00:07.6,-0.000892639,-0.001281738,0.010631561,0,
00:07.6,-0.000869751,-0.001276016,0.010677338,0,
00:07.6,-0.000720978,-0.00125885,0.010654449,0,
00:07.6,-0.000864029,-0.001276016,0.010614395,0,
00:07.6,-0.000846863,-0.001276016,0.010614395,0,
00:07.6,-0.000715256,-0.001264572,0.010648727,0,
00:07.6,-0.000789642,-0.001276016,0.010688782,0,
00:07.7,-0.000858307,-0.001270294,0.010694504,0,
00:07.7,-0.00078392,-0.001276016,0.010688782,0,
00:07.7,-0.000732422,-0.001276016,0.010620117,0,
00:07.7,-0.000789642,-0.001276016,0.010660172,0,
00:07.7,-0.000852585,-0.001281738,0.010631561,0,
00:07.7,-0.000772476,-0.001281738,0.010660172,0,
00:07.7,-0.000778198,-0.001281738,0.010671616,0,
00:07.7,-0.00078392,-0.001276016,0.010677338,0,
00:07.7,-0.000801086,-0.001276016,0.010643005,0,
00:07.7,-0.000812531,-0.001276016,0.010660172,0,
00:07.7,-0.000812531,-0.00128746,0.010694504,0,
00:07.7,-0.000789642,-0.001281738,0.010648727,0,
00:07.7,-0.000829697,-0.001281738,0.010694504,0,
00:07.7,-0.000789642,-0.001281738,0.010688782,0,
00:07.7,-0.00075531,-0.001281738,0.010717392,0,
00:07.7,-0.000806808,-0.00128746,0.010660172,0,
00:07.7,-0.00078392,-0.00128746,0.010694504,0,
00:07.7,-0.000766754,-0.001281738,0.010688782,0,
00:07.7,-0.000789642,-0.00128746,0.010717392,0,
00:07.7,-0.000898361,-0.001293182,0.01071167,0,
00:07.7,-0.0007267,-0.001281738,0.010717392,0,
00:07.7,-0.000761032,-0.001281738,0.01071167,0,
00:07.7,-0.000772476,-0.001276016,0.010677338,0,
00:07.7,-0.000812531,-0.001281738,0.010700226,0,
00:07.7,-0.000789642,-0.00128746,0.010694504,0,
00:07.8,-0.000749588,-0.001298904,0.010688782,0,
00:07.8,-0.000801086,-0.001293182,0.01074028,0,
00:07.8,-0.000772476,-0.00128746,0.010734558,0,
00:07.8,-0.00078392,-0.001293182,0.010734558,0,
00:07.8,-0.000801086,-0.00128746,0.010688782,0,
00:07.8,-0.000761032,-0.00128746,0.010705948,0,
00:07.8,-0.000772476,-0.00128746,0.01068306,0,
00:07.8,-0.000858307,-0.001293182,0.010723114,0,
00:07.8,-0.000932693,-0.001293182,0.01074028,0,
00:07.8,-0.000720978,-0.00128746,0.010746002,0,
00:07.8,-0.000663757,-0.001293182,0.010717392,0,
00:07.8,-0.000778198,-0.001298904,0.010751724,0,
00:07.8,-0.000806808,-0.001304626,0.01076889,0,
00:07.8,-0.000818253,-0.00128746,0.01071167,0,
00:07.8,-0.000749588,-0.00128746,0.010757446,0,
00:07.8,-0.000749588,-0.00128746,0.010705948,0,
00:07.8,-0.000766754,-0.00128746,0.010728836,0,
00:07.8,-0.000772476,-0.001298904,0.010717392,0,
00:07.8,-0.000766754,-0.00128746,0.010746002,0,
00:07.8,-0.000749588,-0.001293182,0.010757446,0,
00:07.8,-0.000772476,-0.001293182,0.010717392,0,
00:07.8,-0.000829697,-0.001298904,0.01076889,0,
00:07.8,-0.000818253,-0.001298904,0.010757446,0,
00:07.8,-0.000749588,-0.001298904,0.010774612,0,
00:07.8,-0.000692368,-0.001293182,0.01074028,0,
00:07.9,-0.000829697,-0.001304626,0.010723114,0,
00:07.9,-0.000806808,-0.001304626,0.010746002,0,
00:07.9,-0.000795364,-0.001293182,0.010746002,0,
00:07.9,-0.000795364,-0.001298904,0.010746002,0,
00:07.9,-0.000680923,-0.001298904,0.010814667,0,
00:07.9,-0.000761032,-0.001293182,0.010751724,0,
00:07.9,-0.000789642,-0.001293182,0.010763168,0,
00:07.9,-0.0007267,-0.001304626,0.010837555,0,
00:07.9,-0.00075531,-0.001298904,0.010757446,0,
00:07.9,-0.000766754,-0.001304626,0.01076889,0,
00:07.9,-0.000818253,-0.001304626,0.010791779,0,
00:07.9,-0.000778198,-0.001298904,0.010786057,0,
00:07.9,-0.0007267,-0.001298904,0.010751724,0,
00:07.9,-0.000743866,-0.001304626,0.010757446,0,
00:07.9,-0.00078392,-0.001310349,0.010786057,0,
00:07.9,-0.000761032,-0.001310349,0.010791779,0,
00:07.9,-0.00075531,-0.001304626,0.010803223,0,
00:07.9,-0.000789642,-0.001304626,0.010786057,0,
00:07.9,-0.00078392,-0.001304626,0.010797501,0,
00:07.9,-0.000766754,-0.001310349,0.010808945,0,
00:07.9,-0.000789642,-0.001304626,0.010814667,0,
00:07.9,-0.000789642,-0.001310349,0.010808945,0,
00:07.9,-0.000812531,-0.001304626,0.010786057,0,
00:07.9,-0.000738144,-0.001304626,0.010791779,0,
00:07.9,-0.000732422,-0.001304626,0.010820389,0,
00:08.0,-0.000806808,-0.001310349,0.010826111,0,
00:08.0,-0.000703812,-0.001316071,0.010786057,0,
00:08.0,-0.000766754,-0.001310349,0.010791779,0,
00:08.0,-0.000818253,-0.001298904,0.010814667,0,
00:08.0,-0.000738144,-0.001316071,0.010826111,0,
00:08.0,-0.000743866,-0.001304626,0.010791779,0,
00:08.0,-0.000720978,-0.001298904,0.010831833,0,
00:08.0,-0.000732422,-0.001304626,0.010854721,0,
00:08.0,-0.000732422,-0.001310349,0.010837555,0,
00:08.0,-0.000743866,-0.001310349,0.010808945,0,
00:08.0,-0.000772476,-0.001310349,0.010808945,0,
00:08.0,-0.00075531,-0.001310349,0.010820389,0,
00:00:08,-0.000818253,-0.001316071,0.010854721,0,
00:08.0,-0.000738144,-0.001310349,0.010837555,0,
00:08.0,-0.0007267,-0.001316071,0.010877609,0,
00:08.0,-0.000761032,-0.001310349,0.010826111,0,
00:08.0,-0.000766754,-0.001316071,0.010848999,0,
00:08.0,-0.000738144,-0.001310349,0.010843277,0,
00:08.0,-0.000743866,-0.001310349,0.010854721,0,
00:08.0,-0.000801086,-0.001316071,0.010860443,0,
00:08.0,-0.000640869,-0.001304626,0.010894775,0,
00:08.0,-0.000715256,-0.001321793,0.010848999,0,
00:08.0,-0.000778198,-0.001321793,0.010826111,0,
00:08.0,-0.000761032,-0.001321793,0.010843277,0,
00:08.0,-0.000806808,-0.001321793,0.010900497,0,
00:08.1,-0.000720978,-0.001321793,0.010877609,0,
00:08.1,-0.000692368,-0.001316071,0.010814667,0,
00:08.1,-0.000772476,-0.001316071,0.010900497,0,
00:08.1,-0.000772476,-0.001316071,0.010871887,0,
00:08.1,-0.000738144,-0.001316071,0.010871887,0,
00:08.1,-0.000732422,-0.001327515,0.010854721,0,
00:08.1,-0.00069809,-0.001316071,0.010900497,0,
00:08.1,-0.000732422,-0.001310349,0.010889053,0,
00:08.1,-0.00078392,-0.001310349,0.010877609,0,
00:08.1,-0.000823975,-0.001310349,0.010866165,0,
00:08.1,-0.000709534,-0.001316071,0.010889053,0,
00:08.1,-0.000743866,-0.001316071,0.010917664,0,
00:08.1,-0.000761032,-0.001333237,0.010889053,0,
00:08.1,-0.00069809,-0.001310349,0.010906219,0,
00:08.1,-0.000720978,-0.001304626,0.010900497,0,
00:08.1,-0.000692368,-0.001316071,0.010911942,0,
00:08.1,-0.0007267,-0.001327515,0.010877609,0,
00:08.1,-0.000732422,-0.001321793,0.010860443,0,
00:08.1,-0.0007267,-0.001316071,0.010940552,0,
00:08.1,-0.0007267,-0.001316071,0.010917664,0,
00:08.1,-0.000772476,-0.001327515,0.010906219,0,
00:08.1,-0.000761032,-0.001321793,0.010900497,0,
00:08.1,-0.000669479,-0.001327515,0.010911942,0,
00:08.1,-0.000715256,-0.001327515,0.010917664,0,
00:08.1,-0.000720978,-0.001321793,0.01096344,0,
00:08.2,-0.000732422,-0.001316071,0.010940552,0,
00:08.2,-0.000806808,-0.001310349,0.010894775,0,
00:08.2,-0.000680923,-0.001310349,0.010911942,0,
00:08.2,-0.000692368,-0.001316071,0.01093483,0,
00:08.2,-0.000715256,-0.001310349,0.01096344,0,
00:08.2,-0.000761032,-0.001321793,0.010923386,0,
00:08.2,-0.000709534,-0.001321793,0.010923386,0,
00:08.2,-0.00078392,-0.001321793,0.010980606,0,
00:08.2,-0.0007267,-0.001316071,0.010923386,0,
00:08.2,-0.000715256,-0.001316071,0.010923386,0,
00:08.2,-0.000720978,-0.001327515,0.010929108,0,
00:08.2,-0.000703812,-0.001310349,0.010917664,0,
00:08.2,-0.000680923,-0.001310349,0.010929108,0,
00:08.2,-0.000749588,-0.001321793,0.010980606,0,
00:08.2,-0.000858307,-0.001327515,0.010940552,0,
00:08.2,-0.000675201,-0.001310349,0.010951996,0,
00:08.2,-0.000663757,-0.001310349,0.010940552,0,
00:08.2,-0.000658035,-0.001321793,0.010969162,0,
00:08.2,-0.000703812,-0.001321793,0.010940552,0,
00:08.2,-0.000766754,-0.001316071,0.010957718,0,
00:08.2,-0.000715256,-0.001316071,0.010911942,0,
00:08.2,-0.000703812,-0.001310349,0.01096344,0,
00:08.2,-0.000732422,-0.001310349,0.011026382,0,
00:08.2,-0.000732422,-0.001327515,0.010986328,0,
00:08.2,-0.000675201,-0.001321793,0.010969162,0,
00:08.3,-0.000720978,-0.001321793,0.011003494,0,
00:08.3,-0.000663757,-0.001316071,0.01096344,0,
00:08.3,-0.000720978,-0.001316071,0.01093483,0,
00:08.3,-0.000749588,-0.001321793,0.010980606,0,
00:08.3,-0.000772476,-0.001316071,0.01096344,0,
00:08.3,-0.000703812,-0.001327515,0.010951996,0,
00:08.3,-0.00069809,-0.001316071,0.010951996,0,
00:08.3,-0.000680923,-0.001321793,0.010997772,0,
00:08.3,-0.0007267,-0.001316071,0.011009216,0,
00:08.3,-0.000749588,-0.001321793,0.01102066,0,
00:08.3,-0.000703812,-0.001316071,0.01099205,0,
00:08.3,-0.000715256,-0.001316071,0.010974884,0,
00:08.3,-0.000835419,-0.001321793,0.011009216,0,
00:08.3,-0.000709534,-0.001327515,0.01099205,0,
00:08.3,-0.000623703,-0.001316071,0.01096344,0,
00:08.3,-0.000640869,-0.001321793,0.01102066,0,
00:08.3,-0.000663757,-0.001316071,0.011032104,0,
00:08.3,-0.000743866,-0.001321793,0.010997772,0,
00:08.3,-0.000732422,-0.001338959,0.010986328,0,
00:08.3,-0.000743866,-0.001327515,0.010997772,0,
00:08.3,-0.000640869,-0.001310349,0.010946274,0,
00:08.3,-0.000675201,-0.001321793,0.011014938,0,
00:08.3,-0.000778198,-0.001327515,0.011083603,0,
00:08.3,-0.00069809,-0.001321793,0.010997772,0,
00:08.3,-0.000738144,-0.001310349,0.010974884,0,
00:08.4,-0.000761032,-0.001316071,0.011060715,0,
00:08.4,-0.000635147,-0.001316071,0.010951996,0,
00:08.4,-0.000709534,-0.001316071,0.011009216,0,
00:08.4,-0.000766754,-0.001321793,0.011049271,0,
00:08.4,-0.00069809,-0.001321793,0.011060715,0,
00:08.4,-0.000692368,-0.001321793,0.011054993,0,
00:08.4,-0.000709534,-0.001321793,0.011003494,0,
00:08.4,-0.00069809,-0.001316071,0.011037827,0,
00:08.4,-0.000652313,-0.001316071,0.011043549,0,
00:08.4,-0.000675201,-0.001327515,0.011037827,0,
00:08.4,-0.000709534,-0.001327515,0.011043549,0,
00:08.4,-0.000663757,-0.001321793,0.011032104,0,
00:08.4,-0.000652313,-0.001321793,0.011032104,0,
00:08.4,-0.000703812,-0.001321793,0.011026382,0,
00:08.4,-0.0007267,-0.001327515,0.011054993,0,
00:08.4,-0.000749588,-0.001333237,0.011054993,0,
00:08.4,-0.000640869,-0.001321793,0.011026382,0,
00:08.4,-0.000652313,-0.001310349,0.011049271,0,
00:08.4,-0.000703812,-0.001316071,0.011037827,0,
00:08.4,-0.0007267,-0.001321793,0.01102066,0,
00:08.4,-0.000720978,-0.001327515,0.011049271,0,
00:08.4,-0.000715256,-0.001327515,0.011100769,0,
00:08.4,-0.0007267,-0.001327515,0.011060715,0,
00:08.4,-0.00069809,-0.001321793,0.011037827,0,
00:08.4,-0.000772476,-0.001321793,0.011106491,0,
00:08.5,-0.000715256,-0.001327515,0.011100769,0,
00:08.5,-0.000606537,-0.001327515,0.011060715,0,
00:08.5,-0.000646591,-0.001327515,0.011106491,0,
00:08.5,-0.000703812,-0.001327515,0.011066437,0,
00:08.5,-0.000720978,-0.001321793,0.011072159,0,
00:08.5,-0.000646591,-0.001321793,0.011077881,0,
00:08.5,-0.000675201,-0.001321793,0.011054993,0,
00:08.5,-0.000692368,-0.001321793,0.011072159,0,
00:08.5,-0.0007267,-0.001327515,0.011089325,0,
00:08.5,-0.000663757,-0.001333237,0.011066437,0,
00:08.5,-0.000669479,-0.001321793,0.011112213,0,
00:08.5,-0.00075531,-0.001327515,0.011089325,0,
00:08.5,-0.000720978,-0.001327515,0.011054993,0,
00:08.5,-0.000715256,-0.001327515,0.011106491,0,
00:08.5,-0.00078392,-0.001327515,0.011112213,0,
00:08.5,-0.000675201,-0.001333237,0.011089325,0,
00:08.5,-0.000663757,-0.001333237,0.011043549,0,
00:08.5,-0.000692368,-0.001321793,0.011112213,0,
00:08.5,-0.000635147,-0.001321793,0.011198044,0,
00:08.5,-0.000663757,-0.001333237,0.011112213,0,
00:08.5,-0.000663757,-0.001327515,0.011100769,0,
00:08.5,-0.000680923,-0.001327515,0.011100769,0,
00:08.5,-0.000732422,-0.001327515,0.011106491,0,
00:08.5,-0.000663757,-0.001327515,0.011129379,0,
00:08.5,-0.000606537,-0.001327515,0.011117935,0,
00:08.6,-0.000669479,-0.001333237,0.011095047,0,
00:08.6,-0.00069809,-0.001327515,0.011129379,0,
00:08.6,-0.000686646,-0.001327515,0.011117935,0,
00:08.6,-0.00069809,-0.001321793,0.011140823,0,
00:08.6,-0.000738144,-0.001333237,0.011112213,0,
00:08.6,-0.00069809,-0.001333237,0.011123657,0,
00:08.6,-0.000623703,-0.001321793,0.011112213,0,
00:08.6,-0.000675201,-0.001327515,0.011135101,0,
00:08.6,-0.000675201,-0.001321793,0.011140823,0,
00:08.6,-0.00069809,-0.001333237,0.011117935,0,
00:08.6,-0.000709534,-0.001344681,0.011129379,0,
00:08.6,-0.000720978,-0.001333237,0.011152267,0,
00:08.6,-0.00078392,-0.001321793,0.011135101,0,
00:08.6,-0.000646591,-0.001321793,0.011140823,0,
00:08.6,-0.000640869,-0.001321793,0.011123657,0,
00:08.6,-0.000606537,-0.001333237,0.01115799,0,
00:08.6,-0.000646591,-0.001333237,0.011146545,0,
00:08.6,-0.00075531,-0.001321793,0.011146545,0,
00:08.6,-0.000715256,-0.001327515,0.011163712,0,
00:08.6,-0.000658035,-0.001327515,0.011169434,0,
00:08.6,-0.000646591,-0.001333237,0.01115799,0,
00:08.6,-0.000669479,-0.001338959,0.011146545,0,
00:08.6,-0.000658035,-0.001333237,0.01115799,0,
00:08.6,-0.000675201,-0.001333237,0.01115799,0,
00:08.6,-0.000629425,-0.001338959,0.011163712,0,
00:08.7,-0.000640869,-0.001333237,0.011175156,0,
00:08.7,-0.000715256,-0.001338959,0.011135101,0,
00:08.7,-0.000692368,-0.001338959,0.011135101,0,
00:08.7,-0.000669479,-0.001327515,0.011169434,0,
00:08.7,-0.000686646,-0.001321793,0.011140823,0,
00:08.7,-0.000766754,-0.001327515,0.011163712,0,
00:08.7,-0.000658035,-0.001338959,0.011226654,0,
00:08.7,-0.000715256,-0.001327515,0.011152267,0,
00:08.7,-0.000652313,-0.001321793,0.011180878,0,
00:08.7,-0.000595093,-0.001327515,0.011203766,0,
00:08.7,-0.000635147,-0.001333237,0.011220932,0,
00:08.7,-0.000709534,-0.001333237,0.011163712,0,
00:08.7,-0.0007267,-0.001327515,0.011180878,0,
00:08.7,-0.000675201,-0.001333237,0.011180878,0,
00:08.7,-0.000623703,-0.001321793,0.011220932,0,
00:08.7,-0.000663757,-0.001333237,0.01121521,0,
00:08.7,-0.000692368,-0.001338959,0.011169434,0,
00:08.7,-0.000640869,-0.001333237,0.011192322,0,
00:08.7,-0.000635147,-0.001333237,0.011198044,0,
00:08.7,-0.000749588,-0.001338959,0.011192322,0,
00:08.7,-0.000692368,-0.001327515,0.011226654,0,
00:08.7,-0.000652313,-0.001333237,0.011175156,0,
00:08.7,-0.000629425,-0.001321793,0.011192322,0,
00:08.7,-0.000703812,-0.001327515,0.011226654,0,
00:08.7,-0.000709534,-0.001333237,0.011192322,0,
00:08.8,-0.000623703,-0.001333237,0.01121521,0,
00:08.8,-0.000658035,-0.001333237,0.01121521,0,
00:08.8,-0.000743866,-0.001327515,0.011220932,0,
00:08.8,-0.000720978,-0.001338959,0.01124382,0,
00:08.8,-0.000646591,-0.001344681,0.011238098,0,
00:08.8,-0.000595093,-0.001327515,0.011220932,0,
00:08.8,-0.00069809,-0.001327515,0.011203766,0,
00:08.8,-0.000658035,-0.001333237,0.011255264,0,
00:08.8,-0.000669479,-0.001321793,0.011198044,0,
00:08.8,-0.0007267,-0.001327515,0.011255264,0,
00:08.8,-0.000675201,-0.001321793,0.011306763,0,
00:08.8,-0.000646591,-0.001327515,0.011232376,0,
00:08.8,-0.000640869,-0.001333237,0.011180878,0,
00:08.8,-0.000692368,-0.001333237,0.011220932,0,
00:08.8,-0.000675201,-0.001327515,0.01121521,0,
00:08.8,-0.000669479,-0.001333237,0.011203766,0,
00:08.8,-0.000663757,-0.001321793,0.011249542,0,
00:08.8,-0.000692368,-0.001327515,0.011238098,0,
00:08.8,-0.00078392,-0.001333237,0.011232376,0,
00:08.8,-0.00069809,-0.001333237,0.01124382,0,
00:08.8,-0.000606537,-0.001338959,0.011278152,0,
00:08.8,-0.000577927,-0.001338959,0.011278152,0,
00:08.8,-0.000635147,-0.001321793,0.011249542,0,
00:08.8,-0.000663757,-0.001321793,0.011266708,0,
00:08.8,-0.000686646,-0.001333237,0.011266708,0,
00:08.9,-0.000692368,-0.001333237,0.011283875,0,
00:08.9,-0.000680923,-0.001333237,0.011249542,0,
00:08.9,-0.000640869,-0.001321793,0.01121521,0,
00:08.9,-0.000663757,-0.001321793,0.011301041,0,
00:08.9,-0.000680923,-0.001344681,0.011255264,0,
00:08.9,-0.000675201,-0.001344681,0.011289597,0,
00:08.9,-0.000749588,-0.001338959,0.01124382,0,
00:08.9,-0.000663757,-0.001327515,0.011289597,0,
00:08.9,-0.000640869,-0.001316071,0.01127243,0,
00:08.9,-0.000652313,-0.001333237,0.011232376,0,
00:08.9,-0.000646591,-0.001333237,0.01127243,0,
00:08.9,-0.000652313,-0.001327515,0.011278152,0,
00:08.9,-0.000669479,-0.001321793,0.011278152,0,
00:08.9,-0.000709534,-0.001333237,0.011249542,0,
00:08.9,-0.0007267,-0.001338959,0.011329651,0,
00:08.9,-0.000646591,-0.001338959,0.011283875,0,
00:08.9,-0.000640869,-0.001327515,0.011278152,0,
00:08.9,-0.000686646,-0.001333237,0.011278152,0,
00:08.9,-0.000640869,-0.001338959,0.011289597,0,
00:08.9,-0.000646591,-0.001333237,0.011312485,0,
00:08.9,-0.000732422,-0.001333237,0.011335373,0,
00:08.9,-0.000686646,-0.001327515,0.011318207,0,
00:08.9,-0.000635147,-0.001327515,0.011255264,0,
00:08.9,-0.000606537,-0.001333237,0.011249542,0,
00:08.9,-0.00069809,-0.001333237,0.011323929,0,
00:09.0,-0.00069809,-0.001333237,0.011358261,0,
00:09.0,-0.000658035,-0.001333237,0.011295319,0,
00:09.0,-0.000658035,-0.001327515,0.011283875,0,
00:09.0,-0.000658035,-0.001338959,0.011323929,0,
00:09.0,-0.000663757,-0.001338959,0.011312485,0,
00:09.0,-0.000675201,-0.001327515,0.011323929,0,
00:09.0,-0.00069809,-0.001344681,0.011295319,0,
00:09.0,-0.000692368,-0.001333237,0.011323929,0,
00:09.0,-0.000675201,-0.001321793,0.011329651,0,
00:09.0,-0.000658035,-0.001321793,0.011318207,0,
00:09.0,-0.000669479,-0.001321793,0.011375427,0,
00:09.0,-0.000663757,-0.001350403,0.011329651,0,
00:00:09,-0.000703812,-0.001338959,0.011329651,0,
00:09.0,-0.000658035,-0.001338959,0.011306763,0,
00:09.0,-0.000646591,-0.001327515,0.011329651,0,
00:09.0,-0.000623703,-0.001321793,0.011358261,0,
00:09.0,-0.000663757,-0.001327515,0.011386871,0,
00:09.0,-0.00069809,-0.001338959,0.011335373,0,
00:09.0,-0.000669479,-0.001338959,0.011341095,0,
00:09.0,-0.0007267,-0.001327515,0.011318207,0,
00:09.0,-0.000663757,-0.001321793,0.011341095,0,
00:09.0,-0.000629425,-0.001333237,0.011358261,0,
00:09.0,-0.00069809,-0.001327515,0.011318207,0,
00:09.0,-0.000663757,-0.001333237,0.011312485,0,
00:09.0,-0.000686646,-0.001338959,0.011369705,0,
00:09.1,-0.000703812,-0.001333237,0.011335373,0,
00:09.1,-0.000663757,-0.001321793,0.011341095,0,
00:09.1,-0.000715256,-0.001327515,0.011415482,0,
00:09.1,-0.000595093,-0.001327515,0.011375427,0,
00:09.1,-0.000669479,-0.001344681,0.011381149,0,
00:09.1,-0.000669479,-0.001327515,0.011363983,0,
00:09.1,-0.000675201,-0.001316071,0.011375427,0,
00:09.1,-0.000646591,-0.001333237,0.011404037,0,
00:09.1,-0.000652313,-0.001333237,0.011341095,0,
00:09.1,-0.000646591,-0.001333237,0.011369705,0,
00:09.1,-0.000663757,-0.001333237,0.011363983,0,
00:09.1,-0.00069809,-0.001327515,0.011386871,0,
00:09.1,-0.00069809,-0.001327515,0.011392593,0,
00:09.1,-0.000675201,-0.001327515,0.011421204,0,
00:09.1,-0.000732422,-0.001333237,0.011352539,0,
00:09.1,-0.000623703,-0.001327515,0.011358261,0,
00:09.1,-0.000663757,-0.001338959,0.011381149,0,
00:09.1,-0.000640869,-0.001333237,0.011381149,0,
00:09.1,-0.0007267,-0.001333237,0.011386871,0,
00:09.1,-0.000663757,-0.001333237,0.011386871,0,
00:09.1,-0.000600815,-0.001327515,0.011415482,0,
00:09.1,-0.000778198,-0.001321793,0.011375427,0,
00:09.1,-0.000841141,-0.001333237,0.011392593,0,
00:09.1,-0.00056076,-0.001344681,0.011415482,0,
00:09.1,-0.000589371,-0.001338959,0.011449814,0,
00:09.2,-0.000646591,-0.001333237,0.011392593,0,
00:09.2,-0.000663757,-0.001327515,0.011398315,0,
00:09.2,-0.000663757,-0.001333237,0.011404037,0,
00:09.2,-0.000675201,-0.001333237,0.011444092,0,
00:09.2,-0.000669479,-0.001333237,0.011386871,0,
00:09.2,-0.000669479,-0.001338959,0.011426926,0,
00:09.2,-0.000675201,-0.001338959,0.011398315,0,
00:09.2,-0.000669479,-0.001333237,0.011415482,0,
00:09.2,-0.000743866,-0.001327515,0.011426926,0,
00:09.2,-0.000686646,-0.001321793,0.011426926,0,
00:09.2,-0.000680923,-0.001327515,0.011421204,0,
00:09.2,-0.000629425,-0.001338959,0.011398315,0,
00:09.2,-0.000703812,-0.001321793,0.011421204,0,
00:09.2,-0.000709534,-0.001338959,0.011426926,0,
00:09.2,-0.00069809,-0.001333237,0.011426926,0,
00:09.2,-0.000606537,-0.001333237,0.011472702,0,
00:09.2,-0.000686646,-0.001338959,0.011449814,0,
00:09.2,-0.000761032,-0.001344681,0.011484146,0,
00:09.2,-0.000612259,-0.001344681,0.01146698,0,
00:09.2,-0.000623703,-0.001333237,0.011415482,0,
00:09.2,-0.000675201,-0.001333237,0.011404037,0,
00:09.2,-0.000635147,-0.001333237,0.011449814,0,
00:09.2,-0.000652313,-0.001333237,0.011478424,0,
00:09.2,-0.000703812,-0.001333237,0.011478424,0,
00:09.2,-0.000761032,-0.001327515,0.011478424,0,
00:09.3,-0.00075531,-0.001344681,0.011449814,0,
00:09.3,-0.000606537,-0.001333237,0.011455536,0,
00:09.3,-0.000663757,-0.001327515,0.011421204,0,
00:09.3,-0.000658035,-0.001321793,0.011444092,0,
00:09.3,-0.00069809,-0.001316071,0.01146698,0,
00:09.3,-0.000732422,-0.001327515,0.011472702,0,
00:09.3,-0.000680923,-0.001333237,0.011489868,0,
00:09.3,-0.000606537,-0.001327515,0.011489868,0,
00:09.3,-0.000606537,-0.001327515,0.011501312,0,
00:09.3,-0.000686646,-0.001333237,0.011461258,0,
00:09.3,-0.000732422,-0.001333237,0.011444092,0,
00:09.3,-0.000646591,-0.001338959,0.011478424,0,
00:09.3,-0.000709534,-0.001338959,0.011512756,0,
00:09.3,-0.000663757,-0.001338959,0.011529922,0,
00:09.3,-0.000646591,-0.001333237,0.01149559,0,
00:09.3,-0.000686646,-0.001333237,0.011455536,0,
00:09.3,-0.000635147,-0.001333237,0.01149559,0,
00:09.3,-0.000629425,-0.001327515,0.011507034,0,
00:09.3,-0.000635147,-0.001327515,0.0115242,0,
00:09.3,-0.000749588,-0.001338959,0.01149559,0,
00:09.3,-0.00069809,-0.001333237,0.01146698,0,
00:09.3,-0.000686646,-0.001333237,0.0115242,0,
00:09.3,-0.000663757,-0.001333237,0.011512756,0,
00:09.3,-0.000675201,-0.001327515,0.011518478,0,
00:09.3,-0.000703812,-0.001338959,0.011478424,0,
00:09.4,-0.000658035,-0.001344681,0.011512756,0,
00:09.4,-0.000680923,-0.001338959,0.011507034,0,
00:09.4,-0.000789642,-0.001338959,0.011478424,0,
00:09.4,-0.000595093,-0.001333237,0.011518478,0,
00:09.4,-0.000640869,-0.001333237,0.01149559,0,
00:09.4,-0.000640869,-0.001333237,0.011518478,0,
00:09.4,-0.000686646,-0.001333237,0.011552811,0,
00:09.4,-0.000663757,-0.001333237,0.01149559,0,
00:09.4,-0.000612259,-0.001333237,0.011535645,0,
00:09.4,-0.000669479,-0.001333237,0.011575699,0,
00:09.4,-0.000680923,-0.001338959,0.011558533,0,
00:09.4,-0.000703812,-0.001338959,0.011535645,0,
00:09.4,-0.000720978,-0.001338959,0.011529922,0,
00:09.4,-0.000629425,-0.001333237,0.011512756,0,
00:09.4,-0.000629425,-0.001338959,0.011564255,0,
00:09.4,-0.000652313,-0.001333237,0.011569977,0,
00:09.4,-0.000652313,-0.001333237,0.011541367,0,
00:09.4,-0.000680923,-0.001333237,0.011529922,0,
00:09.4,-0.000675201,-0.001338959,0.011564255,0,
00:09.4,-0.000635147,-0.001338959,0.011564255,0,
00:09.4,-0.000703812,-0.001338959,0.011552811,0,
00:09.4,-0.000652313,-0.001321793,0.011575699,0,
00:09.4,-0.000692368,-0.001333237,0.011575699,0,
00:09.4,-0.000680923,-0.001333237,0.011529922,0,
00:09.4,-0.000743866,-0.001338959,0.0115242,0,
00:09.5,-0.000640869,-0.001338959,0.011564255,0,
00:09.5,-0.000617981,-0.001338959,0.011564255,0,
00:09.5,-0.000669479,-0.001338959,0.011587143,0,
00:09.5,-0.000669479,-0.001338959,0.011610031,0,
00:09.5,-0.000640869,-0.001338959,0.011587143,0,
00:09.5,-0.000720978,-0.001344681,0.011558533,0,
00:09.5,-0.000635147,-0.001338959,0.011569977,0,
00:09.5,-0.00069809,-0.001338959,0.011581421,0,
00:09.5,-0.000635147,-0.001327515,0.011541367,0,
00:09.5,-0.000703812,-0.001327515,0.011644363,0,
00:09.5,-0.000715256,-0.001333237,0.011592865,0,
00:09.5,-0.000640869,-0.001327515,0.011581421,0,
00:09.5,-0.000612259,-0.001333237,0.011615753,0,
00:09.5,-0.000640869,-0.001333237,0.011535645,0,
00:09.5,-0.000640869,-0.001327515,0.011581421,0,
00:09.5,-0.000749588,-0.001333237,0.011621475,0,
00:09.5,-0.000692368,-0.001344681,0.011615753,0,
00:09.5,-0.000566483,-0.001338959,0.011615753,0,
00:09.5,-0.000640869,-0.001327515,0.011610031,0,
00:09.5,-0.000738144,-0.001338959,0.011627197,0,
00:09.5,-0.000669479,-0.001333237,0.011610031,0,
00:09.5,-0.000612259,-0.001338959,0.011632919,0,
00:09.5,-0.000680923,-0.001338959,0.011632919,0,
00:09.5,-0.0007267,-0.001338959,0.011587143,0,
00:09.5,-0.000640869,-0.001344681,0.011610031,0,
00:09.6,-0.000640869,-0.001333237,0.011655807,0,
00:09.6,-0.000652313,-0.001333237,0.011638641,0,
00:09.6,-0.000640869,-0.001338959,0.011644363,0,
00:09.6,-0.00069809,-0.001333237,0.011621475,0,
00:09.6,-0.000680923,-0.001321793,0.011627197,0,
00:09.6,-0.000720978,-0.001333237,0.011581421,0,
00:09.6,-0.000617981,-0.001338959,0.011655807,0,
00:09.6,-0.000606537,-0.001338959,0.011655807,0,
00:09.6,-0.000640869,-0.001327515,0.011644363,0,
00:09.6,-0.000663757,-0.001316071,0.011615753,0,
00:09.6,-0.000640869,-0.001327515,0.011592865,0,
00:09.6,-0.000669479,-0.001333237,0.011695862,0,
00:09.6,-0.000709534,-0.001327515,0.011650085,0,
00:09.6,-0.000669479,-0.001327515,0.01169014,0,
00:09.6,-0.000692368,-0.001338959,0.011678696,0,
00:09.6,-0.000600815,-0.001327515,0.011638641,0,
00:09.6,-0.000629425,-0.001321793,0.011672974,0,
00:09.6,-0.000646591,-0.001327515,0.011644363,0,
00:09.6,-0.000635147,-0.001338959,0.011655807,0,
00:09.6,-0.000640869,-0.001338959,0.011713028,0,
00:09.6,-0.000640869,-0.001327515,0.011644363,0,
00:09.6,-0.000709534,-0.001327515,0.01166153,0,
00:09.6,-0.000720978,-0.001333237,0.011638641,0,
00:09.6,-0.000646591,-0.001327515,0.01166153,0,
00:09.6,-0.000646591,-0.001327515,0.011667252,0,
00:09.7,-0.000646591,-0.001327515,0.011684418,0,
00:09.7,-0.000652313,-0.001327515,0.01169014,0,
00:09.7,-0.000675201,-0.001327515,0.011650085,0,
00:09.7,-0.000635147,-0.001327515,0.011672974,0,
00:09.7,-0.00069809,-0.001333237,0.011701584,0,
00:09.7,-0.000761032,-0.001338959,0.011684418,0,
00:09.7,-0.000675201,-0.001338959,0.011655807,0,
00:09.7,-0.00056076,-0.001333237,0.01169014,0,
00:09.7,-0.000623703,-0.001316071,0.011707306,0,
00:09.7,-0.000692368,-0.001321793,0.01169014,0,
00:09.7,-0.0007267,-0.001333237,0.01169014,0,
00:09.7,-0.000635147,-0.001321793,0.011615753,0,
00:09.7,-0.000646591,-0.001321793,0.011707306,0,
00:09.7,-0.000635147,-0.001327515,0.01166153,0,
00:09.7,-0.000617981,-0.001327515,0.011644363,0,
00:09.7,-0.000652313,-0.001321793,0.011741638,0,
00:09.7,-0.000669479,-0.001321793,0.011753082,0,
00:09.7,-0.000675201,-0.001338959,0.011684418,0,
00:09.7,-0.000680923,-0.001338959,0.011695862,0,
00:09.7,-0.00069809,-0.001321793,0.01171875,0,
00:09.7,-0.000658035,-0.001316071,0.011678696,0,
00:09.7,-0.000583649,-0.001321793,0.01171875,0,
00:09.7,-0.000652313,-0.001327515,0.011724472,0,
00:09.7,-0.000680923,-0.001316071,0.011730194,0,
00:09.7,-0.000663757,-0.001327515,0.011753082,0,
00:09.8,-0.000703812,-0.001327515,0.011701584,0,
00:09.8,-0.000761032,-0.001333237,0.011730194,0,
00:09.8,-0.000600815,-0.001327515,0.011707306,0,
00:09.8,-0.000566483,-0.001333237,0.011684418,0,
00:09.8,-0.000675201,-0.001327515,0.011713028,0,
00:09.8,-0.000709534,-0.001321793,0.011730194,0,
00:09.8,-0.000669479,-0.001321793,0.011713028,0,
00:09.8,-0.00075531,-0.001327515,0.01171875,0,
00:09.8,-0.000595093,-0.001327515,0.01171875,0,
00:09.8,-0.000606537,-0.001316071,0.01171875,0,
00:09.8,-0.000663757,-0.001316071,0.011707306,0,
00:09.8,-0.000663757,-0.001316071,0.011707306,0,
00:09.8,-0.000680923,-0.001321793,0.011758804,0,
00:09.8,-0.000646591,-0.001321793,0.011713028,0,
00:09.8,-0.000680923,-0.001333237,0.011781693,0,
00:09.8,-0.000715256,-0.001327515,0.011770248,0,
00:09.8,-0.000652313,-0.001321793,0.011764526,0,
00:09.8,-0.000606537,-0.001327515,0.011753082,0,
00:09.8,-0.000640869,-0.001321793,0.011724472,0,
00:09.8,-0.000629425,-0.001321793,0.011735916,0,
00:09.8,-0.000595093,-0.001321793,0.011753082,0,
00:09.8,-0.00075531,-0.001327515,0.01174736,0,
00:09.8,-0.000640869,-0.001321793,0.011724472,0,
00:09.8,-0.000629425,-0.001321793,0.011724472,0,
