Elapsed_Time,EMG1,EMG2,EMG3,BioRadio Event,Unnamed: 5
00:00:00,-0.003072739,-0.000921249,0.002368927,0,
00:00.0,-0.003067017,-0.000926971,0.002374649,0,
00:00.0,-0.003078461,-0.000926971,0.002374649,0,
00:00.0,-0.003072739,-0.000921249,0.002363205,0,
00:00.0,-0.003067017,-0.000921249,0.002380371,0,
00:00.0,-0.003067017,-0.000921249,0.002386093,0,
00:00.0,-0.003072739,-0.000921249,0.002380371,0,
00:00.0,-0.003072739,-0.000921249,0.002380371,0,
00:00.0,-0.003072739,-0.000921249,0.002374649,0,
00:00.0,-0.003072739,-0.000921249,0.002380371,0,
00:00.0,-0.003072739,-0.000921249,0.002380371,0,
00:00.0,-0.003072739,-0.000921249,0.002380371,0,
00:00.0,-0.003067017,-0.000921249,0.002368927,0,
00:00.1,-0.003067017,-0.000921249,0.002380371,0,
00:00.1,-0.003072739,-0.000921249,0.002374649,0,
00:00.1,-0.003067017,-0.000921249,0.002374649,0,
00:00.1,-0.003067017,-0.000915527,0.002386093,0,
00:00.1,-0.003067017,-0.000921249,0.002386093,0,
00:00.1,-0.003067017,-0.000921249,0.002380371,0,
00:00.1,-0.003067017,-0.000915527,0.002374649,0,
00:00.1,-0.003067017,-0.000926971,0.002380371,0,
00:00.1,-0.003072739,-0.000932693,0.002386093,0,
00:00.1,-0.003067017,-0.000926971,0.002386093,0,
00:00.1,-0.003061295,-0.000921249,0.002380371,0,
00:00.1,-0.003061295,-0.000921249,0.002380371,0,
00:00.1,-0.003061295,-0.000921249,0.002391815,0,
00:00.1,-0.003061295,-0.000915527,0.002391815,0,
00:00.1,-0.003055573,-0.000915527,0.002386093,0,
00:00.1,-0.003055573,-0.000921249,0.002386093,0,
00:00.1,-0.003061295,-0.000926971,0.002380371,0,
00:00.1,-0.003055573,-0.000926971,0.002386093,0,
00:00.1,-0.00304985,-0.000921249,0.002391815,0,
00:00.1,-0.003061295,-0.000921249,0.002391815,0,
00:00.1,-0.003055573,-0.000926971,0.002391815,0,
00:00.1,-0.003061295,-0.000926971,0.002386093,0,
00:00.1,-0.003055573,-0.000921249,0.002386093,0,
00:00.1,-0.00304985,-0.000915527,0.002374649,0,
00:00.1,-0.00304985,-0.000921249,0.002397537,0,
00:00.2,-0.003055573,-0.000921249,0.002403259,0,
00:00.2,-0.003055573,-0.000921249,0.002397537,0,
00:00.2,-0.003055573,-0.000921249,0.002397537,0,
00:00.2,-0.00304985,-0.000921249,0.002391815,0,
00:00.2,-0.00304985,-0.000926971,0.002397537,0,
00:00.2,-0.00304985,-0.000926971,0.002397537,0,
00:00.2,-0.00304985,-0.000926971,0.002391815,0,
00:00.2,-0.00304985,-0.000926971,0.002391815,0,
00:00.2,-0.003044128,-0.000921249,0.002391815,0,
00:00.2,-0.003044128,-0.000915527,0.002380371,0,
00:00.2,-0.003044128,-0.000915527,0.002391815,0,
00:00.2,-0.003044128,-0.000921249,0.002403259,0,
00:00.2,-0.003044128,-0.000921249,0.002397537,0,
00:00.2,-0.003038406,-0.000921249,0.002391815,0,
00:00.2,-0.003044128,-0.000921249,0.002397537,0,
00:00.2,-0.003038406,-0.000921249,0.002403259,0,
00:00.2,-0.003044128,-0.000926971,0.002397537,0,
00:00.2,-0.003044128,-0.000921249,0.002408981,0,
00:00.2,-0.003038406,-0.000921249,0.002414703,0,
00:00.2,-0.003038406,-0.000921249,0.002403259,0,
00:00.2,-0.003032684,-0.000921249,0.002397537,0,
00:00.2,-0.003038406,-0.000921249,0.002403259,0,
00:00.2,-0.003032684,-0.000926971,0.002403259,0,
00:00.2,-0.003032684,-0.000926971,0.002414703,0,
00:00.2,-0.003038406,-0.000926971,0.002414703,0,
00:00.3,-0.003038406,-0.000921249,0.002408981,0,
00:00.3,-0.003032684,-0.000921249,0.002403259,0,
00:00.3,-0.003032684,-0.000915527,0.002408981,0,
00:00.3,-0.003026962,-0.000921249,0.002403259,0,
00:00.3,-0.003032684,-0.000926971,0.002408981,0,
00:00.3,-0.003032684,-0.000926971,0.002414703,0,
00:00.3,-0.003032684,-0.000921249,0.002403259,0,
00:00.3,-0.003032684,-0.000921249,0.002408981,0,
00:00.3,-0.003032684,-0.000921249,0.002408981,0,
00:00.3,-0.003026962,-0.000921249,0.002403259,0,
00:00.3,-0.003026962,-0.000921249,0.002403259,0,
00:00.3,-0.003026962,-0.000921249,0.002414703,0,
00:00.3,-0.003026962,-0.000921249,0.002403259,0,
00:00.3,-0.003026962,-0.000926971,0.002414703,0,
00:00.3,-0.003026962,-0.000926971,0.002420425,0,
00:00.3,-0.003026962,-0.000921249,0.002420425,0,
00:00.3,-0.003026962,-0.000921249,0.002414703,0,
00:00.3,-0.003026962,-0.000921249,0.002408981,0,
00:00.3,-0.003026962,-0.000921249,0.002414703,0,
00:00.3,-0.003026962,-0.000921249,0.002420425,0,
00:00.3,-0.003026962,-0.000921249,0.002414703,0,
00:00.3,-0.00302124,-0.000921249,0.002420425,0,
00:00.3,-0.003026962,-0.000926971,0.002414703,0,
00:00.3,-0.003026962,-0.000926971,0.002403259,0,
00:00.3,-0.003015518,-0.000921249,0.002408981,0,
00:00.4,-0.003015518,-0.000915527,0.002437592,0,
00:00.4,-0.00302124,-0.000921249,0.00243187,0,
00:00.4,-0.003026962,-0.000926971,0.002426147,0,
00:00.4,-0.003026962,-0.000921249,0.002426147,0,
00:00.4,-0.00302124,-0.000921249,0.002426147,0,
00:00.4,-0.00302124,-0.000921249,0.002420425,0,
00:00.4,-0.00302124,-0.000926971,0.002414703,0,
00:00.4,-0.003015518,-0.000921249,0.002408981,0,
00:00.4,-0.003015518,-0.000921249,0.002420425,0,
00:00.4,-0.003015518,-0.000921249,0.002420425,0,
00:00.4,-0.003015518,-0.000926971,0.002420425,0,
00:00.4,-0.003015518,-0.000926971,0.002426147,0,
00:00.4,-0.003015518,-0.000926971,0.002420425,0,
00:00.4,-0.00302124,-0.000926971,0.002408981,0,
00:00.4,-0.003015518,-0.000926971,0.002420425,0,
00:00.4,-0.003009796,-0.000921249,0.002437592,0,
00:00.4,-0.00302124,-0.000921249,0.00243187,0,
00:00.4,-0.00302124,-0.000921249,0.00243187,0,
00:00.4,-0.003015518,-0.000921249,0.002426147,0,
00:00.4,-0.003009796,-0.000921249,0.002426147,0,
00:00.4,-0.003009796,-0.000921249,0.00243187,0,
00:00.4,-0.00302124,-0.000926971,0.00243187,0,
00:00.4,-0.003015518,-0.000921249,0.002426147,0,
00:00.4,-0.003009796,-0.000921249,0.002426147,0,
00:00.4,-0.003015518,-0.000926971,0.002426147,0,
00:00.5,-0.003015518,-0.000921249,0.002426147,0,
00:00.5,-0.003009796,-0.000921249,0.002420425,0,
00:00.5,-0.003009796,-0.000926971,0.002426147,0,
00:00.5,-0.003009796,-0.000926971,0.002426147,0,
00:00.5,-0.003004074,-0.000926971,0.00243187,0,
00:00.5,-0.003009796,-0.000926971,0.00243187,0,
00:00.5,-0.003009796,-0.000926971,0.002426147,0,
00:00.5,-0.002998352,-0.000921249,0.002426147,0,
00:00.5,-0.003004074,-0.000921249,0.00243187,0,
00:00.5,-0.003009796,-0.000926971,0.00243187,0,
00:00.5,-0.003004074,-0.000926971,0.002437592,0,
00:00.5,-0.003004074,-0.000926971,0.002443314,0,
00:00.5,-0.003004074,-0.000926971,0.002437592,0,
00:00.5,-0.002998352,-0.000921249,0.002426147,0,
00:00.5,-0.003004074,-0.000926971,0.00243187,0,
00:00.5,-0.003004074,-0.000926971,0.002437592,0,
00:00.5,-0.003004074,-0.000926971,0.002443314,0,
00:00.5,-0.002998352,-0.000915527,0.002437592,0,
00:00.5,-0.003004074,-0.000926971,0.002426147,0,
00:00.5,-0.003004074,-0.000926971,0.002420425,0,
00:00.5,-0.002998352,-0.000921249,0.002443314,0,
00:00.5,-0.002998352,-0.000921249,0.002443314,0,
00:00.5,-0.002998352,-0.000921249,0.002443314,0,
00:00.5,-0.002998352,-0.000921249,0.002437592,0,
00:00.5,-0.002998352,-0.000921249,0.002437592,0,
00:00.6,-0.00299263,-0.000921249,0.00243187,0,
00:00.6,-0.00299263,-0.000921249,0.00243187,0,
00:00.6,-0.002998352,-0.000921249,0.002449036,0,
00:00.6,-0.002998352,-0.000921249,0.00243187,0,
00:00.6,-0.002986908,-0.000921249,0.002437592,0,
00:00.6,-0.00299263,-0.000921249,0.002449036,0,
00:00.6,-0.002998352,-0.000926971,0.002449036,0,
00:00.6,-0.00299263,-0.000921249,0.002437592,0,
00:00.6,-0.002986908,-0.000921249,0.002420425,0,
00:00.6,-0.002981186,-0.000921249,0.002437592,0,
00:00.6,-0.002998352,-0.000926971,0.002454758,0,
00:00.6,-0.002998352,-0.000926971,0.002449036,0,
00:00.6,-0.00299263,-0.000921249,0.002449036,0,
00:00.6,-0.00299263,-0.000921249,0.002443314,0,
00:00.6,-0.00299263,-0.000921249,0.002443314,0,
00:00.6,-0.00299263,-0.000926971,0.002443314,0,
00:00.6,-0.00299263,-0.000926971,0.00243187,0,
00:00.6,-0.002986908,-0.000926971,0.00243187,0,
00:00.6,-0.002986908,-0.000926971,0.002437592,0,
00:00.6,-0.002986908,-0.000926971,0.002449036,0,
00:00.6,-0.002986908,-0.000926971,0.002443314,0,
00:00.6,-0.002975464,-0.000921249,0.002443314,0,
00:00.6,-0.002998352,-0.000926971,0.002454758,0,
00:00.6,-0.00299263,-0.000926971,0.002449036,0,
00:00.6,-0.002986908,-0.000926971,0.002443314,0,
00:00.7,-0.002986908,-0.000921249,0.002449036,0,
00:00.7,-0.002986908,-0.000921249,0.002449036,0,
00:00.7,-0.002986908,-0.000926971,0.002449036,0,
00:00.7,-0.002986908,-0.000926971,0.002443314,0,
00:00.7,-0.002981186,-0.000926971,0.00243187,0,
00:00.7,-0.002981186,-0.000926971,0.002443314,0,
00:00.7,-0.002986908,-0.000926971,0.002443314,0,
00:00.7,-0.002986908,-0.000932693,0.002454758,0,
00:00.7,-0.002981186,-0.000926971,0.00246048,0,
00:00.7,-0.002981186,-0.000915527,0.002454758,0,
00:00.7,-0.002981186,-0.000921249,0.002454758,0,
00:00.7,-0.002981186,-0.000921249,0.002449036,0,
00:00.7,-0.002981186,-0.000921249,0.002449036,0,
00:00.7,-0.002975464,-0.000921249,0.002454758,0,
00:00.7,-0.002981186,-0.000926971,0.002449036,0,
00:00.7,-0.002981186,-0.000926971,0.002449036,0,
00:00.7,-0.002981186,-0.000932693,0.002454758,0,
00:00.7,-0.002981186,-0.000926971,0.002454758,0,
00:00.7,-0.002975464,-0.000926971,0.002449036,0,
00:00.7,-0.002975464,-0.000921249,0.002443314,0,
00:00.7,-0.002969742,-0.000921249,0.002443314,0,
00:00.7,-0.002969742,-0.000921249,0.00246048,0,
00:00.7,-0.002975464,-0.000921249,0.002466202,0,
00:00.7,-0.002975464,-0.000926971,0.002454758,0,
00:00.7,-0.002975464,-0.000926971,0.002454758,0,
00:00.8,-0.002975464,-0.000921249,0.00246048,0,
00:00.8,-0.00296402,-0.000926971,0.00246048,0,
00:00.8,-0.002975464,-0.000926971,0.002454758,0,
00:00.8,-0.002981186,-0.000926971,0.002437592,0,
00:00.8,-0.002969742,-0.000926971,0.002449036,0,
00:00.8,-0.002969742,-0.000921249,0.002454758,0,
00:00.8,-0.002981186,-0.000926971,0.002466202,0,
00:00.8,-0.002975464,-0.000926971,0.002466202,0,
00:00.8,-0.002969742,-0.000921249,0.002443314,0,
00:00.8,-0.002969742,-0.000926971,0.002466202,0,
00:00.8,-0.002975464,-0.000926971,0.00246048,0,
00:00.8,-0.002975464,-0.000926971,0.00246048,0,
00:00.8,-0.002969742,-0.000921249,0.002454758,0,
00:00.8,-0.002969742,-0.000926971,0.002466202,0,
00:00.8,-0.002969742,-0.000926971,0.00246048,0,
00:00.8,-0.00296402,-0.000932693,0.002454758,0,
00:00.8,-0.002975464,-0.000932693,0.002449036,0,
00:00.8,-0.002969742,-0.000926971,0.002466202,0,
00:00.8,-0.002969742,-0.000926971,0.002466202,0,
00:00.8,-0.002969742,-0.000921249,0.00246048,0,
00:00.8,-0.002969742,-0.000921249,0.002454758,0,
00:00.8,-0.002969742,-0.000926971,0.00246048,0,
00:00.8,-0.00296402,-0.000921249,0.00246048,0,
00:00.8,-0.00296402,-0.000921249,0.002454758,0,
00:00.8,-0.00296402,-0.000921249,0.002454758,0,
00:00.9,-0.00296402,-0.000926971,0.002466202,0,
00:00.9,-0.00296402,-0.000926971,0.00246048,0,
00:00.9,-0.002958298,-0.000926971,0.002466202,0,
00:00.9,-0.002958298,-0.000926971,0.002471924,0,
00:00.9,-0.002958298,-0.000926971,0.002466202,0,
00:00.9,-0.00296402,-0.000926971,0.002471924,0,
00:00.9,-0.00296402,-0.000926971,0.002466202,0,
00:00.9,-0.00296402,-0.000932693,0.00246048,0,
00:00.9,-0.002958298,-0.000926971,0.002454758,0,
00:00.9,-0.002958298,-0.000921249,0.002471924,0,
00:00.9,-0.002952576,-0.000921249,0.002466202,0,
00:00.9,-0.002952576,-0.000921249,0.002449036,0,
00:00.9,-0.002958298,-0.000926971,0.002483368,0,
00:00.9,-0.002958298,-0.000926971,0.002471924,0,
00:00.9,-0.002958298,-0.000926971,0.002466202,0,
00:00.9,-0.002958298,-0.000932693,0.002466202,0,
00:00.9,-0.002958298,-0.000926971,0.002466202,0,
00:00.9,-0.002952576,-0.000932693,0.002466202,0,
00:00.9,-0.002946854,-0.000932693,0.002466202,0,
00:00.9,-0.002946854,-0.000926971,0.002466202,0,
00:00.9,-0.002952576,-0.000926971,0.002454758,0,
00:00.9,-0.002946854,-0.000921249,0.002466202,0,
00:00.9,-0.002952576,-0.000926971,0.002483368,0,
00:00.9,-0.002952576,-0.000932693,0.002471924,0,
00:00.9,-0.002952576,-0.000932693,0.002471924,0,
00:01.0,-0.002952576,-0.000926971,0.002466202,0,
00:01.0,-0.002946854,-0.000926971,0.002471924,0,
00:01.0,-0.002946854,-0.000926971,0.002471924,0,
00:01.0,-0.002946854,-0.000926971,0.002471924,0,
00:01.0,-0.002952576,-0.000926971,0.00246048,0,
00:01.0,-0.002946854,-0.000926971,0.002471924,0,
00:01.0,-0.002941132,-0.000926971,0.002466202,0,
00:01.0,-0.002941132,-0.000926971,0.002477646,0,
00:01.0,-0.002952576,-0.000932693,0.002483368,0,
00:01.0,-0.002952576,-0.000926971,0.002477646,0,
00:01.0,-0.002946854,-0.000932693,0.002471924,0,
00:01.0,-0.002941132,-0.000926971,0.002477646,0,
00:00:01,-0.002946854,-0.000926971,0.002471924,0,
00:01.0,-0.002946854,-0.000932693,0.002477646,0,
00:01.0,-0.002946854,-0.000926971,0.002477646,0,
00:01.0,-0.002946854,-0.000926971,0.002477646,0,
00:01.0,-0.002941132,-0.000932693,0.002477646,0,
00:01.0,-0.002941132,-0.000932693,0.002477646,0,
00:01.0,-0.002941132,-0.000932693,0.002477646,0,
00:01.0,-0.002941132,-0.000926971,0.002471924,0,
00:01.0,-0.002941132,-0.000926971,0.002477646,0,
00:01.0,-0.00293541,-0.000921249,0.002477646,0,
00:01.0,-0.002941132,-0.000926971,0.002471924,0,
00:01.0,-0.002941132,-0.000926971,0.002471924,0,
00:01.0,-0.002941132,-0.000926971,0.002466202,0,
00:01.1,-0.002941132,-0.000926971,0.002477646,0,
00:01.1,-0.002941132,-0.000926971,0.002483368,0,
00:01.1,-0.00293541,-0.000926971,0.002477646,0,
00:01.1,-0.002941132,-0.000932693,0.002477646,0,
00:01.1,-0.002946854,-0.000938416,0.002471924,0,
00:01.1,-0.002941132,-0.000926971,0.002466202,0,
00:01.1,-0.00293541,-0.000921249,0.002471924,0,
00:01.1,-0.00293541,-0.000921249,0.00248909,0,
00:01.1,-0.002941132,-0.000926971,0.002483368,0,
00:01.1,-0.002941132,-0.000926971,0.002477646,0,
00:01.1,-0.00293541,-0.000921249,0.00246048,0,
00:01.1,-0.002929688,-0.000926971,0.002471924,0,
00:01.1,-0.00293541,-0.000932693,0.002483368,0,
00:01.1,-0.002941132,-0.000926971,0.00248909,0,
00:01.1,-0.00293541,-0.000926971,0.002483368,0,
00:01.1,-0.002929688,-0.000926971,0.002477646,0,
00:01.1,-0.002941132,-0.000926971,0.002483368,0,
00:01.1,-0.00293541,-0.000921249,0.002483368,0,
00:01.1,-0.002929688,-0.000926971,0.002483368,0,
00:01.1,-0.00293541,-0.000926971,0.002477646,0,
00:01.1,-0.00293541,-0.000926971,0.002483368,0,
00:01.1,-0.00293541,-0.000926971,0.002483368,0,
00:01.1,-0.00293541,-0.000926971,0.002483368,0,
00:01.1,-0.00293541,-0.000926971,0.002477646,0,
00:01.1,-0.00293541,-0.000932693,0.002466202,0,
00:01.2,-0.002929688,-0.000926971,0.002477646,0,
00:01.2,-0.002929688,-0.000926971,0.00248909,0,
00:01.2,-0.00293541,-0.000932693,0.00248909,0,
00:01.2,-0.002929688,-0.000926971,0.002483368,0,
00:01.2,-0.00293541,-0.000932693,0.002477646,0,
00:01.2,-0.00293541,-0.000932693,0.002477646,0,
00:01.2,-0.002929688,-0.000926971,0.002483368,0,
00:01.2,-0.002929688,-0.000926971,0.002477646,0,
00:01.2,-0.002923965,-0.000926971,0.002483368,0,
00:01.2,-0.002929688,-0.000926971,0.002471924,0,
00:01.2,-0.002923965,-0.000926971,0.002477646,0,
00:01.2,-0.002912521,-0.000932693,0.002471924,0,
00:01.2,-0.002923965,-0.000932693,0.00248909,0,
00:01.2,-0.00293541,-0.000932693,0.002500534,0,
00:01.2,-0.00293541,-0.000932693,0.002494812,0,
00:01.2,-0.002929688,-0.000926971,0.00248909,0,
00:01.2,-0.002929688,-0.000932693,0.002477646,0,
00:01.2,-0.002923965,-0.000932693,0.002477646,0,
00:01.2,-0.002918243,-0.000926971,0.00248909,0,
00:01.2,-0.002929688,-0.000926971,0.002494812,0,
00:01.2,-0.002929688,-0.000926971,0.002483368,0,
00:01.2,-0.002929688,-0.000926971,0.002483368,0,
00:01.2,-0.002929688,-0.000926971,0.002494812,0,
00:01.2,-0.002923965,-0.000926971,0.002494812,0,
00:01.2,-0.002923965,-0.000932693,0.002483368,0,
00:01.3,-0.002923965,-0.000932693,0.002483368,0,
00:01.3,-0.002923965,-0.000938416,0.002483368,0,
00:01.3,-0.002923965,-0.000938416,0.00248909,0,
00:01.3,-0.002923965,-0.000926971,0.00248909,0,
00:01.3,-0.002923965,-0.000926971,0.00248909,0,
00:01.3,-0.002923965,-0.000926971,0.00248909,0,
00:01.3,-0.002923965,-0.000926971,0.00248909,0,
00:01.3,-0.002918243,-0.000926971,0.00248909,0,
00:01.3,-0.002918243,-0.000926971,0.002483368,0,
00:01.3,-0.002918243,-0.000926971,0.002477646,0,
00:01.3,-0.002912521,-0.000926971,0.002483368,0,
00:01.3,-0.002923965,-0.000926971,0.00248909,0,
00:01.3,-0.002912521,-0.000926971,0.002483368,0,
00:01.3,-0.002918243,-0.000926971,0.002471924,0,
00:01.3,-0.002912521,-0.000926971,0.002477646,0,
00:01.3,-0.002906799,-0.000926971,0.002500534,0,
00:01.3,-0.002918243,-0.000932693,0.002506256,0,
00:01.3,-0.002912521,-0.000932693,0.00248909,0,
00:01.3,-0.002912521,-0.000932693,0.002506256,0,
00:01.3,-0.002923965,-0.000932693,0.002494812,0,
00:01.3,-0.002918243,-0.000926971,0.002494812,0,
00:01.3,-0.002918243,-0.000926971,0.002494812,0,
00:01.3,-0.002918243,-0.000926971,0.00248909,0,
00:01.3,-0.002918243,-0.000932693,0.002494812,0,
00:01.3,-0.002912521,-0.000926971,0.00248909,0,
00:01.4,-0.002912521,-0.000926971,0.00248909,0,
00:01.4,-0.002912521,-0.000932693,0.002494812,0,
00:01.4,-0.002906799,-0.000926971,0.00248909,0,
00:01.4,-0.002912521,-0.000926971,0.002494812,0,
00:01.4,-0.002906799,-0.000926971,0.00248909,0,
00:01.4,-0.002906799,-0.000926971,0.00248909,0,
00:01.4,-0.002906799,-0.000926971,0.00248909,0,
00:01.4,-0.002906799,-0.000926971,0.002483368,0,
00:01.4,-0.002912521,-0.000932693,0.002483368,0,
00:01.4,-0.002906799,-0.000926971,0.002494812,0,
00:01.4,-0.002906799,-0.000926971,0.002494812,0,
00:01.4,-0.002906799,-0.000926971,0.00248909,0,
00:01.4,-0.002912521,-0.000926971,0.00248909,0,
00:01.4,-0.002906799,-0.000926971,0.002500534,0,
00:01.4,-0.002906799,-0.000932693,0.00248909,0,
00:01.4,-0.002906799,-0.000932693,0.002477646,0,
00:01.4,-0.002901077,-0.000926971,0.00248909,0,
00:01.4,-0.002901077,-0.000926971,0.002494812,0,
00:01.4,-0.002906799,-0.000932693,0.002494812,0,
00:01.4,-0.002906799,-0.000932693,0.002500534,0,
00:01.4,-0.002906799,-0.000926971,0.002494812,0,
00:01.4,-0.002901077,-0.000926971,0.002500534,0,
00:01.4,-0.002906799,-0.000932693,0.002500534,0,
00:01.4,-0.002901077,-0.000926971,0.002500534,0,
00:01.4,-0.002901077,-0.000926971,0.002494812,0,
00:01.5,-0.002901077,-0.000932693,0.002494812,0,
00:01.5,-0.002901077,-0.000926971,0.002500534,0,
00:01.5,-0.002901077,-0.000926971,0.002494812,0,
00:01.5,-0.002895355,-0.000932693,0.002494812,0,
00:01.5,-0.002901077,-0.000932693,0.00248909,0,
00:01.5,-0.002901077,-0.000932693,0.002500534,0,
00:01.5,-0.002901077,-0.000926971,0.002494812,0,
00:01.5,-0.002895355,-0.000932693,0.002506256,0,
00:01.5,-0.002895355,-0.000932693,0.002500534,0,
00:01.5,-0.002901077,-0.000926971,0.002500534,0,
00:01.5,-0.002895355,-0.000932693,0.002494812,0,
00:01.5,-0.002889633,-0.000932693,0.002500534,0,
00:01.5,-0.002901077,-0.000938416,0.002494812,0,
00:01.5,-0.002901077,-0.000932693,0.00248909,0,
00:01.5,-0.002895355,-0.000932693,0.00248909,0,
00:01.5,-0.002901077,-0.000926971,0.002494812,0,
00:01.5,-0.002901077,-0.000926971,0.002506256,0,
00:01.5,-0.002895355,-0.000926971,0.002511978,0,
00:01.5,-0.002901077,-0.000932693,0.0025177,0,
00:01.5,-0.002901077,-0.000932693,0.002506256,0,
00:01.5,-0.002895355,-0.000926971,0.002506256,0,
00:01.5,-0.002895355,-0.000932693,0.002500534,0,
00:01.5,-0.002889633,-0.000926971,0.002500534,0,
00:01.5,-0.002889633,-0.000921249,0.002506256,0,
00:01.5,-0.002895355,-0.000932693,0.002506256,0,
00:01.6,-0.002895355,-0.000932693,0.002506256,0,
00:01.6,-0.002889633,-0.000926971,0.002506256,0,
00:01.6,-0.002889633,-0.000926971,0.002511978,0,
00:01.6,-0.002895355,-0.000932693,0.002506256,0,
00:01.6,-0.002889633,-0.000932693,0.002506256,0,
00:01.6,-0.002895355,-0.000932693,0.002506256,0,
00:01.6,-0.002895355,-0.000932693,0.002500534,0,
00:01.6,-0.002889633,-0.000932693,0.002506256,0,
00:01.6,-0.002883911,-0.000932693,0.002506256,0,
00:01.6,-0.002895355,-0.000932693,0.002511978,0,
00:01.6,-0.002889633,-0.000932693,0.002506256,0,
00:01.6,-0.002889633,-0.000926971,0.002500534,0,
00:01.6,-0.002883911,-0.000926971,0.002500534,0,
00:01.6,-0.002883911,-0.000926971,0.002506256,0,
00:01.6,-0.002889633,-0.000932693,0.002511978,0,
00:01.6,-0.002889633,-0.000926971,0.002511978,0,
00:01.6,-0.002889633,-0.000926971,0.002506256,0,
00:01.6,-0.002883911,-0.000932693,0.002506256,0,
00:01.6,-0.002883911,-0.000932693,0.002511978,0,
00:01.6,-0.002883911,-0.000932693,0.002511978,0,
00:01.6,-0.002883911,-0.000938416,0.002506256,0,
00:01.6,-0.002889633,-0.000938416,0.002506256,0,
00:01.6,-0.002883911,-0.000932693,0.002511978,0,
00:01.6,-0.002883911,-0.000932693,0.002511978,0,
00:01.6,-0.002883911,-0.000926971,0.002506256,0,
00:01.7,-0.002878189,-0.000926971,0.002506256,0,
00:01.7,-0.002883911,-0.000932693,0.002506256,0,
00:01.7,-0.002883911,-0.000932693,0.002506256,0,
00:01.7,-0.002883911,-0.000926971,0.002506256,0,
00:01.7,-0.002883911,-0.000932693,0.002506256,0,
00:01.7,-0.002883911,-0.000932693,0.002506256,0,
00:01.7,-0.002878189,-0.000926971,0.002511978,0,
00:01.7,-0.002883911,-0.000932693,0.002506256,0,
00:01.7,-0.002883911,-0.000932693,0.002511978,0,
00:01.7,-0.002883911,-0.000932693,0.002511978,0,
00:01.7,-0.002878189,-0.000932693,0.002506256,0,
00:01.7,-0.002883911,-0.000932693,0.002511978,0,
00:01.7,-0.002883911,-0.000932693,0.002506256,0,
00:01.7,-0.002878189,-0.000932693,0.002494812,0,
00:01.7,-0.002872467,-0.000926971,0.002506256,0,
00:01.7,-0.002878189,-0.000926971,0.002506256,0,
00:01.7,-0.002878189,-0.000926971,0.002506256,0,
00:01.7,-0.002878189,-0.000932693,0.0025177,0,
00:01.7,-0.002883911,-0.000932693,0.002511978,0,
00:01.7,-0.002878189,-0.000932693,0.002511978,0,
00:01.7,-0.002878189,-0.000932693,0.002511978,0,
00:01.7,-0.002878189,-0.000932693,0.002506256,0,
00:01.7,-0.002872467,-0.000926971,0.002506256,0,
00:01.7,-0.002872467,-0.000926971,0.002506256,0,
00:01.7,-0.002866745,-0.000932693,0.002511978,0,
00:01.8,-0.002872467,-0.000938416,0.002511978,0,
00:01.8,-0.002878189,-0.000932693,0.002506256,0,
00:01.8,-0.002872467,-0.000932693,0.002494812,0,
00:01.8,-0.002872467,-0.000932693,0.00248909,0,
00:01.8,-0.002872467,-0.000932693,0.002529144,0,
00:01.8,-0.002878189,-0.000932693,0.0025177,0,
00:01.8,-0.002878189,-0.000932693,0.0025177,0,
00:01.8,-0.002878189,-0.000938416,0.0025177,0,
00:01.8,-0.002872467,-0.000926971,0.002506256,0,
00:01.8,-0.002872467,-0.000932693,0.002506256,0,
00:01.8,-0.002872467,-0.000932693,0.0025177,0,
00:01.8,-0.002872467,-0.000932693,0.002523422,0,
00:01.8,-0.002872467,-0.000938416,0.0025177,0,
00:01.8,-0.002872467,-0.000938416,0.002511978,0,
00:01.8,-0.002866745,-0.000932693,0.002511978,0,
00:01.8,-0.002872467,-0.000926971,0.0025177,0,
00:01.8,-0.002872467,-0.000932693,0.002523422,0,
00:01.8,-0.002872467,-0.000932693,0.0025177,0,
00:01.8,-0.002872467,-0.000938416,0.002511978,0,
00:01.8,-0.002872467,-0.000938416,0.002511978,0,
00:01.8,-0.002872467,-0.000938416,0.0025177,0,
00:01.8,-0.002866745,-0.000938416,0.0025177,0,
00:01.8,-0.002866745,-0.000938416,0.002511978,0,
00:01.8,-0.002861023,-0.000932693,0.002500534,0,
00:01.8,-0.002861023,-0.000932693,0.002511978,0,
00:01.9,-0.002866745,-0.000932693,0.002523422,0,
00:01.9,-0.002861023,-0.000938416,0.002523422,0,
00:01.9,-0.002861023,-0.000938416,0.0025177,0,
00:01.9,-0.002872467,-0.000938416,0.002529144,0,
00:01.9,-0.002866745,-0.000938416,0.002523422,0,
00:01.9,-0.002866745,-0.000938416,0.002511978,0,
00:01.9,-0.002866745,-0.000938416,0.002511978,0,
00:01.9,-0.002861023,-0.000938416,0.002523422,0,
00:01.9,-0.002866745,-0.000938416,0.002511978,0,
00:01.9,-0.002866745,-0.000938416,0.002506256,0,
00:01.9,-0.002855301,-0.000932693,0.002500534,0,
00:01.9,-0.002855301,-0.000932693,0.0025177,0,
00:01.9,-0.002866745,-0.000938416,0.002534866,0,
00:01.9,-0.002866745,-0.000932693,0.002529144,0,
00:01.9,-0.002866745,-0.000932693,0.002523422,0,
00:01.9,-0.002861023,-0.000932693,0.002523422,0,
00:01.9,-0.002861023,-0.000938416,0.0025177,0,
00:01.9,-0.002861023,-0.000938416,0.002523422,0,
00:01.9,-0.002861023,-0.000932693,0.002523422,0,
00:01.9,-0.002861023,-0.000938416,0.002523422,0,
00:01.9,-0.002861023,-0.000938416,0.0025177,0,
00:01.9,-0.002861023,-0.000938416,0.0025177,0,
00:01.9,-0.002855301,-0.000932693,0.002506256,0,
00:01.9,-0.002855301,-0.000926971,0.002500534,0,
00:01.9,-0.002855301,-0.000926971,0.002523422,0,
00:02.0,-0.002855301,-0.000932693,0.002540588,0,
00:02.0,-0.002861023,-0.000932693,0.002529144,0,
00:02.0,-0.002861023,-0.000938416,0.002529144,0,
00:02.0,-0.002855301,-0.000938416,0.002523422,0,
00:02.0,-0.002861023,-0.000938416,0.002523422,0,
00:02.0,-0.002861023,-0.000938416,0.0025177,0,
00:02.0,-0.002855301,-0.000932693,0.0025177,0,
00:02.0,-0.002855301,-0.000932693,0.0025177,0,
00:02.0,-0.002855301,-0.000932693,0.0025177,0,
00:02.0,-0.002855301,-0.000926971,0.002523422,0,
00:02.0,-0.002861023,-0.000932693,0.002523422,0,
00:02.0,-0.002855301,-0.000932693,0.002523422,0,
00:00:02,-0.002855301,-0.000926971,0.0025177,0,
00:02.0,-0.002855301,-0.000932693,0.002523422,0,
00:02.0,-0.002855301,-0.000932693,0.002523422,0,
00:02.0,-0.002855301,-0.000932693,0.002523422,0,
00:02.0,-0.002855301,-0.000938416,0.0025177,0,
00:02.0,-0.002855301,-0.000932693,0.002523422,0,
00:02.0,-0.002855301,-0.000932693,0.0025177,0,
00:02.0,-0.002855301,-0.000938416,0.0025177,0,
00:02.0,-0.002849579,-0.000932693,0.002511978,0,
00:02.0,-0.002849579,-0.000932693,0.002511978,0,
00:02.0,-0.002855301,-0.000932693,0.002511978,0,
00:02.0,-0.002849579,-0.000926971,0.002523422,0,
00:02.0,-0.002855301,-0.000932693,0.002540588,0,
00:02.1,-0.002855301,-0.000932693,0.002523422,0,
00:02.1,-0.002849579,-0.000932693,0.002511978,0,
00:02.1,-0.002849579,-0.000932693,0.002534866,0,
00:02.1,-0.002855301,-0.000932693,0.002534866,0,
00:02.1,-0.002855301,-0.000932693,0.002523422,0,
00:02.1,-0.002849579,-0.000932693,0.002523422,0,
00:02.1,-0.002849579,-0.000932693,0.002523422,0,
00:02.1,-0.002849579,-0.000932693,0.002529144,0,
00:02.1,-0.002855301,-0.000938416,0.002534866,0,
00:02.1,-0.002855301,-0.000938416,0.002529144,0,
00:02.1,-0.002849579,-0.000932693,0.002523422,0,
00:02.1,-0.002849579,-0.000932693,0.0025177,0,
00:02.1,-0.002855301,-0.000938416,0.002523422,0,
00:02.1,-0.002849579,-0.000932693,0.002523422,0,
00:02.1,-0.002849579,-0.000932693,0.002523422,0,
00:02.1,-0.002849579,-0.000938416,0.002529144,0,
00:02.1,-0.002849579,-0.000932693,0.002529144,0,
00:02.1,-0.002849579,-0.000938416,0.002529144,0,
00:02.1,-0.002849579,-0.000932693,0.002523422,0,
00:02.1,-0.002843857,-0.000938416,0.0025177,0,
00:02.1,-0.002855301,-0.000944138,0.002523422,0,
00:02.1,-0.002855301,-0.000938416,0.002534866,0,
00:02.1,-0.002849579,-0.000926971,0.002523422,0,
00:02.1,-0.002843857,-0.000926971,0.002523422,0,
00:02.1,-0.002843857,-0.000926971,0.002506256,0,
00:02.2,-0.002832413,-0.000932693,0.0025177,0,
00:02.2,-0.002838135,-0.000932693,0.002534866,0,
00:02.2,-0.002855301,-0.000932693,0.002540588,0,
00:02.2,-0.002849579,-0.000938416,0.002540588,0,
00:02.2,-0.002849579,-0.000938416,0.002529144,0,
00:02.2,-0.002843857,-0.000926971,0.002534866,0,
00:02.2,-0.002843857,-0.000926971,0.002529144,0,
00:02.2,-0.002843857,-0.000932693,0.002534866,0,
00:02.2,-0.002843857,-0.000932693,0.002529144,0,
00:02.2,-0.002843857,-0.000932693,0.002529144,0,
00:02.2,-0.002843857,-0.000932693,0.002529144,0,
00:02.2,-0.002843857,-0.000932693,0.002529144,0,
00:02.2,-0.002838135,-0.000932693,0.002529144,0,
00:02.2,-0.002838135,-0.000932693,0.002529144,0,
00:02.2,-0.002843857,-0.000932693,0.002534866,0,
00:02.2,-0.002843857,-0.000932693,0.002534866,0,
00:02.2,-0.002843857,-0.000932693,0.002534866,0,
00:02.2,-0.002843857,-0.000932693,0.002534866,0,
00:02.2,-0.002838135,-0.000932693,0.002529144,0,
00:02.2,-0.002838135,-0.000932693,0.002529144,0,
00:02.2,-0.002838135,-0.000932693,0.002529144,0,
00:02.2,-0.002843857,-0.000938416,0.002523422,0,
00:02.2,-0.002838135,-0.000938416,0.002529144,0,
00:02.2,-0.002838135,-0.000932693,0.002534866,0,
00:02.2,-0.002838135,-0.000932693,0.002529144,0,
00:02.3,-0.002843857,-0.000938416,0.002534866,0,
00:02.3,-0.002838135,-0.000932693,0.002534866,0,
00:02.3,-0.002838135,-0.000932693,0.002529144,0,
00:02.3,-0.002838135,-0.000932693,0.002529144,0,
00:02.3,-0.002838135,-0.000938416,0.0025177,0,
00:02.3,-0.002832413,-0.000938416,0.002529144,0,
00:02.3,-0.002832413,-0.000938416,0.002540588,0,
00:02.3,-0.002838135,-0.000938416,0.002534866,0,
00:02.3,-0.002832413,-0.000938416,0.002529144,0,
00:02.3,-0.002832413,-0.000938416,0.002534866,0,
00:02.3,-0.002832413,-0.000938416,0.002534866,0,
00:02.3,-0.002832413,-0.000938416,0.002529144,0,
00:02.3,-0.002820969,-0.000932693,0.002534866,0,
00:02.3,-0.002826691,-0.000932693,0.002540588,0,
00:02.3,-0.002826691,-0.000926971,0.002534866,0,
00:02.3,-0.002832413,-0.000932693,0.002529144,0,
00:02.3,-0.002832413,-0.000932693,0.002529144,0,
00:02.3,-0.002820969,-0.000932693,0.002529144,0,
00:02.3,-0.002838135,-0.000932693,0.002529144,0,
00:02.3,-0.002832413,-0.000938416,0.002540588,0,
00:02.3,-0.002832413,-0.000932693,0.002534866,0,
00:02.3,-0.002826691,-0.000932693,0.002534866,0,
00:02.3,-0.002820969,-0.000932693,0.002534866,0,
00:02.3,-0.002826691,-0.000938416,0.002523422,0,
00:02.3,-0.002838135,-0.000944138,0.002540588,0,
00:02.4,-0.002826691,-0.000932693,0.002534866,0,
00:02.4,-0.002826691,-0.000932693,0.002540588,0,
00:02.4,-0.002826691,-0.000938416,0.002540588,0,
00:02.4,-0.002832413,-0.000938416,0.002529144,0,
00:02.4,-0.002826691,-0.000938416,0.002529144,0,
00:02.4,-0.002826691,-0.000932693,0.002529144,0,
00:02.4,-0.002826691,-0.000938416,0.002540588,0,
00:02.4,-0.002832413,-0.000938416,0.002534866,0,
00:02.4,-0.002826691,-0.000938416,0.002529144,0,
00:02.4,-0.002826691,-0.000932693,0.002529144,0,
00:02.4,-0.002826691,-0.000932693,0.002534866,0,
00:02.4,-0.002826691,-0.000932693,0.002540588,0,
00:02.4,-0.002826691,-0.000938416,0.002540588,0,
00:02.4,-0.002832413,-0.000944138,0.002534866,0,
00:02.4,-0.002826691,-0.000938416,0.002534866,0,
00:02.4,-0.002826691,-0.000938416,0.002534866,0,
00:02.4,-0.002826691,-0.000938416,0.002534866,0,
00:02.4,-0.002820969,-0.000938416,0.002529144,0,
00:02.4,-0.002815247,-0.000932693,0.002540588,0,
00:02.4,-0.002838135,-0.000938416,0.002534866,0,
00:02.4,-0.002832413,-0.000944138,0.002529144,0,
00:02.4,-0.002826691,-0.000944138,0.002534866,0,
00:02.4,-0.002826691,-0.000932693,0.002534866,0,
00:02.4,-0.002820969,-0.000926971,0.002529144,0,
00:02.4,-0.002820969,-0.000932693,0.002534866,0,
00:02.5,-0.002826691,-0.000932693,0.002534866,0,
00:02.5,-0.002826691,-0.000938416,0.002534866,0,
00:02.5,-0.002826691,-0.000938416,0.002540588,0,
00:02.5,-0.002820969,-0.000932693,0.002540588,0,
00:02.5,-0.002820969,-0.000932693,0.002529144,0,
00:02.5,-0.002820969,-0.000932693,0.002534866,0,
00:02.5,-0.002820969,-0.000932693,0.002534866,0,
00:02.5,-0.002815247,-0.000932693,0.002529144,0,
00:02.5,-0.002815247,-0.000932693,0.002534866,0,
00:02.5,-0.002820969,-0.000932693,0.002534866,0,
00:02.5,-0.002820969,-0.000932693,0.002534866,0,
00:02.5,-0.002815247,-0.000938416,0.002534866,0,
00:02.5,-0.002820969,-0.000932693,0.002540588,0,
00:02.5,-0.002815247,-0.000932693,0.002534866,0,
00:02.5,-0.002820969,-0.000938416,0.002529144,0,
00:02.5,-0.002815247,-0.000938416,0.002534866,0,
00:02.5,-0.002815247,-0.000932693,0.002540588,0,
00:02.5,-0.002809525,-0.000932693,0.002534866,0,
00:02.5,-0.002815247,-0.000932693,0.002534866,0,
00:02.5,-0.002815247,-0.000932693,0.002534866,0,
00:02.5,-0.002815247,-0.000938416,0.002540588,0,
00:02.5,-0.002815247,-0.000938416,0.002529144,0,
00:02.5,-0.002815247,-0.000932693,0.002529144,0,
00:02.5,-0.002809525,-0.000926971,0.002534866,0,
00:02.5,-0.00279808,-0.000932693,0.00254631,0,
00:02.6,-0.002809525,-0.000938416,0.002540588,0,
00:02.6,-0.002815247,-0.000938416,0.00254631,0,
00:02.6,-0.002815247,-0.000938416,0.002540588,0,
00:02.6,-0.002809525,-0.000932693,0.00254631,0,
00:02.6,-0.002809525,-0.000932693,0.002540588,0,
00:02.6,-0.002809525,-0.000932693,0.002534866,0,
00:02.6,-0.002809525,-0.000938416,0.002540588,0,
00:02.6,-0.002809525,-0.000938416,0.00254631,0,
00:02.6,-0.002809525,-0.000932693,0.002534866,0,
00:02.6,-0.002803802,-0.000932693,0.00254631,0,
00:02.6,-0.002803802,-0.000932693,0.00254631,0,
00:02.6,-0.002809525,-0.000932693,0.00254631,0,
00:02.6,-0.002809525,-0.000938416,0.00254631,0,
00:02.6,-0.002803802,-0.000932693,0.002540588,0,
00:02.6,-0.002803802,-0.000932693,0.002540588,0,
00:02.6,-0.002803802,-0.000932693,0.00254631,0,
00:02.6,-0.002803802,-0.000932693,0.002540588,0,
00:02.6,-0.002803802,-0.000938416,0.002540588,0,
00:02.6,-0.002809525,-0.000932693,0.002540588,0,
00:02.6,-0.002803802,-0.000932693,0.002540588,0,
00:02.6,-0.00279808,-0.000938416,0.002529144,0,
00:02.6,-0.002803802,-0.000938416,0.00254631,0,
00:02.6,-0.002803802,-0.000932693,0.002552032,0,
00:02.6,-0.002803802,-0.000932693,0.00254631,0,
00:02.6,-0.002792358,-0.000932693,0.00254631,0,
00:02.7,-0.002809525,-0.000944138,0.002534866,0,
00:02.7,-0.002809525,-0.000944138,0.0025177,0,
00:02.7,-0.002803802,-0.000944138,0.00254631,0,
00:02.7,-0.00279808,-0.000938416,0.002552032,0,
00:02.7,-0.00279808,-0.000932693,0.002552032,0,
00:02.7,-0.002803802,-0.000932693,0.002552032,0,
00:02.7,-0.002803802,-0.000926971,0.002552032,0,
00:02.7,-0.002803802,-0.000926971,0.00254631,0,
00:02.7,-0.002803802,-0.000932693,0.00254631,0,
00:02.7,-0.00279808,-0.000932693,0.00254631,0,
00:02.7,-0.00279808,-0.000932693,0.00254631,0,
00:02.7,-0.002803802,-0.000932693,0.00254631,0,
00:02.7,-0.00279808,-0.000932693,0.00254631,0,
00:02.7,-0.00279808,-0.000932693,0.002540588,0,
00:02.7,-0.002803802,-0.000938416,0.002540588,0,
00:02.7,-0.002803802,-0.000932693,0.002540588,0,
00:02.7,-0.002803802,-0.000932693,0.00254631,0,
00:02.7,-0.002803802,-0.000932693,0.00254631,0,
00:02.7,-0.00279808,-0.000932693,0.00254631,0,
00:02.7,-0.002792358,-0.000932693,0.00254631,0,
00:02.7,-0.002803802,-0.000932693,0.00254631,0,
00:02.7,-0.002792358,-0.000932693,0.00254631,0,
00:02.7,-0.00279808,-0.000932693,0.002540588,0,
00:02.7,-0.00279808,-0.000932693,0.00254631,0,
00:02.7,-0.00279808,-0.000932693,0.002540588,0,
00:02.8,-0.002792358,-0.000932693,0.002534866,0,
00:02.8,-0.002792358,-0.000932693,0.00254631,0,
00:02.8,-0.00279808,-0.000932693,0.002552032,0,
00:02.8,-0.002792358,-0.000938416,0.002552032,0,
00:02.8,-0.002786636,-0.000932693,0.002552032,0,
00:02.8,-0.002792358,-0.000938416,0.002552032,0,
00:02.8,-0.00279808,-0.000932693,0.00254631,0,
00:02.8,-0.00279808,-0.000932693,0.002540588,0,
00:02.8,-0.002792358,-0.000932693,0.002557755,0,
00:02.8,-0.002792358,-0.000932693,0.002552032,0,
00:02.8,-0.002792358,-0.000932693,0.002552032,0,
00:02.8,-0.002792358,-0.000932693,0.00254631,0,
00:02.8,-0.002786636,-0.000932693,0.002552032,0,
00:02.8,-0.002792358,-0.000932693,0.002552032,0,
00:02.8,-0.002786636,-0.000932693,0.002540588,0,
00:02.8,-0.002780914,-0.000938416,0.002534866,0,
00:02.8,-0.002792358,-0.000938416,0.00254631,0,
00:02.8,-0.002792358,-0.000932693,0.002552032,0,
00:02.8,-0.002786636,-0.000926971,0.002557755,0,
00:02.8,-0.002792358,-0.000926971,0.002557755,0,
00:02.8,-0.002786636,-0.000926971,0.002552032,0,
00:02.8,-0.002786636,-0.000926971,0.002552032,0,
00:02.8,-0.002786636,-0.000932693,0.00254631,0,
00:02.8,-0.002786636,-0.000932693,0.00254631,0,
00:02.8,-0.002786636,-0.000926971,0.00254631,0,
00:02.9,-0.002786636,-0.000926971,0.002540588,0,
00:02.9,-0.002786636,-0.000926971,0.002540588,0,
00:02.9,-0.002786636,-0.000932693,0.002529144,0,
00:02.9,-0.002780914,-0.000932693,0.00254631,0,
00:02.9,-0.002780914,-0.000938416,0.002529144,0,
00:02.9,-0.00276947,-0.000932693,0.002534866,0,
00:02.9,-0.002792358,-0.000932693,0.002580643,0,
00:02.9,-0.002786636,-0.000926971,0.002569199,0,
00:02.9,-0.002792358,-0.000926971,0.002557755,0,
00:02.9,-0.002786636,-0.000926971,0.002552032,0,
00:02.9,-0.002786636,-0.000926971,0.002552032,0,
00:02.9,-0.002786636,-0.000932693,0.002552032,0,
00:02.9,-0.002780914,-0.000932693,0.002552032,0,
00:02.9,-0.002780914,-0.000932693,0.002552032,0,
00:02.9,-0.002780914,-0.000926971,0.00254631,0,
00:02.9,-0.002780914,-0.000926971,0.00254631,0,
00:02.9,-0.002775192,-0.000932693,0.002552032,0,
00:02.9,-0.002780914,-0.000932693,0.002540588,0,
00:02.9,-0.002775192,-0.000932693,0.002534866,0,
00:02.9,-0.002775192,-0.000932693,0.002552032,0,
00:02.9,-0.002780914,-0.000938416,0.002563477,0,
00:02.9,-0.002780914,-0.000932693,0.002557755,0,
00:02.9,-0.002780914,-0.000926971,0.002552032,0,
00:02.9,-0.002780914,-0.000926971,0.002552032,0,
00:02.9,-0.002780914,-0.000932693,0.002552032,0,
00:03.0,-0.002780914,-0.000932693,0.002552032,0,
00:03.0,-0.002780914,-0.000932693,0.00254631,0,
00:03.0,-0.002780914,-0.000932693,0.002552032,0,
00:03.0,-0.002775192,-0.000926971,0.002552032,0,
00:03.0,-0.002780914,-0.000932693,0.00254631,0,
00:03.0,-0.002775192,-0.000932693,0.002552032,0,
00:03.0,-0.002780914,-0.000932693,0.002552032,0,
00:03.0,-0.002786636,-0.000932693,0.002552032,0,
00:03.0,-0.002780914,-0.000926971,0.002552032,0,
00:03.0,-0.002780914,-0.000932693,0.002552032,0,
00:03.0,-0.002780914,-0.000938416,0.002552032,0,
00:03.0,-0.002780914,-0.000938416,0.002552032,0,
00:00:03,-0.00276947,-0.000926971,0.002552032,0,
00:03.0,-0.002775192,-0.000926971,0.002557755,0,
00:03.0,-0.002775192,-0.000926971,0.002552032,0,
00:03.0,-0.002775192,-0.000932693,0.00254631,0,
00:03.0,-0.002775192,-0.000938416,0.00254631,0,
00:03.0,-0.002775192,-0.000932693,0.002540588,0,
00:03.0,-0.002775192,-0.000932693,0.002540588,0,
00:03.0,-0.002775192,-0.000932693,0.002552032,0,
00:03.0,-0.002775192,-0.000938416,0.002552032,0,
00:03.0,-0.002780914,-0.000938416,0.00254631,0,
00:03.0,-0.00276947,-0.000938416,0.002557755,0,
00:03.0,-0.002775192,-0.000926971,0.002563477,0,
00:03.0,-0.002775192,-0.000926971,0.002557755,0,
00:03.1,-0.002775192,-0.000921249,0.002557755,0,
00:03.1,-0.002775192,-0.000921249,0.002563477,0,
00:03.1,-0.002775192,-0.000926971,0.002552032,0,
00:03.1,-0.002775192,-0.000926971,0.00254631,0,
00:03.1,-0.002775192,-0.000926971,0.00254631,0,
00:03.1,-0.00276947,-0.000926971,0.00254631,0,
00:03.1,-0.002780914,-0.000932693,0.00254631,0,
00:03.1,-0.002775192,-0.000932693,0.002557755,0,
00:03.1,-0.002775192,-0.000932693,0.002557755,0,
00:03.1,-0.002780914,-0.000938416,0.002557755,0,
00:03.1,-0.002780914,-0.000938416,0.002557755,0,
00:03.1,-0.00276947,-0.000938416,0.002563477,0,
00:03.1,-0.002780914,-0.000938416,0.002557755,0,
00:03.1,-0.002775192,-0.000932693,0.002552032,0,
00:03.1,-0.002775192,-0.000932693,0.002552032,0,
00:03.1,-0.002775192,-0.000932693,0.002557755,0,
00:03.1,-0.002775192,-0.000932693,0.002557755,0,
00:03.1,-0.002775192,-0.000938416,0.002552032,0,
00:03.1,-0.002775192,-0.000932693,0.002552032,0,
00:03.1,-0.00276947,-0.000932693,0.002563477,0,
00:03.1,-0.002775192,-0.000932693,0.002557755,0,
00:03.1,-0.002775192,-0.000926971,0.002557755,0,
00:03.1,-0.00276947,-0.000932693,0.002563477,0,
00:03.1,-0.002775192,-0.000932693,0.002552032,0,
00:03.1,-0.002775192,-0.000932693,0.002557755,0,
00:03.2,-0.002775192,-0.000938416,0.002557755,0,
00:03.2,-0.002775192,-0.000932693,0.002563477,0,
00:03.2,-0.00276947,-0.000926971,0.002557755,0,
00:03.2,-0.00276947,-0.000926971,0.002540588,0,
00:03.2,-0.002758026,-0.000926971,0.002557755,0,
00:03.2,-0.002775192,-0.000932693,0.002552032,0,
00:03.2,-0.002775192,-0.000926971,0.002552032,0,
00:03.2,-0.002763748,-0.000932693,0.002563477,0,
00:03.2,-0.00276947,-0.000932693,0.002557755,0,
00:03.2,-0.002775192,-0.000932693,0.002563477,0,
00:03.2,-0.002780914,-0.000932693,0.002557755,0,
00:03.2,-0.002763748,-0.000932693,0.002563477,0,
00:03.2,-0.002775192,-0.000932693,0.002569199,0,
00:03.2,-0.002775192,-0.000932693,0.002563477,0,
00:03.2,-0.002775192,-0.000932693,0.002557755,0,
00:03.2,-0.00276947,-0.000932693,0.00254631,0,
00:03.2,-0.00276947,-0.000932693,0.002552032,0,
00:03.2,-0.002775192,-0.000932693,0.002563477,0,
00:03.2,-0.00276947,-0.000926971,0.002563477,0,
00:03.2,-0.002775192,-0.000932693,0.002563477,0,
00:03.2,-0.002775192,-0.000932693,0.002563477,0,
00:03.2,-0.00276947,-0.000932693,0.002557755,0,
00:03.2,-0.00276947,-0.000932693,0.002557755,0,
00:03.2,-0.00276947,-0.000932693,0.002563477,0,
00:03.2,-0.00276947,-0.000932693,0.002557755,0,
00:03.3,-0.00276947,-0.000932693,0.002557755,0,
00:03.3,-0.00276947,-0.000932693,0.002563477,0,
00:03.3,-0.00276947,-0.000932693,0.002563477,0,
00:03.3,-0.00276947,-0.000932693,0.002557755,0,
00:03.3,-0.00276947,-0.000932693,0.002557755,0,
00:03.3,-0.00276947,-0.000932693,0.002563477,0,
00:03.3,-0.002763748,-0.000932693,0.002563477,0,
00:03.3,-0.002763748,-0.000932693,0.002563477,0,
00:03.3,-0.002763748,-0.000932693,0.002557755,0,
00:03.3,-0.002763748,-0.000932693,0.002563477,0,
00:03.3,-0.00276947,-0.000932693,0.002563477,0,
00:03.3,-0.002763748,-0.000932693,0.002563477,0,
00:03.3,-0.002763748,-0.000932693,0.002563477,0,
00:03.3,-0.002763748,-0.000932693,0.002552032,0,
00:03.3,-0.00276947,-0.000932693,0.002540588,0,
00:03.3,-0.002763748,-0.000932693,0.002557755,0,
00:03.3,-0.00276947,-0.000932693,0.002569199,0,
00:03.3,-0.00276947,-0.000932693,0.002563477,0,
00:03.3,-0.002763748,-0.000932693,0.002569199,0,
00:03.3,-0.00276947,-0.000932693,0.002569199,0,
00:03.3,-0.00276947,-0.000926971,0.002563477,0,
00:03.3,-0.002763748,-0.000938416,0.002569199,0,
00:03.3,-0.00276947,-0.000938416,0.002569199,0,
00:03.3,-0.002775192,-0.000938416,0.002569199,0,
00:03.3,-0.002775192,-0.000938416,0.002563477,0,
00:03.4,-0.00276947,-0.000938416,0.002552032,0,
00:03.4,-0.002763748,-0.000932693,0.002569199,0,
00:03.4,-0.00276947,-0.000926971,0.002563477,0,
00:03.4,-0.002763748,-0.000926971,0.002557755,0,
00:03.4,-0.002763748,-0.000932693,0.002563477,0,
00:03.4,-0.00276947,-0.000932693,0.002569199,0,
00:03.4,-0.00276947,-0.000932693,0.002574921,0,
00:03.4,-0.00276947,-0.000938416,0.002569199,0,
00:03.4,-0.00276947,-0.00094986,0.002563477,0,
00:03.4,-0.00276947,-0.000944138,0.002569199,0,
00:03.4,-0.00276947,-0.000932693,0.002563477,0,
00:03.4,-0.00276947,-0.000926971,0.002563477,0,
00:03.4,-0.00276947,-0.000926971,0.002569199,0,
00:03.4,-0.00276947,-0.000926971,0.002574921,0,
00:03.4,-0.00276947,-0.000932693,0.002569199,0,
00:03.4,-0.00276947,-0.000932693,0.002563477,0,
00:03.4,-0.00276947,-0.000932693,0.002569199,0,
00:03.4,-0.00276947,-0.000932693,0.002563477,0,
00:03.4,-0.002763748,-0.000932693,0.002569199,0,
00:03.4,-0.002758026,-0.000932693,0.002574921,0,
00:03.4,-0.002763748,-0.000938416,0.002569199,0,
00:03.4,-0.002775192,-0.000944138,0.002569199,0,
00:03.4,-0.00276947,-0.000932693,0.002563477,0,
00:03.4,-0.002763748,-0.000926971,0.002552032,0,
00:03.4,-0.00276947,-0.000932693,0.002574921,0,
00:03.5,-0.002763748,-0.000932693,0.002569199,0,
00:03.5,-0.002763748,-0.000932693,0.002563477,0,
00:03.5,-0.00276947,-0.000932693,0.002574921,0,
00:03.5,-0.002763748,-0.000932693,0.002569199,0,
00:03.5,-0.002763748,-0.000932693,0.002569199,0,
00:03.5,-0.002763748,-0.000932693,0.002563477,0,
00:03.5,-0.002763748,-0.000938416,0.002574921,0,
00:03.5,-0.002763748,-0.000938416,0.002563477,0,
00:03.5,-0.002763748,-0.000932693,0.002563477,0,
00:03.5,-0.002763748,-0.000932693,0.002569199,0,
00:03.5,-0.00276947,-0.000932693,0.002569199,0,
00:03.5,-0.00276947,-0.000938416,0.002574921,0,
00:03.5,-0.002763748,-0.000938416,0.002569199,0,
00:03.5,-0.002763748,-0.000932693,0.002574921,0,
00:03.5,-0.002763748,-0.000932693,0.002569199,0,
00:03.5,-0.002763748,-0.000932693,0.002569199,0,
00:03.5,-0.002763748,-0.000932693,0.002569199,0,
00:03.5,-0.002758026,-0.000932693,0.002569199,0,
00:03.5,-0.002763748,-0.000932693,0.002563477,0,
00:03.5,-0.00276947,-0.000938416,0.002569199,0,
00:03.5,-0.002763748,-0.000932693,0.002574921,0,
00:03.5,-0.002763748,-0.000938416,0.002574921,0,
00:03.5,-0.002763748,-0.000938416,0.002569199,0,
00:03.5,-0.002752304,-0.000932693,0.002569199,0,
00:03.5,-0.002758026,-0.000932693,0.002563477,0,
00:03.6,-0.002763748,-0.000938416,0.002552032,0,
00:03.6,-0.002763748,-0.000944138,0.002580643,0,
00:03.6,-0.002758026,-0.000938416,0.002586365,0,
00:03.6,-0.002775192,-0.000932693,0.002574921,0,
00:03.6,-0.002763748,-0.000932693,0.002574921,0,
00:03.6,-0.002763748,-0.000932693,0.002574921,0,
00:03.6,-0.002763748,-0.000932693,0.002563477,0,
00:03.6,-0.002752304,-0.000932693,0.002557755,0,
00:03.6,-0.002758026,-0.000932693,0.002569199,0,
00:03.6,-0.002763748,-0.000932693,0.002574921,0,
00:03.6,-0.00276947,-0.000944138,0.002574921,0,
00:03.6,-0.00276947,-0.000944138,0.002580643,0,
00:03.6,-0.002763748,-0.000938416,0.002580643,0,
00:03.6,-0.002763748,-0.000938416,0.002574921,0,
00:03.6,-0.002763748,-0.000932693,0.002569199,0,
00:03.6,-0.002763748,-0.000938416,0.002569199,0,
00:03.6,-0.002763748,-0.000938416,0.002580643,0,
00:03.6,-0.002763748,-0.000938416,0.002580643,0,
00:03.6,-0.002763748,-0.000932693,0.002580643,0,
00:03.6,-0.00276947,-0.000932693,0.002580643,0,
00:03.6,-0.00276947,-0.000932693,0.002574921,0,
00:03.6,-0.002763748,-0.000938416,0.002574921,0,
00:03.6,-0.002763748,-0.000938416,0.002574921,0,
00:03.6,-0.002763748,-0.000938416,0.002574921,0,
00:03.6,-0.002763748,-0.000938416,0.002574921,0,
00:03.7,-0.002746582,-0.000932693,0.002569199,0,
00:03.7,-0.002758026,-0.000932693,0.002574921,0,
00:03.7,-0.002775192,-0.000938416,0.002586365,0,
00:03.7,-0.00276947,-0.000938416,0.002580643,0,
00:03.7,-0.00276947,-0.000938416,0.002574921,0,
00:03.7,-0.002763748,-0.000932693,0.002574921,0,
00:03.7,-0.002758026,-0.000932693,0.002574921,0,
00:03.7,-0.002758026,-0.000932693,0.002569199,0,
00:03.7,-0.002775192,-0.000932693,0.002557755,0,
00:03.7,-0.002763748,-0.000932693,0.002574921,0,
00:03.7,-0.002763748,-0.000932693,0.002586365,0,
00:03.7,-0.00276947,-0.000938416,0.002574921,0,
00:03.7,-0.002763748,-0.000938416,0.002580643,0,
00:03.7,-0.00276947,-0.000938416,0.002580643,0,
00:03.7,-0.002758026,-0.000932693,0.002563477,0,
00:03.7,-0.002758026,-0.000932693,0.002569199,0,
00:03.7,-0.002763748,-0.000932693,0.002592087,0,
00:03.7,-0.002763748,-0.000938416,0.002586365,0,
00:03.7,-0.002763748,-0.000938416,0.002580643,0,
00:03.7,-0.00276947,-0.000944138,0.002580643,0,
00:03.7,-0.00276947,-0.000944138,0.002574921,0,
00:03.7,-0.002763748,-0.000938416,0.002580643,0,
00:03.7,-0.002763748,-0.000932693,0.002574921,0,
00:03.7,-0.002758026,-0.000932693,0.002574921,0,
00:03.7,-0.002763748,-0.000932693,0.002574921,0,
00:03.8,-0.00276947,-0.000938416,0.002574921,0,
00:03.8,-0.002763748,-0.000938416,0.002586365,0,
00:03.8,-0.002763748,-0.000932693,0.002580643,0,
00:03.8,-0.002763748,-0.000932693,0.002580643,0,
00:03.8,-0.002758026,-0.000938416,0.002580643,0,
00:03.8,-0.002763748,-0.000938416,0.002574921,0,
00:03.8,-0.00276947,-0.000938416,0.002569199,0,
00:03.8,-0.002763748,-0.000932693,0.002586365,0,
00:03.8,-0.002758026,-0.000932693,0.002586365,0,
00:03.8,-0.002763748,-0.000938416,0.002586365,0,
00:03.8,-0.002763748,-0.000938416,0.002580643,0,
00:03.8,-0.002763748,-0.000938416,0.002569199,0,
00:03.8,-0.002763748,-0.000932693,0.002574921,0,
00:03.8,-0.002763748,-0.000938416,0.002580643,0,
00:03.8,-0.002763748,-0.000944138,0.002580643,0,
00:03.8,-0.002763748,-0.000938416,0.002580643,0,
00:03.8,-0.002763748,-0.000938416,0.002592087,0,
00:03.8,-0.002758026,-0.000938416,0.002574921,0,
00:03.8,-0.002763748,-0.000938416,0.002569199,0,
00:03.8,-0.002763748,-0.000938416,0.002592087,0,
00:03.8,-0.002752304,-0.000938416,0.002580643,0,
00:03.8,-0.002752304,-0.000938416,0.002592087,0,
00:03.8,-0.00276947,-0.000938416,0.002586365,0,
00:03.8,-0.00276947,-0.000938416,0.002586365,0,
00:03.8,-0.002763748,-0.000938416,0.002580643,0,
00:03.9,-0.002758026,-0.000938416,0.002580643,0,
00:03.9,-0.002763748,-0.000938416,0.002569199,0,
00:03.9,-0.00276947,-0.000938416,0.002580643,0,
00:03.9,-0.00276947,-0.000944138,0.002592087,0,
00:03.9,-0.002763748,-0.000938416,0.002586365,0,
00:03.9,-0.002763748,-0.000944138,0.002580643,0,
00:03.9,-0.002763748,-0.000938416,0.002580643,0,
00:03.9,-0.002758026,-0.000932693,0.002580643,0,
00:03.9,-0.002763748,-0.000938416,0.002580643,0,
00:03.9,-0.002763748,-0.000938416,0.002586365,0,
00:03.9,-0.002763748,-0.000944138,0.002586365,0,
00:03.9,-0.002763748,-0.000938416,0.002586365,0,
00:03.9,-0.002763748,-0.000938416,0.002586365,0,
00:03.9,-0.002763748,-0.000932693,0.002586365,0,
00:03.9,-0.002763748,-0.000938416,0.002586365,0,
00:03.9,-0.002763748,-0.000938416,0.002580643,0,
00:03.9,-0.002763748,-0.000938416,0.002574921,0,
00:03.9,-0.002763748,-0.000938416,0.002580643,0,
00:03.9,-0.002763748,-0.000938416,0.002586365,0,
00:03.9,-0.002763748,-0.000938416,0.002586365,0,
00:03.9,-0.002758026,-0.000932693,0.002586365,0,
00:03.9,-0.00276947,-0.000938416,0.002586365,0,
00:03.9,-0.002763748,-0.000938416,0.002569199,0,
00:03.9,-0.002752304,-0.000938416,0.002580643,0,
00:03.9,-0.002758026,-0.000944138,0.002592087,0,
00:04.0,-0.002775192,-0.000944138,0.002586365,0,
00:04.0,-0.002763748,-0.000938416,0.002580643,0,
00:04.0,-0.002758026,-0.000938416,0.002569199,0,
00:04.0,-0.002763748,-0.000944138,0.002592087,0,
00:04.0,-0.002763748,-0.000944138,0.002586365,0,
00:04.0,-0.00276947,-0.000944138,0.002592087,0,
00:04.0,-0.00276947,-0.000938416,0.002586365,0,
00:04.0,-0.002763748,-0.000938416,0.002580643,0,
00:04.0,-0.002763748,-0.000938416,0.002574921,0,
00:04.0,-0.002758026,-0.000938416,0.002580643,0,
00:04.0,-0.002763748,-0.000938416,0.002592087,0,
00:04.0,-0.002763748,-0.000944138,0.002586365,0,
00:00:04,-0.002763748,-0.000938416,0.002586365,0,
00:04.0,-0.00276947,-0.000944138,0.002586365,0,
00:04.0,-0.00276947,-0.000944138,0.002586365,0,
00:04.0,-0.002763748,-0.000938416,0.002586365,0,
00:04.0,-0.00276947,-0.000938416,0.002586365,0,
00:04.0,-0.00276947,-0.000938416,0.002592087,0,
00:04.0,-0.00276947,-0.000944138,0.002592087,0,
00:04.0,-0.002763748,-0.000938416,0.002586365,0,
00:04.0,-0.002763748,-0.000932693,0.002586365,0,
00:04.0,-0.002763748,-0.000932693,0.002592087,0,
00:04.0,-0.002763748,-0.000938416,0.002586365,0,
00:04.0,-0.002758026,-0.000938416,0.002580643,0,
00:04.0,-0.002763748,-0.000944138,0.002592087,0,
00:04.1,-0.002775192,-0.000944138,0.002597809,0,
00:04.1,-0.00276947,-0.000944138,0.002592087,0,
00:04.1,-0.002763748,-0.000944138,0.002592087,0,
00:04.1,-0.00276947,-0.000944138,0.002580643,0,
00:04.1,-0.002763748,-0.000938416,0.002569199,0,
00:04.1,-0.002758026,-0.000938416,0.002603531,0,
00:04.1,-0.002763748,-0.000938416,0.002597809,0,
00:04.1,-0.00276947,-0.000938416,0.002592087,0,
00:04.1,-0.00276947,-0.000938416,0.002597809,0,
00:04.1,-0.00276947,-0.000944138,0.002592087,0,
00:04.1,-0.00276947,-0.000938416,0.002597809,0,
00:04.1,-0.00276947,-0.000938416,0.002592087,0,
00:04.1,-0.00276947,-0.000944138,0.002592087,0,
00:04.1,-0.00276947,-0.000944138,0.002586365,0,
00:04.1,-0.00276947,-0.000938416,0.002597809,0,
00:04.1,-0.002763748,-0.000938416,0.002592087,0,
00:04.1,-0.002763748,-0.000938416,0.002592087,0,
00:04.1,-0.00276947,-0.000944138,0.002597809,0,
00:04.1,-0.00276947,-0.000944138,0.002592087,0,
00:04.1,-0.00276947,-0.000944138,0.002592087,0,
00:04.1,-0.00276947,-0.000944138,0.002592087,0,
00:04.1,-0.00276947,-0.000944138,0.002592087,0,
00:04.1,-0.00276947,-0.000944138,0.002592087,0,
00:04.1,-0.00276947,-0.000938416,0.002586365,0,
00:04.1,-0.00276947,-0.000938416,0.002592087,0,
00:04.2,-0.00276947,-0.000944138,0.002592087,0,
00:04.2,-0.00276947,-0.000944138,0.002592087,0,
00:04.2,-0.002763748,-0.000938416,0.002603531,0,
00:04.2,-0.002775192,-0.000944138,0.002592087,0,
00:04.2,-0.00276947,-0.000944138,0.002592087,0,
00:04.2,-0.002763748,-0.000944138,0.002592087,0,
00:04.2,-0.002775192,-0.000944138,0.002592087,0,
00:04.2,-0.00276947,-0.000944138,0.002574921,0,
00:04.2,-0.002763748,-0.000938416,0.002569199,0,
00:04.2,-0.002763748,-0.000944138,0.002609253,0,
00:04.2,-0.002780914,-0.000944138,0.002609253,0,
00:04.2,-0.002775192,-0.00094986,0.002603531,0,
00:04.2,-0.002775192,-0.00094986,0.002603531,0,
00:04.2,-0.00276947,-0.000944138,0.002597809,0,
00:04.2,-0.00276947,-0.000944138,0.002597809,0,
00:04.2,-0.00276947,-0.000944138,0.002597809,0,
00:04.2,-0.002763748,-0.000938416,0.002597809,0,
00:04.2,-0.00276947,-0.000944138,0.002592087,0,
00:04.2,-0.002758026,-0.00094986,0.002592087,0,
00:04.2,-0.002775192,-0.000944138,0.002597809,0,
00:04.2,-0.002775192,-0.000944138,0.002597809,0,
00:04.2,-0.00276947,-0.000944138,0.002597809,0,
00:04.2,-0.00276947,-0.000944138,0.002597809,0,
00:04.2,-0.00276947,-0.000944138,0.002597809,0,
00:04.2,-0.00276947,-0.000944138,0.002592087,0,
00:04.3,-0.00276947,-0.000944138,0.002586365,0,
00:04.3,-0.00276947,-0.000944138,0.002597809,0,
00:04.3,-0.00276947,-0.00094986,0.002592087,0,
00:04.3,-0.002775192,-0.00094986,0.002603531,0,
00:04.3,-0.00276947,-0.000944138,0.002597809,0,
00:04.3,-0.00276947,-0.000944138,0.002597809,0,
00:04.3,-0.00276947,-0.000944138,0.002597809,0,
00:04.3,-0.002775192,-0.00094986,0.002592087,0,
00:04.3,-0.002763748,-0.00094986,0.002603531,0,
00:04.3,-0.002775192,-0.00094986,0.002597809,0,
00:04.3,-0.002775192,-0.00094986,0.002592087,0,
00:04.3,-0.002775192,-0.00094986,0.002592087,0,
00:04.3,-0.002775192,-0.000944138,0.002597809,0,
00:04.3,-0.002775192,-0.00094986,0.002597809,0,
00:04.3,-0.002780914,-0.000955582,0.002597809,0,
00:04.3,-0.002775192,-0.00094986,0.002597809,0,
00:04.3,-0.002775192,-0.000944138,0.002597809,0,
00:04.3,-0.00276947,-0.000938416,0.002603531,0,
00:04.3,-0.00276947,-0.000938416,0.002597809,0,
00:04.3,-0.00276947,-0.000944138,0.002597809,0,
00:04.3,-0.002775192,-0.000944138,0.002597809,0,
00:04.3,-0.002775192,-0.000944138,0.002592087,0,
00:04.3,-0.002775192,-0.000944138,0.002592087,0,
00:04.3,-0.002775192,-0.00094986,0.002592087,0,
00:04.3,-0.002775192,-0.000944138,0.002603531,0,
00:04.4,-0.002780914,-0.00094986,0.002603531,0,
00:04.4,-0.002775192,-0.00094986,0.002597809,0,
00:04.4,-0.002775192,-0.00094986,0.002597809,0,
00:04.4,-0.002775192,-0.000944138,0.002597809,0,
00:04.4,-0.002775192,-0.000944138,0.002586365,0,
00:04.4,-0.002775192,-0.00094986,0.002592087,0,
00:04.4,-0.002775192,-0.000944138,0.002597809,0,
00:04.4,-0.00276947,-0.000944138,0.002592087,0,
00:04.4,-0.002775192,-0.00094986,0.002603531,0,
00:04.4,-0.002775192,-0.00094986,0.002603531,0,
00:04.4,-0.002780914,-0.00094986,0.002603531,0,
00:04.4,-0.002780914,-0.000955582,0.002603531,0,
00:04.4,-0.002780914,-0.000955582,0.002586365,0,
00:04.4,-0.00276947,-0.00094986,0.002592087,0,
00:04.4,-0.00276947,-0.00094986,0.002597809,0,
00:04.4,-0.00276947,-0.000944138,0.002603531,0,
00:04.4,-0.002780914,-0.00094986,0.002609253,0,
00:04.4,-0.002780914,-0.00094986,0.002592087,0,
00:04.4,-0.002775192,-0.000955582,0.002609253,0,
00:04.4,-0.002786636,-0.000961304,0.002609253,0,
00:04.4,-0.002780914,-0.000955582,0.002597809,0,
00:04.4,-0.002775192,-0.000944138,0.002597809,0,
00:04.4,-0.002780914,-0.00094986,0.002597809,0,
00:04.4,-0.002780914,-0.000955582,0.002592087,0,
00:04.4,-0.002780914,-0.00094986,0.002597809,0,
00:04.5,-0.002780914,-0.00094986,0.002592087,0,
00:04.5,-0.002780914,-0.00094986,0.002592087,0,
00:04.5,-0.002775192,-0.00094986,0.002603531,0,
00:04.5,-0.002780914,-0.00094986,0.002609253,0,
00:04.5,-0.002786636,-0.00094986,0.002603531,0,
00:04.5,-0.002780914,-0.00094986,0.002603531,0,
00:04.5,-0.002786636,-0.000955582,0.002597809,0,
00:04.5,-0.002780914,-0.00094986,0.002592087,0,
00:04.5,-0.002786636,-0.00094986,0.002597809,0,
00:04.5,-0.002786636,-0.00094986,0.002592087,0,
00:04.5,-0.002775192,-0.00094986,0.002592087,0,
00:04.5,-0.002780914,-0.00094986,0.002609253,0,
00:04.5,-0.002786636,-0.00094986,0.002609253,0,
00:04.5,-0.002786636,-0.000955582,0.002603531,0,
00:04.5,-0.002786636,-0.00094986,0.002603531,0,
00:04.5,-0.002786636,-0.00094986,0.002597809,0,
00:04.5,-0.002775192,-0.000944138,0.002597809,0,
00:04.5,-0.002775192,-0.000944138,0.002592087,0,
00:04.5,-0.002775192,-0.00094986,0.002597809,0,
00:04.5,-0.002780914,-0.00094986,0.002603531,0,
00:04.5,-0.002786636,-0.00094986,0.002592087,0,
00:04.5,-0.002786636,-0.000961304,0.002592087,0,
00:04.5,-0.002786636,-0.000961304,0.002609253,0,
00:04.5,-0.002792358,-0.000955582,0.002603531,0,
00:04.5,-0.002786636,-0.00094986,0.002597809,0,
00:04.6,-0.002780914,-0.00094986,0.002592087,0,
00:04.6,-0.002780914,-0.00094986,0.002609253,0,
00:04.6,-0.002786636,-0.000955582,0.002609253,0,
00:04.6,-0.002786636,-0.000955582,0.002609253,0,
00:04.6,-0.002786636,-0.000955582,0.002597809,0,
00:04.6,-0.002786636,-0.000955582,0.002603531,0,
00:04.6,-0.002786636,-0.000955582,0.002603531,0,
00:04.6,-0.002786636,-0.000955582,0.002603531,0,
00:04.6,-0.002786636,-0.000955582,0.002597809,0,
00:04.6,-0.002780914,-0.00094986,0.002597809,0,
00:04.6,-0.002780914,-0.00094986,0.002603531,0,
00:04.6,-0.002786636,-0.000955582,0.002603531,0,
00:04.6,-0.002786636,-0.00094986,0.002603531,0,
00:04.6,-0.002786636,-0.000955582,0.002603531,0,
00:04.6,-0.002786636,-0.000955582,0.002597809,0,
00:04.6,-0.002780914,-0.00094986,0.002592087,0,
00:04.6,-0.002786636,-0.00094986,0.002603531,0,
00:04.6,-0.002792358,-0.000955582,0.002603531,0,
00:04.6,-0.002786636,-0.000955582,0.002597809,0,
00:04.6,-0.002780914,-0.000955582,0.002609253,0,
00:04.6,-0.002792358,-0.000955582,0.002603531,0,
00:04.6,-0.002792358,-0.000955582,0.002603531,0,
00:04.6,-0.002780914,-0.000955582,0.002603531,0,
00:04.6,-0.002786636,-0.000955582,0.002597809,0,
00:04.6,-0.002780914,-0.000961304,0.002597809,0,
00:04.7,-0.002786636,-0.000961304,0.002597809,0,
00:04.7,-0.002792358,-0.000955582,0.002614975,0,
00:04.7,-0.002786636,-0.00094986,0.002620697,0,
00:04.7,-0.002792358,-0.00094986,0.002609253,0,
00:04.7,-0.002792358,-0.000955582,0.002609253,0,
00:04.7,-0.002792358,-0.000961304,0.002603531,0,
00:04.7,-0.002792358,-0.000961304,0.002609253,0,
00:04.7,-0.002792358,-0.000955582,0.002609253,0,
00:04.7,-0.002792358,-0.000961304,0.002609253,0,
00:04.7,-0.002792358,-0.000955582,0.002603531,0,
00:04.7,-0.002786636,-0.000955582,0.002603531,0,
00:04.7,-0.002792358,-0.000955582,0.002609253,0,
00:04.7,-0.002786636,-0.000955582,0.002609253,0,
00:04.7,-0.002786636,-0.000955582,0.002603531,0,
00:04.7,-0.002786636,-0.000955582,0.002597809,0,
00:04.7,-0.002786636,-0.000961304,0.002609253,0,
00:04.7,-0.002786636,-0.000955582,0.002609253,0,
00:04.7,-0.002792358,-0.000955582,0.002597809,0,
00:04.7,-0.002786636,-0.00094986,0.002603531,0,
00:04.7,-0.002792358,-0.000961304,0.002609253,0,
00:04.7,-0.002792358,-0.000955582,0.002597809,0,
00:04.7,-0.002775192,-0.00094986,0.002603531,0,
00:04.7,-0.002786636,-0.00094986,0.002620697,0,
00:04.7,-0.00279808,-0.000955582,0.002620697,0,
00:04.7,-0.002792358,-0.000961304,0.002614975,0,
00:04.8,-0.002786636,-0.000955582,0.002603531,0,
00:04.8,-0.002786636,-0.000955582,0.002586365,0,
00:04.8,-0.002786636,-0.000955582,0.002614975,0,
00:04.8,-0.002780914,-0.000955582,0.002626419,0,
00:04.8,-0.002786636,-0.000955582,0.002614975,0,
00:04.8,-0.002786636,-0.000961304,0.002609253,0,
00:04.8,-0.002792358,-0.000961304,0.002609253,0,
00:04.8,-0.002792358,-0.000961304,0.002609253,0,
00:04.8,-0.002786636,-0.000955582,0.002609253,0,
00:04.8,-0.002786636,-0.000955582,0.002609253,0,
00:04.8,-0.002792358,-0.000955582,0.002614975,0,
00:04.8,-0.002792358,-0.000955582,0.002614975,0,
00:04.8,-0.002786636,-0.000955582,0.002609253,0,
00:04.8,-0.002786636,-0.000955582,0.002609253,0,
00:04.8,-0.002786636,-0.000961304,0.002614975,0,
00:04.8,-0.002792358,-0.000955582,0.002614975,0,
00:04.8,-0.002786636,-0.000955582,0.002609253,0,
00:04.8,-0.002786636,-0.000955582,0.002620697,0,
00:04.8,-0.002786636,-0.000955582,0.002620697,0,
00:04.8,-0.002792358,-0.000955582,0.002614975,0,
00:04.8,-0.002792358,-0.000961304,0.002614975,0,
00:04.8,-0.002786636,-0.000955582,0.002609253,0,
00:04.8,-0.002780914,-0.000961304,0.002614975,0,
00:04.8,-0.002792358,-0.000955582,0.002614975,0,
00:04.8,-0.002792358,-0.000955582,0.002609253,0,
00:04.9,-0.002786636,-0.000955582,0.002603531,0,
00:04.9,-0.002780914,-0.000955582,0.002609253,0,
00:04.9,-0.002786636,-0.000961304,0.002620697,0,
00:04.9,-0.002792358,-0.000961304,0.002614975,0,
00:04.9,-0.002780914,-0.000955582,0.002614975,0,
00:04.9,-0.002792358,-0.000961304,0.002614975,0,
00:04.9,-0.002792358,-0.000967026,0.002614975,0,
00:04.9,-0.002786636,-0.000961304,0.002597809,0,
00:04.9,-0.002780914,-0.000955582,0.002614975,0,
00:04.9,-0.002786636,-0.000955582,0.002637863,0,
00:04.9,-0.002792358,-0.000955582,0.002626419,0,
00:04.9,-0.002792358,-0.000955582,0.002620697,0,
00:04.9,-0.002792358,-0.000961304,0.002614975,0,
00:04.9,-0.002792358,-0.000961304,0.002620697,0,
00:04.9,-0.002792358,-0.000961304,0.002614975,0,
00:04.9,-0.002792358,-0.000961304,0.002603531,0,
00:04.9,-0.002786636,-0.000961304,0.002609253,0,
00:04.9,-0.002792358,-0.000961304,0.002626419,0,
00:04.9,-0.002792358,-0.000961304,0.002626419,0,
00:04.9,-0.002792358,-0.000967026,0.002620697,0,
00:04.9,-0.002792358,-0.000961304,0.002620697,0,
00:04.9,-0.002792358,-0.000961304,0.002620697,0,
00:04.9,-0.002792358,-0.000961304,0.002620697,0,
00:04.9,-0.002792358,-0.000967026,0.002620697,0,
00:04.9,-0.002792358,-0.000967026,0.002614975,0,
00:05.0,-0.002780914,-0.000961304,0.002614975,0,
00:05.0,-0.002780914,-0.000955582,0.002609253,0,
00:05.0,-0.00279808,-0.000961304,0.002620697,0,
00:05.0,-0.002792358,-0.000961304,0.002626419,0,
00:05.0,-0.002792358,-0.000961304,0.002620697,0,
00:05.0,-0.002792358,-0.000961304,0.002614975,0,
00:05.0,-0.002786636,-0.000961304,0.002614975,0,
00:05.0,-0.002786636,-0.000961304,0.002626419,0,
00:05.0,-0.002792358,-0.000961304,0.002620697,0,
00:05.0,-0.002786636,-0.000961304,0.002614975,0,
00:05.0,-0.002786636,-0.000961304,0.002620697,0,
00:05.0,-0.002786636,-0.000961304,0.002620697,0,
00:00:05,-0.002792358,-0.000967026,0.002614975,0,
00:05.0,-0.002792358,-0.000961304,0.002626419,0,
00:05.0,-0.002792358,-0.000967026,0.002626419,0,
00:05.0,-0.002786636,-0.000967026,0.002620697,0,
00:05.0,-0.002786636,-0.000967026,0.002620697,0,
00:05.0,-0.002792358,-0.000967026,0.002620697,0,
00:05.0,-0.002792358,-0.000961304,0.002614975,0,
00:05.0,-0.002792358,-0.000967026,0.002614975,0,
00:05.0,-0.002786636,-0.000961304,0.002626419,0,
00:05.0,-0.002786636,-0.000961304,0.002620697,0,
00:05.0,-0.002792358,-0.000972748,0.002620697,0,
00:05.0,-0.002792358,-0.000967026,0.002620697,0,
00:05.0,-0.002786636,-0.000967026,0.002620697,0,
00:05.1,-0.002786636,-0.000961304,0.002620697,0,
00:05.1,-0.002792358,-0.000961304,0.002614975,0,
00:05.1,-0.00279808,-0.000967026,0.002609253,0,
00:05.1,-0.002792358,-0.000967026,0.002626419,0,
00:05.1,-0.002792358,-0.000967026,0.002626419,0,
00:05.1,-0.00279808,-0.000967026,0.002626419,0,
00:05.1,-0.002792358,-0.000967026,0.002614975,0,
00:05.1,-0.002792358,-0.000967026,0.002620697,0,
00:05.1,-0.002786636,-0.000967026,0.002620697,0,
00:05.1,-0.002780914,-0.000967026,0.002609253,0,
00:05.1,-0.002786636,-0.000967026,0.002632141,0,
00:05.1,-0.00279808,-0.000967026,0.002626419,0,
00:05.1,-0.00279808,-0.000961304,0.002620697,0,
00:05.1,-0.002792358,-0.000967026,0.002626419,0,
00:05.1,-0.002792358,-0.000967026,0.002626419,0,
00:05.1,-0.002792358,-0.000967026,0.002626419,0,
00:05.1,-0.00279808,-0.000972748,0.002620697,0,
00:05.1,-0.00279808,-0.000972748,0.002626419,0,
00:05.1,-0.002792358,-0.000967026,0.002620697,0,
00:05.1,-0.002792358,-0.000967026,0.002620697,0,
00:05.1,-0.002792358,-0.000967026,0.002620697,0,
00:05.1,-0.002792358,-0.000961304,0.002614975,0,
00:05.1,-0.002786636,-0.000967026,0.002626419,0,
00:05.1,-0.00279808,-0.000972748,0.002632141,0,
00:05.1,-0.002792358,-0.000967026,0.002626419,0,
00:05.2,-0.002792358,-0.000972748,0.002614975,0,
00:05.2,-0.002792358,-0.000972748,0.002626419,0,
00:05.2,-0.002792358,-0.000972748,0.002626419,0,
00:05.2,-0.002792358,-0.000967026,0.002620697,0,
00:05.2,-0.00279808,-0.000972748,0.002620697,0,
00:05.2,-0.002786636,-0.000967026,0.002626419,0,
00:05.2,-0.002792358,-0.000967026,0.002620697,0,
00:05.2,-0.002792358,-0.000972748,0.002614975,0,
00:05.2,-0.002792358,-0.000972748,0.002620697,0,
00:05.2,-0.00279808,-0.000967026,0.002632141,0,
00:05.2,-0.002792358,-0.000967026,0.002632141,0,
00:05.2,-0.002792358,-0.000967026,0.002614975,0,
00:05.2,-0.002792358,-0.000972748,0.002626419,0,
00:05.2,-0.00279808,-0.000972748,0.002626419,0,
00:05.2,-0.00279808,-0.000972748,0.002626419,0,
00:05.2,-0.002792358,-0.000967026,0.002632141,0,
00:05.2,-0.002792358,-0.000972748,0.002626419,0,
00:05.2,-0.002792358,-0.000972748,0.002620697,0,
00:05.2,-0.00279808,-0.000967026,0.002614975,0,
00:05.2,-0.002792358,-0.000972748,0.002626419,0,
00:05.2,-0.002792358,-0.000972748,0.002632141,0,
00:05.2,-0.00279808,-0.000972748,0.002632141,0,
00:05.2,-0.002792358,-0.000972748,0.002632141,0,
00:05.2,-0.002786636,-0.000967026,0.002626419,0,
00:05.2,-0.002792358,-0.000972748,0.002626419,0,
00:05.3,-0.00279808,-0.000972748,0.002626419,0,
00:05.3,-0.002792358,-0.000972748,0.002626419,0,
00:05.3,-0.002792358,-0.000972748,0.002626419,0,
00:05.3,-0.002792358,-0.000972748,0.002626419,0,
00:05.3,-0.002792358,-0.000972748,0.002626419,0,
00:05.3,-0.002786636,-0.000972748,0.002626419,0,
00:05.3,-0.002792358,-0.00097847,0.002609253,0,
00:05.3,-0.002792358,-0.000967026,0.002626419,0,
00:05.3,-0.002792358,-0.000967026,0.002643585,0,
00:05.3,-0.002792358,-0.000972748,0.002632141,0,
00:05.3,-0.002792358,-0.000972748,0.002643585,0,
00:05.3,-0.002792358,-0.000972748,0.002626419,0,
00:05.3,-0.002792358,-0.000972748,0.002632141,0,
00:05.3,-0.002792358,-0.000972748,0.002637863,0,
00:05.3,-0.002792358,-0.000972748,0.002632141,0,
00:05.3,-0.00279808,-0.00097847,0.002632141,0,
00:05.3,-0.002792358,-0.000972748,0.002626419,0,
00:05.3,-0.002792358,-0.000972748,0.002632141,0,
00:05.3,-0.002792358,-0.000972748,0.002632141,0,
00:05.3,-0.002792358,-0.000972748,0.002632141,0,
00:05.3,-0.002792358,-0.000972748,0.002637863,0,
00:05.3,-0.00279808,-0.00097847,0.002637863,0,
00:05.3,-0.00279808,-0.00097847,0.002632141,0,
00:05.3,-0.00279808,-0.00097847,0.002637863,0,
00:05.3,-0.00279808,-0.000972748,0.002637863,0,
00:05.4,-0.002792358,-0.000972748,0.002637863,0,
00:05.4,-0.002792358,-0.00097847,0.002632141,0,
00:05.4,-0.002792358,-0.000972748,0.002632141,0,
00:05.4,-0.002792358,-0.000972748,0.002632141,0,
00:05.4,-0.00279808,-0.00097847,0.002614975,0,
00:05.4,-0.002792358,-0.000984192,0.002637863,0,
00:05.4,-0.00279808,-0.00097847,0.002649307,0,
00:05.4,-0.002803802,-0.000972748,0.002637863,0,
00:05.4,-0.00279808,-0.000967026,0.002637863,0,
00:05.4,-0.00279808,-0.000967026,0.002643585,0,
00:05.4,-0.00279808,-0.000972748,0.002637863,0,
00:05.4,-0.00279808,-0.000972748,0.002632141,0,
00:05.4,-0.002792358,-0.000972748,0.002626419,0,
00:05.4,-0.002792358,-0.000972748,0.002626419,0,
00:05.4,-0.002792358,-0.000972748,0.002626419,0,
00:05.4,-0.002786636,-0.000972748,0.002637863,0,
00:05.4,-0.002792358,-0.000972748,0.002626419,0,
00:05.4,-0.00279808,-0.000984192,0.002643585,0,
00:05.4,-0.002792358,-0.00097847,0.002649307,0,
00:05.4,-0.00279808,-0.000972748,0.002643585,0,
00:05.4,-0.002803802,-0.000972748,0.002643585,0,
00:05.4,-0.00279808,-0.000972748,0.002632141,0,
00:05.4,-0.00279808,-0.000972748,0.002637863,0,
00:05.4,-0.00279808,-0.000972748,0.002637863,0,
00:05.4,-0.002792358,-0.000972748,0.002632141,0,
00:05.5,-0.002792358,-0.00097847,0.002637863,0,
00:05.5,-0.002803802,-0.00097847,0.002637863,0,
00:05.5,-0.00279808,-0.00097847,0.002637863,0,
00:05.5,-0.002792358,-0.000972748,0.002632141,0,
00:05.5,-0.002792358,-0.000972748,0.002632141,0,
00:05.5,-0.002792358,-0.000972748,0.002632141,0,
00:05.5,-0.002792358,-0.000972748,0.002637863,0,
00:05.5,-0.002792358,-0.00097847,0.002632141,0,
00:05.5,-0.002792358,-0.00097847,0.002632141,0,
00:05.5,-0.002792358,-0.000972748,0.002632141,0,
00:05.5,-0.002792358,-0.000972748,0.002632141,0,
00:05.5,-0.002792358,-0.00097847,0.002632141,0,
00:05.5,-0.002792358,-0.00097847,0.002626419,0,
00:05.5,-0.00279808,-0.00097847,0.002637863,0,
00:05.5,-0.002792358,-0.000972748,0.002632141,0,
00:05.5,-0.002792358,-0.000967026,0.002632141,0,
00:05.5,-0.002792358,-0.000972748,0.002632141,0,
00:05.5,-0.002792358,-0.000972748,0.002643585,0,
00:05.5,-0.002792358,-0.000972748,0.002637863,0,
00:05.5,-0.002792358,-0.000972748,0.002637863,0,
00:05.5,-0.002792358,-0.00097847,0.002637863,0,
00:05.5,-0.002792358,-0.00097847,0.002632141,0,
00:05.5,-0.002792358,-0.00097847,0.002626419,0,
00:05.5,-0.002792358,-0.00097847,0.002637863,0,
00:05.5,-0.002792358,-0.00097847,0.002643585,0,
00:05.6,-0.00279808,-0.00097847,0.002637863,0,
00:05.6,-0.002792358,-0.00097847,0.002637863,0,
00:05.6,-0.002786636,-0.00097847,0.002637863,0,
00:05.6,-0.002780914,-0.00097847,0.002637863,0,
00:05.6,-0.002803802,-0.000984192,0.002637863,0,
00:05.6,-0.00279808,-0.00097847,0.002637863,0,
00:05.6,-0.002792358,-0.00097847,0.002620697,0,
00:05.6,-0.002792358,-0.00097847,0.002626419,0,
00:05.6,-0.002786636,-0.000972748,0.002643585,0,
00:05.6,-0.00279808,-0.00097847,0.002637863,0,
00:05.6,-0.002792358,-0.00097847,0.002643585,0,
00:05.6,-0.002792358,-0.000972748,0.002637863,0,
00:05.6,-0.002792358,-0.000972748,0.002637863,0,
00:05.6,-0.002792358,-0.00097847,0.002626419,0,
00:05.6,-0.002792358,-0.00097847,0.002632141,0,
00:05.6,-0.002792358,-0.000972748,0.002643585,0,
00:05.6,-0.002792358,-0.00097847,0.002643585,0,
00:05.6,-0.002792358,-0.00097847,0.002637863,0,
00:05.6,-0.002792358,-0.000972748,0.002632141,0,
00:05.6,-0.002792358,-0.00097847,0.002637863,0,
00:05.6,-0.002792358,-0.000972748,0.002643585,0,
00:05.6,-0.002786636,-0.000972748,0.002637863,0,
00:05.6,-0.002792358,-0.00097847,0.002643585,0,
00:05.6,-0.002792358,-0.00097847,0.002637863,0,
00:05.6,-0.002786636,-0.00097847,0.002632141,0,
00:05.7,-0.00279808,-0.000984192,0.002632141,0,
00:05.7,-0.002792358,-0.00097847,0.002632141,0,
00:05.7,-0.002786636,-0.00097847,0.002637863,0,
00:05.7,-0.002792358,-0.000972748,0.002632141,0,
00:05.7,-0.002786636,-0.00097847,0.002643585,0,
00:05.7,-0.002792358,-0.00097847,0.002643585,0,
00:05.7,-0.002792358,-0.000972748,0.002637863,0,
00:05.7,-0.002792358,-0.00097847,0.002637863,0,
00:05.7,-0.002786636,-0.00097847,0.002643585,0,
00:05.7,-0.002786636,-0.00097847,0.002632141,0,
00:05.7,-0.002792358,-0.00097847,0.002637863,0,
00:05.7,-0.002792358,-0.00097847,0.002637863,0,
00:05.7,-0.002792358,-0.00097847,0.002632141,0,
00:05.7,-0.002780914,-0.000972748,0.002643585,0,
00:05.7,-0.002786636,-0.00097847,0.002649307,0,
00:05.7,-0.00279808,-0.000984192,0.002643585,0,
00:05.7,-0.002792358,-0.00097847,0.002637863,0,
00:05.7,-0.002792358,-0.00097847,0.002643585,0,
00:05.7,-0.002792358,-0.00097847,0.002643585,0,
00:05.7,-0.002792358,-0.00097847,0.002637863,0,
00:05.7,-0.002786636,-0.000984192,0.002632141,0,
00:05.7,-0.002792358,-0.00097847,0.002632141,0,
00:05.7,-0.002786636,-0.00097847,0.002637863,0,
00:05.7,-0.002792358,-0.00097847,0.002649307,0,
00:05.7,-0.002792358,-0.00097847,0.002643585,0,
00:05.8,-0.002786636,-0.00097847,0.002643585,0,
00:05.8,-0.002786636,-0.00097847,0.002637863,0,
00:05.8,-0.002786636,-0.00097847,0.002643585,0,
00:05.8,-0.002792358,-0.00097847,0.002649307,0,
00:05.8,-0.002786636,-0.00097847,0.002643585,0,
00:05.8,-0.002792358,-0.00097847,0.002637863,0,
00:05.8,-0.002792358,-0.00097847,0.002637863,0,
00:05.8,-0.002792358,-0.00097847,0.002637863,0,
00:05.8,-0.002792358,-0.00097847,0.002643585,0,
00:05.8,-0.002792358,-0.000984192,0.002637863,0,
00:05.8,-0.002786636,-0.00097847,0.002637863,0,
00:05.8,-0.002792358,-0.000984192,0.002643585,0,
00:05.8,-0.002786636,-0.000984192,0.002637863,0,
00:05.8,-0.002786636,-0.00097847,0.002643585,0,
00:05.8,-0.002786636,-0.00097847,0.002626419,0,
00:05.8,-0.002780914,-0.00097847,0.002614975,0,
00:05.8,-0.002786636,-0.00097847,0.002643585,0,
00:05.8,-0.002786636,-0.00097847,0.002643585,0,
00:05.8,-0.002786636,-0.00097847,0.002637863,0,
00:05.8,-0.002792358,-0.00097847,0.002643585,0,
00:05.8,-0.002792358,-0.000984192,0.002643585,0,
00:05.8,-0.002786636,-0.00097847,0.002632141,0,
00:05.8,-0.002786636,-0.000984192,0.002643585,0,
00:05.8,-0.002792358,-0.000984192,0.002649307,0,
00:05.8,-0.002792358,-0.00097847,0.002643585,0,
00:05.9,-0.002786636,-0.00097847,0.002643585,0,
00:05.9,-0.002786636,-0.00097847,0.002643585,0,
00:05.9,-0.002786636,-0.00097847,0.002643585,0,
00:05.9,-0.002786636,-0.00097847,0.002637863,0,
00:05.9,-0.002786636,-0.000984192,0.002637863,0,
00:05.9,-0.002786636,-0.000984192,0.002637863,0,
00:05.9,-0.002786636,-0.000984192,0.002649307,0,
00:05.9,-0.002786636,-0.00097847,0.002649307,0,
00:05.9,-0.002786636,-0.00097847,0.002643585,0,
00:05.9,-0.002780914,-0.00097847,0.002637863,0,
00:05.9,-0.002786636,-0.00097847,0.002632141,0,
00:05.9,-0.002786636,-0.000984192,0.002643585,0,
00:05.9,-0.002786636,-0.00097847,0.002643585,0,
00:05.9,-0.002786636,-0.000984192,0.002637863,0,
00:05.9,-0.002786636,-0.000984192,0.002614975,0,
00:05.9,-0.002780914,-0.000984192,0.002603531,0,
00:05.9,-0.002780914,-0.000972748,0.002649307,0,
00:05.9,-0.00276947,-0.00097847,0.002660751,0,
00:05.9,-0.002786636,-0.000984192,0.002649307,0,
00:05.9,-0.002786636,-0.00097847,0.002643585,0,
00:05.9,-0.002786636,-0.00097847,0.002649307,0,
00:05.9,-0.002786636,-0.00097847,0.002649307,0,
00:05.9,-0.002786636,-0.00097847,0.002643585,0,
00:05.9,-0.002780914,-0.000984192,0.002637863,0,
00:05.9,-0.002786636,-0.00097847,0.002649307,0,
00:06.0,-0.002786636,-0.00097847,0.002643585,0,
00:06.0,-0.002780914,-0.000984192,0.002637863,0,
00:06.0,-0.002780914,-0.00097847,0.002637863,0,
00:06.0,-0.002786636,-0.00097847,0.002643585,0,
00:06.0,-0.002786636,-0.00097847,0.002643585,0,
00:06.0,-0.002786636,-0.000984192,0.002643585,0,
00:06.0,-0.002786636,-0.000984192,0.002637863,0,
00:06.0,-0.002786636,-0.00097847,0.002637863,0,
00:06.0,-0.002786636,-0.000984192,0.002626419,0,
00:06.0,-0.002786636,-0.000984192,0.002649307,0,
00:06.0,-0.002780914,-0.000984192,0.002643585,0,
00:06.0,-0.002786636,-0.000984192,0.002643585,0,
00:00:06,-0.002780914,-0.000984192,0.002637863,0,
00:06.0,-0.002780914,-0.000984192,0.002643585,0,
00:06.0,-0.002780914,-0.000984192,0.002649307,0,
00:06.0,-0.002780914,-0.00097847,0.002643585,0,
00:06.0,-0.002780914,-0.00097847,0.002637863,0,
00:06.0,-0.002780914,-0.000984192,0.002632141,0,
00:06.0,-0.002780914,-0.000984192,0.002649307,0,
00:06.0,-0.002780914,-0.00097847,0.002649307,0,
00:06.0,-0.002780914,-0.00097847,0.002637863,0,
00:06.0,-0.002780914,-0.000984192,0.002643585,0,
00:06.0,-0.002780914,-0.000984192,0.002643585,0,
00:06.0,-0.002786636,-0.00097847,0.002643585,0,
00:06.0,-0.002780914,-0.000984192,0.002637863,0,
00:06.1,-0.002780914,-0.000984192,0.002649307,0,
00:06.1,-0.002780914,-0.000984192,0.002649307,0,
00:06.1,-0.002780914,-0.000984192,0.002643585,0,
00:06.1,-0.002780914,-0.000984192,0.002643585,0,
00:06.1,-0.002780914,-0.00097847,0.002643585,0,
00:06.1,-0.002780914,-0.00097847,0.002643585,0,
00:06.1,-0.002780914,-0.000984192,0.002637863,0,
00:06.1,-0.002780914,-0.00097847,0.002643585,0,
00:06.1,-0.002780914,-0.00097847,0.002637863,0,
00:06.1,-0.002780914,-0.000984192,0.002643585,0,
00:06.1,-0.002780914,-0.000984192,0.002649307,0,
00:06.1,-0.002780914,-0.000984192,0.002649307,0,
00:06.1,-0.002780914,-0.00097847,0.002649307,0,
00:06.1,-0.002780914,-0.000984192,0.002643585,0,
00:06.1,-0.002780914,-0.000984192,0.002637863,0,
00:06.1,-0.002780914,-0.000984192,0.002632141,0,
00:06.1,-0.002780914,-0.000984192,0.002637863,0,
00:06.1,-0.002780914,-0.000984192,0.002643585,0,
00:06.1,-0.002780914,-0.000984192,0.002643585,0,
00:06.1,-0.002775192,-0.000984192,0.002649307,0,
00:06.1,-0.002786636,-0.000984192,0.002649307,0,
00:06.1,-0.002780914,-0.000984192,0.002649307,0,
00:06.1,-0.002780914,-0.000984192,0.002643585,0,
00:06.1,-0.002780914,-0.000989914,0.002637863,0,
00:06.1,-0.002775192,-0.000984192,0.002637863,0,
00:06.2,-0.002780914,-0.000984192,0.002649307,0,
00:06.2,-0.002780914,-0.000984192,0.002649307,0,
00:06.2,-0.002780914,-0.000984192,0.002643585,0,
00:06.2,-0.002775192,-0.00097847,0.002637863,0,
00:06.2,-0.002780914,-0.000984192,0.002643585,0,
00:06.2,-0.002780914,-0.000984192,0.002643585,0,
00:06.2,-0.002780914,-0.00097847,0.002637863,0,
00:06.2,-0.002780914,-0.000984192,0.002643585,0,
00:06.2,-0.002780914,-0.000984192,0.002649307,0,
00:06.2,-0.002780914,-0.00097847,0.002637863,0,
00:06.2,-0.002775192,-0.00097847,0.002643585,0,
00:06.2,-0.002775192,-0.00097847,0.002655029,0,
00:06.2,-0.002775192,-0.000984192,0.002649307,0,
00:06.2,-0.002780914,-0.000984192,0.002637863,0,
00:06.2,-0.002775192,-0.000984192,0.002637863,0,
00:06.2,-0.002775192,-0.000984192,0.002643585,0,
00:06.2,-0.002775192,-0.000984192,0.002649307,0,
00:06.2,-0.002780914,-0.000984192,0.002649307,0,
00:06.2,-0.002780914,-0.000989914,0.002649307,0,
00:06.2,-0.002780914,-0.000989914,0.002643585,0,
00:06.2,-0.002780914,-0.000984192,0.002637863,0,
00:06.2,-0.002775192,-0.000984192,0.002643585,0,
00:06.2,-0.002780914,-0.000984192,0.002655029,0,
00:06.2,-0.002775192,-0.000984192,0.002643585,0,
00:06.2,-0.002775192,-0.000984192,0.002643585,0,
00:06.3,-0.002775192,-0.000984192,0.002649307,0,
00:06.3,-0.002775192,-0.000989914,0.002649307,0,
00:06.3,-0.002775192,-0.000989914,0.002649307,0,
00:06.3,-0.002780914,-0.000984192,0.002649307,0,
00:06.3,-0.002780914,-0.000984192,0.002649307,0,
00:06.3,-0.002775192,-0.000984192,0.002643585,0,
00:06.3,-0.002775192,-0.000984192,0.002637863,0,
00:06.3,-0.00276947,-0.00097847,0.002637863,0,
00:06.3,-0.00276947,-0.000984192,0.002649307,0,
00:06.3,-0.002780914,-0.000989914,0.002643585,0,
00:06.3,-0.002775192,-0.000984192,0.002655029,0,
00:06.3,-0.002775192,-0.00097847,0.002655029,0,
00:06.3,-0.002775192,-0.000984192,0.002649307,0,
00:06.3,-0.002775192,-0.000984192,0.002649307,0,
00:06.3,-0.002775192,-0.000984192,0.002649307,0,
00:06.3,-0.002775192,-0.000989914,0.002643585,0,
00:06.3,-0.00276947,-0.000984192,0.002632141,0,
00:06.3,-0.002775192,-0.000984192,0.002637863,0,
00:06.3,-0.002775192,-0.000984192,0.002660751,0,
00:06.3,-0.002775192,-0.000984192,0.002655029,0,
00:06.3,-0.002775192,-0.000984192,0.002655029,0,
00:06.3,-0.00276947,-0.000984192,0.002649307,0,
00:06.3,-0.002775192,-0.000984192,0.002643585,0,
00:06.3,-0.00276947,-0.000984192,0.002655029,0,
00:06.3,-0.00276947,-0.000984192,0.002643585,0,
00:06.4,-0.00276947,-0.000984192,0.002632141,0,
00:06.4,-0.00276947,-0.000989914,0.002643585,0,
00:06.4,-0.00276947,-0.000984192,0.002660751,0,
00:06.4,-0.00276947,-0.000984192,0.002655029,0,
00:06.4,-0.00276947,-0.000984192,0.002649307,0,
00:06.4,-0.00276947,-0.000989914,0.002649307,0,
00:06.4,-0.00276947,-0.000989914,0.002643585,0,
00:06.4,-0.00276947,-0.000989914,0.002643585,0,
00:06.4,-0.00276947,-0.000995636,0.002649307,0,
00:06.4,-0.00276947,-0.000984192,0.002649307,0,
00:06.4,-0.002775192,-0.000984192,0.002643585,0,
00:06.4,-0.00276947,-0.000984192,0.002655029,0,
00:06.4,-0.00276947,-0.000984192,0.002649307,0,
00:06.4,-0.002763748,-0.000984192,0.002637863,0,
00:06.4,-0.002752304,-0.000984192,0.002649307,0,
00:06.4,-0.002775192,-0.000989914,0.002655029,0,
00:06.4,-0.002775192,-0.000989914,0.002655029,0,
00:06.4,-0.00276947,-0.000984192,0.002649307,0,
00:06.4,-0.00276947,-0.000984192,0.002643585,0,
00:06.4,-0.00276947,-0.000989914,0.002643585,0,
00:06.4,-0.00276947,-0.000984192,0.002643585,0,
00:06.4,-0.00276947,-0.000984192,0.002643585,0,
00:06.4,-0.002763748,-0.000984192,0.002649307,0,
00:06.4,-0.002763748,-0.000984192,0.002643585,0,
00:06.4,-0.00276947,-0.000995636,0.002655029,0,
00:06.5,-0.002775192,-0.000995636,0.002637863,0,
00:06.5,-0.002763748,-0.000984192,0.002643585,0,
00:06.5,-0.002763748,-0.000984192,0.002660751,0,
00:06.5,-0.002763748,-0.000984192,0.002649307,0,
00:06.5,-0.002763748,-0.000989914,0.002649307,0,
00:06.5,-0.00276947,-0.000989914,0.002655029,0,
00:06.5,-0.002763748,-0.000989914,0.002655029,0,
00:06.5,-0.00276947,-0.000989914,0.002649307,0,
00:06.5,-0.00276947,-0.000989914,0.002649307,0,
00:06.5,-0.00276947,-0.000989914,0.002649307,0,
00:06.5,-0.002763748,-0.000984192,0.002649307,0,
00:06.5,-0.002763748,-0.000989914,0.002643585,0,
00:06.5,-0.002763748,-0.000989914,0.002649307,0,
00:06.5,-0.002763748,-0.000989914,0.002643585,0,
00:06.5,-0.002758026,-0.000984192,0.002649307,0,
00:06.5,-0.002763748,-0.000984192,0.002649307,0,
00:06.5,-0.002763748,-0.000984192,0.002649307,0,
00:06.5,-0.00276947,-0.000995636,0.002649307,0,
00:06.5,-0.002763748,-0.000989914,0.002643585,0,
00:06.5,-0.002763748,-0.000989914,0.002649307,0,
00:06.5,-0.002763748,-0.000989914,0.002637863,0,
00:06.5,-0.002763748,-0.000989914,0.002649307,0,
00:06.5,-0.002763748,-0.000989914,0.002655029,0,
00:06.5,-0.002763748,-0.000989914,0.002655029,0,
00:06.5,-0.002763748,-0.000989914,0.002649307,0,
00:06.6,-0.002763748,-0.000989914,0.002643585,0,
00:06.6,-0.002763748,-0.000989914,0.002643585,0,
00:06.6,-0.002763748,-0.000989914,0.002655029,0,
00:06.6,-0.002763748,-0.000984192,0.002655029,0,
00:06.6,-0.002763748,-0.000989914,0.002655029,0,
00:06.6,-0.002763748,-0.000989914,0.002649307,0,
00:06.6,-0.00276947,-0.000995636,0.002649307,0,
00:06.6,-0.002763748,-0.000984192,0.002637863,0,
00:06.6,-0.002763748,-0.000989914,0.002649307,0,
00:06.6,-0.002752304,-0.000984192,0.002649307,0,
00:06.6,-0.002752304,-0.000984192,0.002655029,0,
00:06.6,-0.002763748,-0.000984192,0.002655029,0,
00:06.6,-0.002763748,-0.000984192,0.002655029,0,
00:06.6,-0.002763748,-0.000984192,0.002655029,0,
00:06.6,-0.002758026,-0.000984192,0.002655029,0,
00:06.6,-0.002758026,-0.000984192,0.002649307,0,
00:06.6,-0.002763748,-0.000989914,0.002643585,0,
00:06.6,-0.002763748,-0.000989914,0.002643585,0,
00:06.6,-0.002763748,-0.000989914,0.002655029,0,
00:06.6,-0.002763748,-0.000989914,0.002655029,0,
00:06.6,-0.002758026,-0.000989914,0.002655029,0,
00:06.6,-0.002763748,-0.000989914,0.002655029,0,
00:06.6,-0.002763748,-0.000995636,0.002637863,0,
00:06.6,-0.002763748,-0.000995636,0.002649307,0,
00:06.6,-0.002758026,-0.000989914,0.002672195,0,
00:06.7,-0.002758026,-0.000984192,0.002655029,0,
00:06.7,-0.002758026,-0.000989914,0.002643585,0,
00:06.7,-0.002758026,-0.000989914,0.002660751,0,
00:06.7,-0.002758026,-0.000989914,0.002660751,0,
00:06.7,-0.002758026,-0.000989914,0.002655029,0,
00:06.7,-0.002758026,-0.000989914,0.002649307,0,
00:06.7,-0.002763748,-0.000989914,0.002655029,0,
00:06.7,-0.002763748,-0.000995636,0.002655029,0,
00:06.7,-0.002758026,-0.000989914,0.002660751,0,
00:06.7,-0.002758026,-0.000984192,0.002660751,0,
00:06.7,-0.002758026,-0.000989914,0.002655029,0,
00:06.7,-0.002763748,-0.000989914,0.002649307,0,
00:06.7,-0.002758026,-0.000989914,0.002655029,0,
00:06.7,-0.002758026,-0.000989914,0.002655029,0,
00:06.7,-0.002752304,-0.000989914,0.002655029,0,
00:06.7,-0.002763748,-0.000989914,0.002649307,0,
00:06.7,-0.002763748,-0.000989914,0.002649307,0,
00:06.7,-0.002758026,-0.000989914,0.002655029,0,
00:06.7,-0.002763748,-0.000989914,0.002655029,0,
00:06.7,-0.002758026,-0.000989914,0.002655029,0,
00:06.7,-0.002752304,-0.000989914,0.002655029,0,
00:06.7,-0.002763748,-0.000995636,0.002637863,0,
00:06.7,-0.002758026,-0.000984192,0.002632141,0,
00:06.7,-0.002758026,-0.000984192,0.002672195,0,
00:06.7,-0.002763748,-0.000989914,0.002672195,0,
00:06.8,-0.002763748,-0.000989914,0.002666473,0,
00:06.8,-0.002763748,-0.000989914,0.002660751,0,
00:06.8,-0.002758026,-0.000989914,0.002660751,0,
00:06.8,-0.002758026,-0.000984192,0.002655029,0,
00:06.8,-0.002763748,-0.000989914,0.002655029,0,
00:06.8,-0.002758026,-0.000984192,0.002655029,0,
00:06.8,-0.002758026,-0.000989914,0.002655029,0,
00:06.8,-0.002758026,-0.000984192,0.002660751,0,
00:06.8,-0.002758026,-0.000984192,0.002660751,0,
00:06.8,-0.002758026,-0.000989914,0.002660751,0,
00:06.8,-0.002758026,-0.000989914,0.002655029,0,
00:06.8,-0.002758026,-0.000989914,0.002655029,0,
00:06.8,-0.002763748,-0.000989914,0.002655029,0,
00:06.8,-0.002758026,-0.000989914,0.002660751,0,
00:06.8,-0.002758026,-0.000984192,0.002655029,0,
00:06.8,-0.002758026,-0.000989914,0.002660751,0,
00:06.8,-0.002758026,-0.000989914,0.002655029,0,
00:06.8,-0.002763748,-0.000989914,0.002655029,0,
00:06.8,-0.002763748,-0.000995636,0.002655029,0,
00:06.8,-0.002758026,-0.000989914,0.002655029,0,
00:06.8,-0.002758026,-0.000989914,0.002660751,0,
00:06.8,-0.002763748,-0.000989914,0.002660751,0,
00:06.8,-0.002763748,-0.000984192,0.002660751,0,
00:06.8,-0.002758026,-0.000989914,0.002649307,0,
00:06.8,-0.002758026,-0.000989914,0.002643585,0,
00:06.9,-0.002758026,-0.000984192,0.002660751,0,
00:06.9,-0.002758026,-0.000989914,0.002666473,0,
00:06.9,-0.002763748,-0.000995636,0.002655029,0,
00:06.9,-0.002763748,-0.000995636,0.002649307,0,
00:06.9,-0.002758026,-0.000984192,0.002655029,0,
00:06.9,-0.002758026,-0.000984192,0.002660751,0,
00:06.9,-0.002752304,-0.000984192,0.002660751,0,
00:06.9,-0.002758026,-0.000984192,0.002666473,0,
00:06.9,-0.002758026,-0.000989914,0.002660751,0,
00:06.9,-0.002758026,-0.000989914,0.002660751,0,
00:06.9,-0.002758026,-0.000989914,0.002655029,0,
00:06.9,-0.002746582,-0.000984192,0.002655029,0,
00:06.9,-0.002763748,-0.000989914,0.002649307,0,
00:06.9,-0.002763748,-0.000989914,0.002649307,0,
00:06.9,-0.002758026,-0.000989914,0.002666473,0,
00:06.9,-0.002758026,-0.000989914,0.002660751,0,
00:06.9,-0.002758026,-0.000989914,0.002649307,0,
00:06.9,-0.002752304,-0.000989914,0.002655029,0,
00:06.9,-0.002758026,-0.000989914,0.002660751,0,
00:06.9,-0.002763748,-0.000995636,0.002666473,0,
00:06.9,-0.002758026,-0.000989914,0.002660751,0,
00:06.9,-0.002752304,-0.000984192,0.002655029,0,
00:06.9,-0.002758026,-0.000989914,0.002655029,0,
00:06.9,-0.002758026,-0.000989914,0.002660751,0,
00:06.9,-0.002758026,-0.000984192,0.002660751,0,
00:07.0,-0.002758026,-0.000989914,0.002655029,0,
00:07.0,-0.002758026,-0.000989914,0.002655029,0,
00:07.0,-0.002752304,-0.000989914,0.002655029,0,
00:07.0,-0.002752304,-0.000989914,0.002649307,0,
00:07.0,-0.002752304,-0.000989914,0.002660751,0,
00:07.0,-0.002752304,-0.000989914,0.002666473,0,
00:07.0,-0.002752304,-0.000989914,0.002660751,0,
00:07.0,-0.002752304,-0.000989914,0.002655029,0,
00:07.0,-0.002752304,-0.000989914,0.002655029,0,
00:07.0,-0.002752304,-0.000989914,0.002666473,0,
00:07.0,-0.002758026,-0.000989914,0.002660751,0,
00:07.0,-0.002752304,-0.001001358,0.002666473,0,
00:00:07,-0.002752304,-0.000995636,0.002660751,0,
00:07.0,-0.002758026,-0.000989914,0.002660751,0,
00:07.0,-0.002752304,-0.000989914,0.002660751,0,
00:07.0,-0.002752304,-0.000989914,0.002655029,0,
00:07.0,-0.002746582,-0.000984192,0.002660751,0,
00:07.0,-0.002758026,-0.000989914,0.002649307,0,
00:07.0,-0.002758026,-0.000995636,0.002666473,0,
00:07.0,-0.002752304,-0.000995636,0.002660751,0,
00:07.0,-0.002752304,-0.000989914,0.002660751,0,
00:07.0,-0.002752304,-0.000989914,0.002660751,0,
00:07.0,-0.002752304,-0.000989914,0.002660751,0,
00:07.0,-0.002746582,-0.000989914,0.002655029,0,
00:07.0,-0.002752304,-0.000989914,0.002660751,0,
00:07.1,-0.002752304,-0.000989914,0.002666473,0,
00:07.1,-0.002752304,-0.000989914,0.002666473,0,
00:07.1,-0.002752304,-0.000989914,0.002660751,0,
00:07.1,-0.002752304,-0.000989914,0.002660751,0,
00:07.1,-0.002752304,-0.000989914,0.002655029,0,
00:07.1,-0.002746582,-0.000989914,0.002660751,0,
00:07.1,-0.002752304,-0.000989914,0.002660751,0,
00:07.1,-0.002752304,-0.000989914,0.002666473,0,
00:07.1,-0.002752304,-0.000989914,0.002660751,0,
00:07.1,-0.002746582,-0.000989914,0.002660751,0,
00:07.1,-0.00274086,-0.000989914,0.002660751,0,
00:07.1,-0.002758026,-0.000989914,0.002655029,0,
00:07.1,-0.002752304,-0.000989914,0.002666473,0,
00:07.1,-0.002752304,-0.000989914,0.002666473,0,
00:07.1,-0.002752304,-0.000989914,0.002660751,0,
00:07.1,-0.002752304,-0.000989914,0.002655029,0,
00:07.1,-0.002752304,-0.000989914,0.002660751,0,
00:07.1,-0.002746582,-0.000989914,0.002655029,0,
00:07.1,-0.002752304,-0.000989914,0.002660751,0,
00:07.1,-0.002752304,-0.000989914,0.002660751,0,
00:07.1,-0.002752304,-0.000989914,0.002655029,0,
00:07.1,-0.002746582,-0.000989914,0.002655029,0,
00:07.1,-0.002746582,-0.000989914,0.002655029,0,
00:07.1,-0.002752304,-0.000989914,0.002672195,0,
00:07.1,-0.002752304,-0.000989914,0.002666473,0,
00:07.2,-0.002758026,-0.000995636,0.002660751,0,
00:07.2,-0.002752304,-0.000989914,0.002655029,0,
00:07.2,-0.002746582,-0.000989914,0.002666473,0,
00:07.2,-0.002752304,-0.000995636,0.002660751,0,
00:07.2,-0.002752304,-0.000989914,0.002660751,0,
00:07.2,-0.002746582,-0.000989914,0.002660751,0,
00:07.2,-0.002752304,-0.000989914,0.002666473,0,
00:07.2,-0.002752304,-0.000989914,0.002660751,0,
00:07.2,-0.002746582,-0.000989914,0.002660751,0,
00:07.2,-0.002746582,-0.000989914,0.002666473,0,
00:07.2,-0.002746582,-0.000984192,0.002660751,0,
00:07.2,-0.002746582,-0.000989914,0.002666473,0,
00:07.2,-0.002746582,-0.000995636,0.002666473,0,
00:07.2,-0.002752304,-0.000995636,0.002660751,0,
00:07.2,-0.002752304,-0.000995636,0.002660751,0,
00:07.2,-0.002746582,-0.000989914,0.002660751,0,
00:07.2,-0.002752304,-0.000995636,0.002655029,0,
00:07.2,-0.002752304,-0.000995636,0.002655029,0,
00:07.2,-0.002746582,-0.000989914,0.002655029,0,
00:07.2,-0.002746582,-0.000989914,0.002672195,0,
00:07.2,-0.002752304,-0.000989914,0.002660751,0,
00:07.2,-0.002752304,-0.000995636,0.002660751,0,
00:07.2,-0.002752304,-0.000995636,0.002672195,0,
00:07.2,-0.002752304,-0.000989914,0.002666473,0,
00:07.2,-0.002746582,-0.000989914,0.002666473,0,
00:07.3,-0.002746582,-0.000989914,0.002655029,0,
00:07.3,-0.002746582,-0.000984192,0.002649307,0,
00:07.3,-0.002746582,-0.000989914,0.002660751,0,
00:07.3,-0.002752304,-0.000995636,0.002666473,0,
00:07.3,-0.002752304,-0.000995636,0.002672195,0,
00:07.3,-0.002752304,-0.001001358,0.002666473,0,
00:07.3,-0.002752304,-0.000995636,0.002666473,0,
00:07.3,-0.002746582,-0.000989914,0.002666473,0,
00:07.3,-0.002746582,-0.000989914,0.002666473,0,
00:07.3,-0.002746582,-0.000989914,0.002660751,0,
00:07.3,-0.002746582,-0.000989914,0.002655029,0,
00:07.3,-0.002746582,-0.000989914,0.002655029,0,
00:07.3,-0.002746582,-0.000989914,0.002672195,0,
00:07.3,-0.002746582,-0.000995636,0.002672195,0,
00:07.3,-0.002746582,-0.000995636,0.002666473,0,
00:07.3,-0.002746582,-0.000995636,0.002666473,0,
00:07.3,-0.002746582,-0.000995636,0.002666473,0,
00:07.3,-0.002746582,-0.000995636,0.002666473,0,
00:07.3,-0.00274086,-0.000989914,0.002666473,0,
00:07.3,-0.002752304,-0.000995636,0.002660751,0,
00:07.3,-0.002746582,-0.000995636,0.002655029,0,
00:07.3,-0.002746582,-0.000989914,0.002655029,0,
00:07.3,-0.002746582,-0.000995636,0.002666473,0,
00:07.3,-0.002746582,-0.000995636,0.002672195,0,
00:07.3,-0.002746582,-0.000995636,0.002677917,0,
00:07.4,-0.002746582,-0.000989914,0.002672195,0,
00:07.4,-0.002746582,-0.000989914,0.002666473,0,
00:07.4,-0.002746582,-0.000995636,0.002666473,0,
00:07.4,-0.00274086,-0.000995636,0.002660751,0,
00:07.4,-0.002735138,-0.000989914,0.002666473,0,
00:07.4,-0.00274086,-0.000989914,0.002666473,0,
00:07.4,-0.002746582,-0.000995636,0.002666473,0,
00:07.4,-0.002746582,-0.001001358,0.002672195,0,
00:07.4,-0.002746582,-0.000995636,0.002672195,0,
00:07.4,-0.002746582,-0.000989914,0.002666473,0,
00:07.4,-0.002746582,-0.000989914,0.002666473,0,
00:07.4,-0.00274086,-0.000989914,0.002672195,0,
00:07.4,-0.00274086,-0.000989914,0.002666473,0,
00:07.4,-0.00274086,-0.000989914,0.002666473,0,
00:07.4,-0.00274086,-0.000995636,0.002666473,0,
00:07.4,-0.002746582,-0.000995636,0.002666473,0,
00:07.4,-0.002746582,-0.000995636,0.002666473,0,
00:07.4,-0.00274086,-0.000989914,0.002666473,0,
00:07.4,-0.00274086,-0.000989914,0.002666473,0,
00:07.4,-0.00274086,-0.000989914,0.002655029,0,
00:07.4,-0.002735138,-0.000989914,0.002660751,0,
00:07.4,-0.002746582,-0.000995636,0.002672195,0,
00:07.4,-0.002746582,-0.000989914,0.002660751,0,
00:07.4,-0.00274086,-0.000989914,0.002660751,0,
00:07.4,-0.00274086,-0.000989914,0.002672195,0,
00:07.5,-0.00274086,-0.000989914,0.002660751,0,
00:07.5,-0.002735138,-0.000989914,0.002672195,0,
00:07.5,-0.00274086,-0.000995636,0.002672195,0,
00:07.5,-0.00274086,-0.000989914,0.002672195,0,
00:07.5,-0.00274086,-0.000989914,0.002672195,0,
00:07.5,-0.00274086,-0.000989914,0.002666473,0,
00:07.5,-0.00274086,-0.000989914,0.002677917,0,
00:07.5,-0.00274086,-0.000995636,0.002677917,0,
00:07.5,-0.00274086,-0.000989914,0.002672195,0,
00:07.5,-0.00274086,-0.000989914,0.002672195,0,
00:07.5,-0.00274086,-0.000989914,0.002666473,0,
00:07.5,-0.00274086,-0.000989914,0.002666473,0,
00:07.5,-0.00274086,-0.000995636,0.002672195,0,
00:07.5,-0.00274086,-0.000995636,0.002666473,0,
00:07.5,-0.00274086,-0.000995636,0.002666473,0,
00:07.5,-0.00274086,-0.000995636,0.002660751,0,
00:07.5,-0.002735138,-0.000989914,0.002666473,0,
00:07.5,-0.00274086,-0.000995636,0.002672195,0,
00:07.5,-0.00274086,-0.000995636,0.002666473,0,
00:07.5,-0.00274086,-0.000995636,0.002666473,0,
00:07.5,-0.002735138,-0.000989914,0.002660751,0,
00:07.5,-0.002735138,-0.000989914,0.002666473,0,
00:07.5,-0.002735138,-0.000995636,0.002666473,0,
00:07.5,-0.00274086,-0.000989914,0.00268364,0,
00:07.5,-0.00274086,-0.000984192,0.002666473,0,
00:07.6,-0.002735138,-0.000984192,0.002666473,0,
00:07.6,-0.002735138,-0.000989914,0.002677917,0,
00:07.6,-0.00274086,-0.000989914,0.002677917,0,
00:07.6,-0.00274086,-0.000995636,0.002677917,0,
00:07.6,-0.002735138,-0.000989914,0.002666473,0,
00:07.6,-0.002735138,-0.000995636,0.002660751,0,
00:07.6,-0.00274086,-0.000995636,0.002672195,0,
00:07.6,-0.002735138,-0.000989914,0.002677917,0,
00:07.6,-0.002735138,-0.000989914,0.002677917,0,
00:07.6,-0.002735138,-0.000989914,0.002677917,0,
00:07.6,-0.002735138,-0.000989914,0.002672195,0,
00:07.6,-0.002735138,-0.000989914,0.002672195,0,
00:07.6,-0.002735138,-0.000995636,0.002672195,0,
00:07.6,-0.002735138,-0.000995636,0.002672195,0,
00:07.6,-0.002735138,-0.000995636,0.002672195,0,
00:07.6,-0.002729416,-0.000989914,0.002666473,0,
00:07.6,-0.002735138,-0.000989914,0.002660751,0,
00:07.6,-0.002735138,-0.000984192,0.002655029,0,
00:07.6,-0.002735138,-0.000984192,0.002672195,0,
00:07.6,-0.002735138,-0.000989914,0.002677917,0,
00:07.6,-0.002735138,-0.000989914,0.002677917,0,
00:07.6,-0.002735138,-0.000995636,0.002677917,0,
00:07.6,-0.002735138,-0.000989914,0.002672195,0,
00:07.6,-0.002735138,-0.000989914,0.002672195,0,
00:07.6,-0.002735138,-0.000989914,0.002677917,0,
00:07.7,-0.002735138,-0.000995636,0.002677917,0,
00:07.7,-0.00274086,-0.000995636,0.002666473,0,
00:07.7,-0.002735138,-0.000989914,0.002666473,0,
00:07.7,-0.002729416,-0.000989914,0.002677917,0,
00:07.7,-0.002729416,-0.000989914,0.002677917,0,
00:07.7,-0.002735138,-0.000989914,0.002672195,0,
00:07.7,-0.002735138,-0.000995636,0.002672195,0,
00:07.7,-0.002735138,-0.000995636,0.002677917,0,
00:07.7,-0.002735138,-0.000995636,0.00268364,0,
00:07.7,-0.002735138,-0.000989914,0.002677917,0,
00:07.7,-0.002735138,-0.000989914,0.002672195,0,
00:07.7,-0.002735138,-0.000989914,0.002677917,0,
00:07.7,-0.002735138,-0.000989914,0.002677917,0,
00:07.7,-0.002729416,-0.000989914,0.002672195,0,
00:07.7,-0.002729416,-0.000989914,0.002672195,0,
00:07.7,-0.002735138,-0.000989914,0.002677917,0,
00:07.7,-0.002735138,-0.000995636,0.002677917,0,
00:07.7,-0.002735138,-0.000989914,0.002672195,0,
00:07.7,-0.002735138,-0.000989914,0.002672195,0,
00:07.7,-0.002729416,-0.000989914,0.002666473,0,
00:07.7,-0.002729416,-0.000984192,0.002666473,0,
00:07.7,-0.002729416,-0.000989914,0.00268364,0,
00:07.7,-0.002729416,-0.000989914,0.002666473,0,
00:07.7,-0.002735138,-0.000995636,0.002672195,0,
00:07.7,-0.002729416,-0.000989914,0.002689362,0,
00:07.8,-0.002729416,-0.000995636,0.00268364,0,
00:07.8,-0.002729416,-0.000995636,0.00268364,0,
00:07.8,-0.002735138,-0.000995636,0.002677917,0,
00:07.8,-0.002735138,-0.000989914,0.002677917,0,
00:07.8,-0.002735138,-0.000995636,0.002677917,0,
00:07.8,-0.002735138,-0.001001358,0.002677917,0,
00:07.8,-0.002735138,-0.000995636,0.002677917,0,
00:07.8,-0.002729416,-0.000989914,0.002677917,0,
00:07.8,-0.002729416,-0.000984192,0.002672195,0,
00:07.8,-0.002729416,-0.000984192,0.002672195,0,
00:07.8,-0.002723694,-0.000984192,0.002672195,0,
00:07.8,-0.002729416,-0.000989914,0.002677917,0,
00:07.8,-0.002735138,-0.000995636,0.002677917,0,
00:07.8,-0.002729416,-0.000995636,0.002677917,0,
00:07.8,-0.002729416,-0.000989914,0.002677917,0,
00:07.8,-0.002729416,-0.000984192,0.002677917,0,
00:07.8,-0.002729416,-0.000984192,0.002677917,0,
00:07.8,-0.002729416,-0.000989914,0.002672195,0,
00:07.8,-0.002729416,-0.000989914,0.002672195,0,
00:07.8,-0.002729416,-0.000989914,0.002666473,0,
00:07.8,-0.002729416,-0.000989914,0.002666473,0,
00:07.8,-0.002723694,-0.000989914,0.00268364,0,
00:07.8,-0.002729416,-0.000989914,0.00268364,0,
00:07.8,-0.002723694,-0.000989914,0.002666473,0,
00:07.8,-0.002723694,-0.000989914,0.00268364,0,
00:07.9,-0.002729416,-0.000989914,0.00268364,0,
00:07.9,-0.002729416,-0.000989914,0.00268364,0,
00:07.9,-0.002729416,-0.000995636,0.002677917,0,
00:07.9,-0.002729416,-0.000989914,0.002677917,0,
00:07.9,-0.002729416,-0.000995636,0.00268364,0,
00:07.9,-0.002729416,-0.000995636,0.002677917,0,
00:07.9,-0.002729416,-0.000995636,0.00268364,0,
00:07.9,-0.002729416,-0.000995636,0.002677917,0,
00:07.9,-0.002729416,-0.000995636,0.002672195,0,
00:07.9,-0.002723694,-0.000995636,0.002672195,0,
00:07.9,-0.002723694,-0.000989914,0.00268364,0,
00:07.9,-0.002729416,-0.000989914,0.00268364,0,
00:07.9,-0.002729416,-0.000989914,0.00268364,0,
00:07.9,-0.002729416,-0.000989914,0.00268364,0,
00:07.9,-0.002729416,-0.000989914,0.002677917,0,
00:07.9,-0.002729416,-0.000989914,0.002672195,0,
00:07.9,-0.002729416,-0.000989914,0.002660751,0,
00:07.9,-0.002729416,-0.000995636,0.002689362,0,
00:07.9,-0.002723694,-0.000989914,0.002689362,0,
00:07.9,-0.002729416,-0.000989914,0.00268364,0,
00:07.9,-0.002723694,-0.000989914,0.00268364,0,
00:07.9,-0.002723694,-0.000989914,0.00268364,0,
00:07.9,-0.002723694,-0.000989914,0.00268364,0,
00:07.9,-0.002729416,-0.000995636,0.002672195,0,
00:07.9,-0.002723694,-0.000989914,0.002666473,0,
00:08.0,-0.002717972,-0.000984192,0.002677917,0,
00:08.0,-0.002723694,-0.000989914,0.002677917,0,
00:08.0,-0.002723694,-0.000995636,0.00268364,0,
00:08.0,-0.002723694,-0.000995636,0.00268364,0,
00:08.0,-0.002723694,-0.000989914,0.002689362,0,
00:08.0,-0.002723694,-0.000989914,0.002677917,0,
00:08.0,-0.002723694,-0.000995636,0.002677917,0,
00:08.0,-0.002723694,-0.000989914,0.002689362,0,
00:08.0,-0.002723694,-0.000989914,0.00268364,0,
00:08.0,-0.002723694,-0.000989914,0.00268364,0,
00:08.0,-0.002723694,-0.000995636,0.002677917,0,
00:08.0,-0.002723694,-0.000989914,0.002672195,0,
00:00:08,-0.002717972,-0.000984192,0.002689362,0,
00:08.0,-0.002723694,-0.000989914,0.00268364,0,
00:08.0,-0.002723694,-0.000989914,0.00268364,0,
00:08.0,-0.002723694,-0.000989914,0.00268364,0,
00:08.0,-0.002723694,-0.000989914,0.00268364,0,
00:08.0,-0.002717972,-0.000984192,0.00268364,0,
00:08.0,-0.002717972,-0.000989914,0.002677917,0,
00:08.0,-0.00271225,-0.000989914,0.002677917,0,
00:08.0,-0.002723694,-0.000989914,0.00268364,0,
00:08.0,-0.002717972,-0.000989914,0.00268364,0,
00:08.0,-0.002717972,-0.000989914,0.002677917,0,
00:08.0,-0.002729416,-0.000989914,0.002677917,0,
00:08.0,-0.002723694,-0.000995636,0.00268364,0,
00:08.1,-0.002723694,-0.000995636,0.002689362,0,
00:08.1,-0.002723694,-0.000995636,0.002695084,0,
00:08.1,-0.002717972,-0.000989914,0.002689362,0,
00:08.1,-0.002723694,-0.000989914,0.00268364,0,
00:08.1,-0.002723694,-0.000995636,0.002677917,0,
00:08.1,-0.002717972,-0.000995636,0.00268364,0,
00:08.1,-0.002717972,-0.000989914,0.002672195,0,
00:08.1,-0.002717972,-0.000984192,0.002677917,0,
00:08.1,-0.00271225,-0.00097847,0.002689362,0,
00:08.1,-0.002723694,-0.000989914,0.002689362,0,
00:08.1,-0.002723694,-0.000989914,0.002689362,0,
00:08.1,-0.002717972,-0.000989914,0.00268364,0,
00:08.1,-0.002717972,-0.000989914,0.00268364,0,
00:08.1,-0.002723694,-0.000995636,0.00268364,0,
00:08.1,-0.002723694,-0.000995636,0.00268364,0,
00:08.1,-0.002717972,-0.000989914,0.002677917,0,
00:08.1,-0.002717972,-0.000989914,0.002677917,0,
00:08.1,-0.002717972,-0.000989914,0.00268364,0,
00:08.1,-0.002717972,-0.000995636,0.00268364,0,
00:08.1,-0.002717972,-0.000995636,0.002677917,0,
00:08.1,-0.002717972,-0.000989914,0.00268364,0,
00:08.1,-0.002717972,-0.000989914,0.002672195,0,
00:08.1,-0.002717972,-0.000989914,0.002672195,0,
00:08.1,-0.002717972,-0.000989914,0.002689362,0,
00:08.1,-0.002717972,-0.000989914,0.00268364,0,
00:08.2,-0.002717972,-0.000989914,0.00268364,0,
00:08.2,-0.002723694,-0.000995636,0.00268364,0,
00:08.2,-0.002723694,-0.000989914,0.002677917,0,
00:08.2,-0.002717972,-0.000989914,0.002677917,0,
00:08.2,-0.002717972,-0.000989914,0.00268364,0,
00:08.2,-0.002717972,-0.000989914,0.00268364,0,
00:08.2,-0.002717972,-0.000989914,0.002689362,0,
00:08.2,-0.002717972,-0.000989914,0.00268364,0,
00:08.2,-0.00271225,-0.000989914,0.002689362,0,
00:08.2,-0.002717972,-0.000989914,0.002677917,0,
00:08.2,-0.002717972,-0.000995636,0.002666473,0,
00:08.2,-0.002717972,-0.000989914,0.00268364,0,
00:08.2,-0.002717972,-0.000989914,0.002700806,0,
00:08.2,-0.002717972,-0.000989914,0.002689362,0,
00:08.2,-0.002717972,-0.000989914,0.00268364,0,
00:08.2,-0.00271225,-0.000989914,0.002677917,0,
00:08.2,-0.002717972,-0.000989914,0.002689362,0,
00:08.2,-0.002717972,-0.000995636,0.00268364,0,
00:08.2,-0.002717972,-0.000995636,0.00268364,0,
00:08.2,-0.002717972,-0.000989914,0.002689362,0,
00:08.2,-0.00271225,-0.000989914,0.00268364,0,
00:08.2,-0.00271225,-0.000989914,0.00268364,0,
00:08.2,-0.00271225,-0.000995636,0.002677917,0,
00:08.2,-0.002717972,-0.000995636,0.00268364,0,
00:08.2,-0.00271225,-0.000989914,0.00268364,0,
00:08.3,-0.00271225,-0.000989914,0.00268364,0,
00:08.3,-0.00271225,-0.000984192,0.002689362,0,
00:08.3,-0.002717972,-0.000989914,0.002689362,0,
00:08.3,-0.002717972,-0.000995636,0.002695084,0,
00:08.3,-0.002717972,-0.000995636,0.00268364,0,
00:08.3,-0.00271225,-0.000989914,0.002677917,0,
00:08.3,-0.00271225,-0.000984192,0.00268364,0,
00:08.3,-0.00271225,-0.000989914,0.002689362,0,
00:08.3,-0.002717972,-0.000989914,0.002689362,0,
00:08.3,-0.002717972,-0.000989914,0.00268364,0,
00:08.3,-0.00271225,-0.000989914,0.002695084,0,
00:08.3,-0.00271225,-0.000989914,0.002695084,0,
00:08.3,-0.002717972,-0.000995636,0.002689362,0,
00:08.3,-0.002717972,-0.001001358,0.00268364,0,
00:08.3,-0.00271225,-0.000984192,0.002689362,0,
00:08.3,-0.00271225,-0.000984192,0.00268364,0,
00:08.3,-0.002706528,-0.000989914,0.002689362,0,
00:08.3,-0.00271225,-0.000989914,0.002695084,0,
00:08.3,-0.002717972,-0.000989914,0.002695084,0,
00:08.3,-0.002717972,-0.000989914,0.002689362,0,
00:08.3,-0.002717972,-0.000989914,0.002689362,0,
00:08.3,-0.00271225,-0.000984192,0.002689362,0,
00:08.3,-0.002706528,-0.000984192,0.002666473,0,
00:08.3,-0.002706528,-0.000984192,0.002672195,0,
00:08.3,-0.00271225,-0.000989914,0.002700806,0,
00:08.4,-0.002717972,-0.000995636,0.002695084,0,
00:08.4,-0.002717972,-0.000989914,0.002700806,0,
00:08.4,-0.002717972,-0.000989914,0.002689362,0,
00:08.4,-0.00271225,-0.000984192,0.002695084,0,
00:08.4,-0.00271225,-0.000984192,0.002695084,0,
00:08.4,-0.002717972,-0.000989914,0.002695084,0,
00:08.4,-0.002717972,-0.000995636,0.002695084,0,
00:08.4,-0.00271225,-0.000989914,0.002689362,0,
00:08.4,-0.00271225,-0.000989914,0.00268364,0,
00:08.4,-0.00271225,-0.000989914,0.002689362,0,
00:08.4,-0.00271225,-0.000989914,0.002689362,0,
00:08.4,-0.00271225,-0.000989914,0.002689362,0,
00:08.4,-0.002717972,-0.000989914,0.002700806,0,
00:08.4,-0.00271225,-0.000984192,0.002695084,0,
00:08.4,-0.00271225,-0.000984192,0.002700806,0,
00:08.4,-0.00271225,-0.000989914,0.002695084,0,
00:08.4,-0.00271225,-0.000989914,0.002695084,0,
00:08.4,-0.00271225,-0.000989914,0.002695084,0,
00:08.4,-0.00271225,-0.000995636,0.002689362,0,
00:08.4,-0.002717972,-0.000995636,0.00268364,0,
00:08.4,-0.00271225,-0.000995636,0.002689362,0,
00:08.4,-0.002706528,-0.000984192,0.002695084,0,
00:08.4,-0.002706528,-0.000984192,0.002695084,0,
00:08.4,-0.00271225,-0.000989914,0.002695084,0,
00:08.4,-0.00271225,-0.000989914,0.002695084,0,
00:08.5,-0.00271225,-0.000989914,0.002695084,0,
00:08.5,-0.00271225,-0.000989914,0.002695084,0,
00:08.5,-0.00271225,-0.000989914,0.002695084,0,
00:08.5,-0.00271225,-0.000995636,0.002700806,0,
00:08.5,-0.00271225,-0.000989914,0.002695084,0,
00:08.5,-0.00271225,-0.000989914,0.002695084,0,
00:08.5,-0.00271225,-0.000989914,0.002695084,0,
00:08.5,-0.00271225,-0.000989914,0.002700806,0,
00:08.5,-0.00271225,-0.000989914,0.002695084,0,
00:08.5,-0.002706528,-0.000984192,0.002695084,0,
00:08.5,-0.00271225,-0.000995636,0.002689362,0,
00:08.5,-0.00271225,-0.000995636,0.002700806,0,
00:08.5,-0.00271225,-0.000995636,0.002689362,0,
00:08.5,-0.00271225,-0.000989914,0.002695084,0,
00:08.5,-0.002706528,-0.000989914,0.002706528,0,
00:08.5,-0.00271225,-0.000984192,0.002695084,0,
00:08.5,-0.002717972,-0.000989914,0.002695084,0,
00:08.5,-0.00271225,-0.000989914,0.002700806,0,
00:08.5,-0.00271225,-0.000995636,0.002706528,0,
00:08.5,-0.00271225,-0.000989914,0.002700806,0,
00:08.5,-0.00271225,-0.000989914,0.002695084,0,
00:08.5,-0.00271225,-0.000989914,0.002695084,0,
00:08.5,-0.00271225,-0.000989914,0.002700806,0,
00:08.5,-0.002706528,-0.000984192,0.002700806,0,
00:08.5,-0.002706528,-0.000984192,0.002700806,0,
00:08.6,-0.002706528,-0.000989914,0.002700806,0,
00:08.6,-0.002706528,-0.000989914,0.002700806,0,
00:08.6,-0.00271225,-0.000989914,0.002700806,0,
00:08.6,-0.00271225,-0.000989914,0.002695084,0,
00:08.6,-0.002706528,-0.000989914,0.002700806,0,
00:08.6,-0.002706528,-0.000984192,0.002706528,0,
00:08.6,-0.00271225,-0.000989914,0.002700806,0,
00:08.6,-0.00271225,-0.000995636,0.002706528,0,
00:08.6,-0.00271225,-0.001001358,0.002700806,0,
00:08.6,-0.00271225,-0.000989914,0.002695084,0,
00:08.6,-0.002706528,-0.000984192,0.002695084,0,
00:08.6,-0.002706528,-0.00097847,0.002700806,0,
00:08.6,-0.002706528,-0.00097847,0.002700806,0,
00:08.6,-0.002706528,-0.000984192,0.002700806,0,
00:08.6,-0.00271225,-0.000989914,0.002700806,0,
00:08.6,-0.00271225,-0.000989914,0.002700806,0,
00:08.6,-0.00271225,-0.000984192,0.002700806,0,
00:08.6,-0.002706528,-0.000989914,0.002700806,0,
00:08.6,-0.002706528,-0.000989914,0.002700806,0,
00:08.6,-0.00271225,-0.000984192,0.002700806,0,
00:08.6,-0.002706528,-0.000984192,0.002700806,0,
00:08.6,-0.002700806,-0.000984192,0.002700806,0,
00:08.6,-0.002700806,-0.000984192,0.002700806,0,
00:08.6,-0.00271225,-0.000984192,0.002700806,0,
00:08.6,-0.00271225,-0.000989914,0.002695084,0,
00:08.7,-0.00271225,-0.000989914,0.002706528,0,
00:08.7,-0.002706528,-0.000989914,0.002700806,0,
00:08.7,-0.00271225,-0.000989914,0.002706528,0,
00:08.7,-0.00271225,-0.000989914,0.00271225,0,
00:08.7,-0.00271225,-0.000989914,0.002700806,0,
00:08.7,-0.002706528,-0.000989914,0.002700806,0,
00:08.7,-0.002706528,-0.000989914,0.002706528,0,
00:08.7,-0.002706528,-0.000989914,0.002706528,0,
00:08.7,-0.002706528,-0.000989914,0.002706528,0,
00:08.7,-0.002706528,-0.000989914,0.00271225,0,
00:08.7,-0.002706528,-0.000989914,0.002706528,0,
00:08.7,-0.002706528,-0.000989914,0.002706528,0,
00:08.7,-0.002706528,-0.000989914,0.002706528,0,
00:08.7,-0.002706528,-0.000995636,0.002706528,0,
00:08.7,-0.002706528,-0.000995636,0.002700806,0,
00:08.7,-0.002706528,-0.000995636,0.002706528,0,
00:08.7,-0.002700806,-0.000989914,0.002700806,0,
00:08.7,-0.002700806,-0.000989914,0.002700806,0,
00:08.7,-0.002706528,-0.000989914,0.002706528,0,
00:08.7,-0.002700806,-0.000989914,0.002706528,0,
00:08.7,-0.002706528,-0.000989914,0.002706528,0,
00:08.7,-0.002706528,-0.000989914,0.002706528,0,
00:08.7,-0.002706528,-0.000995636,0.002706528,0,
00:08.7,-0.002706528,-0.000995636,0.002706528,0,
00:08.7,-0.002706528,-0.000995636,0.002700806,0,
00:08.8,-0.002706528,-0.000995636,0.002706528,0,
00:08.8,-0.002700806,-0.000989914,0.002700806,0,
00:08.8,-0.002700806,-0.000989914,0.002706528,0,
00:08.8,-0.002700806,-0.000989914,0.002706528,0,
00:08.8,-0.002700806,-0.000989914,0.002695084,0,
00:08.8,-0.002700806,-0.000989914,0.002695084,0,
00:08.8,-0.002706528,-0.000995636,0.00271225,0,
00:08.8,-0.002700806,-0.000995636,0.002717972,0,
00:08.8,-0.002706528,-0.000995636,0.002717972,0,
00:08.8,-0.002706528,-0.000995636,0.002706528,0,
00:08.8,-0.002706528,-0.000995636,0.002700806,0,
00:08.8,-0.002706528,-0.000989914,0.00271225,0,
00:08.8,-0.002706528,-0.000989914,0.00271225,0,
00:08.8,-0.002700806,-0.000984192,0.002717972,0,
00:08.8,-0.002700806,-0.000984192,0.00271225,0,
00:08.8,-0.002706528,-0.000995636,0.002706528,0,
00:08.8,-0.002706528,-0.000989914,0.00271225,0,
00:08.8,-0.002706528,-0.000989914,0.00271225,0,
00:08.8,-0.002706528,-0.000989914,0.00271225,0,
00:08.8,-0.002706528,-0.000995636,0.002706528,0,
00:08.8,-0.002706528,-0.000995636,0.00271225,0,
00:08.8,-0.002706528,-0.000989914,0.00271225,0,
00:08.8,-0.002706528,-0.000995636,0.00271225,0,
00:08.8,-0.002706528,-0.000995636,0.002706528,0,
00:08.8,-0.00271225,-0.000995636,0.002695084,0,
00:08.9,-0.00271225,-0.001001358,0.002700806,0,
00:08.9,-0.00271225,-0.000995636,0.002717972,0,
00:08.9,-0.00271225,-0.000989914,0.00271225,0,
00:08.9,-0.00271225,-0.000989914,0.002706528,0,
00:08.9,-0.002706528,-0.000984192,0.00271225,0,
00:08.9,-0.00271225,-0.000989914,0.002706528,0,
00:08.9,-0.00271225,-0.000989914,0.00271225,0,
00:08.9,-0.00271225,-0.000989914,0.00271225,0,
00:08.9,-0.002706528,-0.000989914,0.00271225,0,
00:08.9,-0.00271225,-0.000989914,0.00271225,0,
00:08.9,-0.002706528,-0.000989914,0.002706528,0,
00:08.9,-0.00271225,-0.000989914,0.00271225,0,
00:08.9,-0.00271225,-0.000989914,0.002717972,0,
00:08.9,-0.002717972,-0.000995636,0.00271225,0,
00:08.9,-0.002717972,-0.000989914,0.00271225,0,
00:08.9,-0.002717972,-0.000989914,0.00271225,0,
00:08.9,-0.00271225,-0.000989914,0.002717972,0,
00:08.9,-0.00271225,-0.000995636,0.00271225,0,
00:08.9,-0.002717972,-0.001001358,0.00271225,0,
00:08.9,-0.00271225,-0.000989914,0.002717972,0,
00:08.9,-0.002717972,-0.000989914,0.00271225,0,
00:08.9,-0.002717972,-0.000989914,0.00271225,0,
00:08.9,-0.002717972,-0.000989914,0.002717972,0,
00:08.9,-0.002717972,-0.000995636,0.002717972,0,
00:08.9,-0.002717972,-0.000989914,0.002717972,0,
00:09.0,-0.002717972,-0.000995636,0.00271225,0,
00:09.0,-0.002717972,-0.000995636,0.002717972,0,
00:09.0,-0.002723694,-0.001001358,0.002717972,0,
00:09.0,-0.002723694,-0.000995636,0.002717972,0,
00:09.0,-0.002717972,-0.000989914,0.002717972,0,
00:09.0,-0.002723694,-0.000989914,0.002717972,0,
00:09.0,-0.002723694,-0.000995636,0.002717972,0,
00:09.0,-0.002723694,-0.001001358,0.00271225,0,
00:09.0,-0.002723694,-0.000995636,0.00271225,0,
00:09.0,-0.002723694,-0.000989914,0.002717972,0,
00:09.0,-0.002723694,-0.000984192,0.002717972,0,
00:09.0,-0.002723694,-0.000989914,0.002717972,0,
00:00:09,-0.002723694,-0.000989914,0.00271225,0,
00:09.0,-0.002723694,-0.000989914,0.00271225,0,
00:09.0,-0.002723694,-0.000989914,0.00271225,0,
00:09.0,-0.002723694,-0.000989914,0.002717972,0,
00:09.0,-0.002723694,-0.000989914,0.002717972,0,
00:09.0,-0.002729416,-0.000995636,0.002717972,0,
00:09.0,-0.002729416,-0.000989914,0.00271225,0,
00:09.0,-0.002729416,-0.000995636,0.002706528,0,
00:09.0,-0.002729416,-0.000995636,0.002723694,0,
00:09.0,-0.002735138,-0.001001358,0.002729416,0,
00:09.0,-0.002735138,-0.001001358,0.002723694,0,
00:09.0,-0.002735138,-0.000995636,0.002717972,0,
00:09.0,-0.002729416,-0.000995636,0.002717972,0,
00:09.1,-0.002729416,-0.000989914,0.00271225,0,
00:09.1,-0.002735138,-0.000995636,0.002729416,0,
00:09.1,-0.002735138,-0.000995636,0.002723694,0,
00:09.1,-0.002735138,-0.000995636,0.00271225,0,
00:09.1,-0.002735138,-0.000995636,0.002723694,0,
00:09.1,-0.002729416,-0.000995636,0.002729416,0,
00:09.1,-0.002746582,-0.001001358,0.002723694,0,
00:09.1,-0.00274086,-0.000995636,0.002717972,0,
00:09.1,-0.00274086,-0.001001358,0.002723694,0,
00:09.1,-0.00274086,-0.000995636,0.002723694,0,
00:09.1,-0.00274086,-0.000989914,0.002717972,0,
00:09.1,-0.00274086,-0.000995636,0.002717972,0,
00:09.1,-0.00274086,-0.000995636,0.00271225,0,
00:09.1,-0.002746582,-0.000995636,0.002723694,0,
00:09.1,-0.00274086,-0.000995636,0.002729416,0,
00:09.1,-0.002746582,-0.000995636,0.002723694,0,
00:09.1,-0.002746582,-0.000995636,0.002723694,0,
00:09.1,-0.002746582,-0.000995636,0.002723694,0,
00:09.1,-0.002746582,-0.000995636,0.002717972,0,
00:09.1,-0.002752304,-0.000995636,0.002717972,0,
00:09.1,-0.002752304,-0.000995636,0.002723694,0,
00:09.1,-0.002752304,-0.001001358,0.002723694,0,
00:09.1,-0.002752304,-0.001001358,0.002717972,0,
00:09.1,-0.002752304,-0.001001358,0.00271225,0,
00:09.1,-0.002758026,-0.001001358,0.002717972,0,
00:09.2,-0.002758026,-0.001001358,0.002723694,0,
00:09.2,-0.002752304,-0.000995636,0.002723694,0,
00:09.2,-0.002758026,-0.000995636,0.002717972,0,
00:09.2,-0.002758026,-0.000995636,0.002717972,0,
00:09.2,-0.002763748,-0.000995636,0.002717972,0,
00:09.2,-0.002763748,-0.000995636,0.002717972,0,
00:09.2,-0.002763748,-0.000995636,0.002717972,0,
00:09.2,-0.002763748,-0.001001358,0.002723694,0,
00:09.2,-0.002763748,-0.000995636,0.002735138,0,
00:09.2,-0.00276947,-0.000995636,0.002723694,0,
00:09.2,-0.00276947,-0.000995636,0.002723694,0,
00:09.2,-0.00276947,-0.001001358,0.002735138,0,
00:09.2,-0.002775192,-0.001001358,0.002729416,0,
00:09.2,-0.002775192,-0.001001358,0.002723694,0,
00:09.2,-0.002775192,-0.001001358,0.002723694,0,
00:09.2,-0.00276947,-0.000995636,0.002723694,0,
00:09.2,-0.00276947,-0.001001358,0.002729416,0,
00:09.2,-0.002775192,-0.00100708,0.002723694,0,
00:09.2,-0.002780914,-0.00100708,0.00271225,0,
00:09.2,-0.002780914,-0.001001358,0.002717972,0,
00:09.2,-0.002775192,-0.000995636,0.002723694,0,
00:09.2,-0.002780914,-0.001001358,0.002735138,0,
00:09.2,-0.002780914,-0.001001358,0.002735138,0,
00:09.2,-0.002780914,-0.001001358,0.002729416,0,
00:09.2,-0.002786636,-0.001001358,0.002723694,0,
00:09.3,-0.002786636,-0.001001358,0.002723694,0,
00:09.3,-0.002786636,-0.00100708,0.002729416,0,
00:09.3,-0.002786636,-0.00100708,0.002723694,0,
00:09.3,-0.002786636,-0.001001358,0.002717972,0,
00:09.3,-0.002792358,-0.00100708,0.002729416,0,
00:09.3,-0.002792358,-0.00100708,0.002735138,0,
00:09.3,-0.002792358,-0.00100708,0.002729416,0,
00:09.3,-0.00279808,-0.00100708,0.002723694,0,
00:09.3,-0.00279808,-0.00100708,0.002717972,0,
00:09.3,-0.00279808,-0.00100708,0.002735138,0,
00:09.3,-0.002803802,-0.001012802,0.002735138,0,
00:09.3,-0.002803802,-0.001018524,0.002729416,0,
00:09.3,-0.002803802,-0.001012802,0.002729416,0,
00:09.3,-0.002803802,-0.00100708,0.002729416,0,
00:09.3,-0.002803802,-0.001001358,0.002729416,0,
00:09.3,-0.002809525,-0.00100708,0.002735138,0,
00:09.3,-0.002809525,-0.00100708,0.002729416,0,
00:09.3,-0.002809525,-0.00100708,0.002729416,0,
00:09.3,-0.002815247,-0.001012802,0.002723694,0,
00:09.3,-0.002809525,-0.00100708,0.002717972,0,
00:09.3,-0.002815247,-0.00100708,0.002723694,0,
00:09.3,-0.002820969,-0.001012802,0.00274086,0,
00:09.3,-0.002820969,-0.001012802,0.002735138,0,
00:09.3,-0.002820969,-0.001012802,0.002729416,0,
00:09.3,-0.002820969,-0.001012802,0.002729416,0,
00:09.4,-0.002826691,-0.001012802,0.002723694,0,
00:09.4,-0.002826691,-0.001012802,0.002735138,0,
00:09.4,-0.002826691,-0.001018524,0.002723694,0,
00:09.4,-0.002820969,-0.001018524,0.002717972,0,
00:09.4,-0.002820969,-0.001018524,0.002735138,0,
00:09.4,-0.002843857,-0.001024246,0.002729416,0,
00:09.4,-0.002832413,-0.001012802,0.002729416,0,
00:09.4,-0.002832413,-0.001012802,0.00274086,0,
00:09.4,-0.002838135,-0.001018524,0.002735138,0,
00:09.4,-0.002838135,-0.001018524,0.002729416,0,
00:09.4,-0.002838135,-0.001018524,0.002717972,0,
00:09.4,-0.002838135,-0.001018524,0.002729416,0,
00:09.4,-0.002843857,-0.001024246,0.00274086,0,
00:09.4,-0.002843857,-0.001024246,0.002735138,0,
00:09.4,-0.002843857,-0.001024246,0.002735138,0,
00:09.4,-0.002843857,-0.001018524,0.002729416,0,
00:09.4,-0.002843857,-0.001018524,0.002729416,0,
00:09.4,-0.002849579,-0.001018524,0.002729416,0,
00:09.4,-0.002849579,-0.001018524,0.002729416,0,
00:09.4,-0.002849579,-0.001024246,0.002723694,0,
00:09.4,-0.002855301,-0.001024246,0.002729416,0,
00:09.4,-0.002855301,-0.001024246,0.00274086,0,
00:09.4,-0.002855301,-0.001024246,0.00274086,0,
00:09.4,-0.002861023,-0.001024246,0.00274086,0,
00:09.4,-0.002861023,-0.001024246,0.002735138,0,
00:09.5,-0.002866745,-0.001024246,0.002735138,0,
00:09.5,-0.002866745,-0.001024246,0.002735138,0,
00:09.5,-0.002866745,-0.001024246,0.002723694,0,
00:09.5,-0.002866745,-0.001029968,0.002706528,0,
00:09.5,-0.002872467,-0.001029968,0.002735138,0,
00:09.5,-0.002872467,-0.001029968,0.002752304,0,
00:09.5,-0.002872467,-0.001024246,0.00274086,0,
00:09.5,-0.002878189,-0.001024246,0.00274086,0,
00:09.5,-0.002878189,-0.001029968,0.002735138,0,
00:09.5,-0.002878189,-0.001029968,0.002735138,0,
00:09.5,-0.002878189,-0.001029968,0.00274086,0,
00:09.5,-0.002883911,-0.001029968,0.002735138,0,
00:09.5,-0.002889633,-0.00103569,0.002735138,0,
00:09.5,-0.002883911,-0.00103569,0.002723694,0,
00:09.5,-0.002883911,-0.001029968,0.002735138,0,
00:09.5,-0.002889633,-0.001029968,0.002746582,0,
00:09.5,-0.002889633,-0.001029968,0.00274086,0,
00:09.5,-0.002895355,-0.001029968,0.00274086,0,
00:09.5,-0.002895355,-0.001029968,0.002735138,0,
00:09.5,-0.002895355,-0.001029968,0.002735138,0,
00:09.5,-0.002901077,-0.00103569,0.002735138,0,
00:09.5,-0.002901077,-0.00103569,0.002729416,0,
00:09.5,-0.002895355,-0.001029968,0.002729416,0,
00:09.5,-0.002901077,-0.001029968,0.00274086,0,
00:09.5,-0.002906799,-0.00103569,0.00274086,0,
00:09.6,-0.002906799,-0.00103569,0.00274086,0,
00:09.6,-0.002906799,-0.00103569,0.00274086,0,
00:09.6,-0.002906799,-0.00103569,0.00274086,0,
00:09.6,-0.002906799,-0.001041412,0.002729416,0,
00:09.6,-0.002906799,-0.00103569,0.002729416,0,
00:09.6,-0.002912521,-0.00103569,0.00274086,0,
00:09.6,-0.002918243,-0.001041412,0.00274086,0,
00:09.6,-0.002918243,-0.001041412,0.00274086,0,
00:09.6,-0.002918243,-0.001041412,0.002735138,0,
00:09.6,-0.002918243,-0.001041412,0.002735138,0,
00:09.6,-0.002918243,-0.001041412,0.002735138,0,
00:09.6,-0.002923965,-0.001041412,0.002729416,0,
00:09.6,-0.002923965,-0.001041412,0.00274086,0,
00:09.6,-0.002929688,-0.001047134,0.002735138,0,
00:09.6,-0.002929688,-0.001047134,0.002735138,0,
00:09.6,-0.002929688,-0.001052856,0.00274086,0,
00:09.6,-0.002929688,-0.001047134,0.00274086,0,
00:09.6,-0.002929688,-0.001041412,0.002735138,0,
00:09.6,-0.002929688,-0.001041412,0.00274086,0,
00:09.6,-0.002941132,-0.001041412,0.002746582,0,
00:09.6,-0.002941132,-0.001047134,0.00274086,0,
00:09.6,-0.002946854,-0.001052856,0.002735138,0,
00:09.6,-0.002941132,-0.001052856,0.002735138,0,
00:09.6,-0.002941132,-0.001047134,0.00274086,0,
00:09.6,-0.002941132,-0.001047134,0.00274086,0,
00:09.7,-0.002941132,-0.001047134,0.00274086,0,
00:09.7,-0.002946854,-0.001052856,0.00274086,0,
00:09.7,-0.002946854,-0.001047134,0.002735138,0,
00:09.7,-0.002946854,-0.001041412,0.00274086,0,
00:09.7,-0.002952576,-0.001047134,0.00274086,0,
00:09.7,-0.002958298,-0.001052856,0.002735138,0,
00:09.7,-0.002958298,-0.001052856,0.002729416,0,
00:09.7,-0.002952576,-0.001052856,0.002735138,0,
00:09.7,-0.002958298,-0.001058578,0.00274086,0,
00:09.7,-0.00296402,-0.001058578,0.002758026,0,
00:09.7,-0.00296402,-0.001058578,0.002746582,0,
00:09.7,-0.002958298,-0.001058578,0.002735138,0,
00:09.7,-0.002952576,-0.001052856,0.00274086,0,
00:09.7,-0.00296402,-0.001052856,0.002746582,0,
00:09.7,-0.002969742,-0.001058578,0.002746582,0,
00:09.7,-0.002969742,-0.001058578,0.002746582,0,
00:09.7,-0.002969742,-0.001064301,0.00274086,0,
00:09.7,-0.002969742,-0.001064301,0.00274086,0,
00:09.7,-0.002969742,-0.001058578,0.00274086,0,
00:09.7,-0.002969742,-0.001064301,0.00274086,0,
00:09.7,-0.002969742,-0.001058578,0.002735138,0,
00:09.7,-0.002975464,-0.001064301,0.002746582,0,
00:09.7,-0.002975464,-0.001064301,0.002746582,0,
00:09.7,-0.002975464,-0.001070023,0.002746582,0,
00:09.7,-0.002981186,-0.001064301,0.002746582,0,
00:09.8,-0.002975464,-0.001058578,0.00274086,0,
00:09.8,-0.002975464,-0.001058578,0.00274086,0,
00:09.8,-0.002975464,-0.001064301,0.00274086,0,
00:09.8,-0.002981186,-0.001064301,0.00274086,0,
00:09.8,-0.002981186,-0.001070023,0.00274086,0,
00:09.8,-0.002981186,-0.001064301,0.00274086,0,
00:09.8,-0.002981186,-0.001064301,0.002746582,0,
00:09.8,-0.002981186,-0.001064301,0.002746582,0,
00:09.8,-0.002986908,-0.001070023,0.00274086,0,
00:09.8,-0.002986908,-0.001070023,0.002735138,0,
00:09.8,-0.002986908,-0.001070023,0.00274086,0,
00:09.8,-0.002986908,-0.001070023,0.00274086,0,
00:09.8,-0.00299263,-0.001075745,0.00274086,0,
00:09.8,-0.00299263,-0.001075745,0.00274086,0,
00:09.8,-0.00299263,-0.001070023,0.002752304,0,
00:09.8,-0.00299263,-0.001070023,0.002752304,0,
00:09.8,-0.00299263,-0.001075745,0.00274086,0,
00:09.8,-0.00299263,-0.001070023,0.002746582,0,
00:09.8,-0.00299263,-0.001070023,0.002735138,0,
00:09.8,-0.002986908,-0.001070023,0.00274086,0,
00:09.8,-0.002998352,-0.001070023,0.002752304,0,
00:09.8,-0.002998352,-0.001075745,0.002752304,0,
00:09.8,-0.002998352,-0.001075745,0.002746582,0,
00:09.8,-0.002998352,-0.001081467,0.00274086,0,
00:09.8,-0.002998352,-0.001081467,0.002746582,0,
00:09.9,-0.00299263,-0.001075745,0.002752304,0,
00:09.9,-0.003004074,-0.001075745,0.002746582,0,
00:09.9,-0.002998352,-0.001075745,0.002746582,0,
