Elapsed_Time,EMG1,EMG2,EMG3,BioRadio Event,Unnamed: 5
00:00:00,-0.002305984,0.000263214,0.004875183,0,
00:00.0,-0.002311707,0.000228882,0.004880905,0,
00:00.0,-0.002311707,0.000268936,0.004869461,0,
00:00.0,-0.002300262,0.000297546,0.004869461,0,
00:00.0,-0.002288818,0.000297546,0.004869461,0,
00:00.0,-0.002283096,0.000303268,0.004869461,0,
00:00.0,-0.002317429,0.000268936,0.004875183,0,
00:00.0,-0.002305984,0.000297546,0.004875183,0,
00:00.0,-0.002300262,0.000297546,0.004875183,0,
00:00.0,-0.002300262,0.00028038,0.004863739,0,
00:00.0,-0.00229454,0.000286102,0.004863739,0,
00:00.0,-0.00229454,0.000297546,0.004869461,0,
00:00.0,-0.002300262,0.000303268,0.004875183,0,
00:00.1,-0.002311707,0.000268936,0.004869461,0,
00:00.1,-0.002311707,0.00025177,0.004875183,0,
00:00.1,-0.002305984,0.000263214,0.004880905,0,
00:00.1,-0.002288818,0.000314713,0.004886627,0,
00:00.1,-0.002300262,0.000303268,0.004863739,0,
00:00.1,-0.002300262,0.000286102,0.004869461,0,
00:00.1,-0.002300262,0.000297546,0.004875183,0,
00:00.1,-0.00229454,0.00028038,0.004875183,0,
00:00.1,-0.00229454,0.000274658,0.004863739,0,
00:00.1,-0.00229454,0.00028038,0.004869461,0,
00:00.1,-0.002305984,0.000263214,0.004869461,0,
00:00.1,-0.002300262,0.000268936,0.004875183,0,
00:00.1,-0.002300262,0.000291824,0.004869461,0,
00:00.1,-0.00229454,0.000303268,0.004869461,0,
00:00.1,-0.002305984,0.00025177,0.004875183,0,
00:00.1,-0.002311707,0.00025177,0.004869461,0,
00:00.1,-0.002300262,0.00028038,0.004869461,0,
00:00.1,-0.00229454,0.000303268,0.004869461,0,
00:00.1,-0.002300262,0.000291824,0.004863739,0,
00:00.1,-0.002288818,0.000297546,0.004875183,0,
00:00.1,-0.002283096,0.000291824,0.004880905,0,
00:00.1,-0.002300262,0.000263214,0.004863739,0,
00:00.1,-0.002311707,0.000246048,0.004869461,0,
00:00.1,-0.002311707,0.00028038,0.004869461,0,
00:00.1,-0.00229454,0.000303268,0.004863739,0,
00:00.2,-0.002283096,0.000286102,0.004869461,0,
00:00.2,-0.002288818,0.000240326,0.004858017,0,
00:00.2,-0.002305984,0.000240326,0.004869461,0,
00:00.2,-0.002305984,0.00028038,0.004880905,0,
00:00.2,-0.002300262,0.000291824,0.004869461,0,
00:00.2,-0.00229454,0.000291824,0.004880905,0,
00:00.2,-0.002300262,0.000274658,0.004875183,0,
00:00.2,-0.002300262,0.000263214,0.004863739,0,
00:00.2,-0.002305984,0.000257492,0.004863739,0,
00:00.2,-0.002300262,0.000263214,0.004863739,0,
00:00.2,-0.002283096,0.000303268,0.004880905,0,
00:00.2,-0.00229454,0.00028038,0.004869461,0,
00:00.2,-0.002300262,0.00028038,0.004863739,0,
00:00.2,-0.00229454,0.00028038,0.004869461,0,
00:00.2,-0.002300262,0.000263214,0.004875183,0,
00:00.2,-0.002288818,0.000263214,0.004869461,0,
00:00.2,-0.002288818,0.000274658,0.004852295,0,
00:00.2,-0.002300262,0.000274658,0.004863739,0,
00:00.2,-0.002311707,0.00025177,0.004869461,0,
00:00.2,-0.00229454,0.000274658,0.004880905,0,
00:00.2,-0.002300262,0.000274658,0.004875183,0,
00:00.2,-0.002300262,0.000274658,0.004858017,0,
00:00.2,-0.002300262,0.000274658,0.004869461,0,
00:00.2,-0.002305984,0.000246048,0.004869461,0,
00:00.2,-0.002305984,0.00025177,0.004863739,0,
00:00.3,-0.002283096,0.000274658,0.004852295,0,
00:00.3,-0.002260208,0.000326157,0.004875183,0,
00:00.3,-0.00229454,0.000297546,0.004880905,0,
00:00.3,-0.002323151,0.00025177,0.004863739,0,
00:00.3,-0.002311707,0.000246048,0.004858017,0,
00:00.3,-0.002305984,0.000240326,0.004863739,0,
00:00.3,-0.002311707,0.000246048,0.004869461,0,
00:00.3,-0.002300262,0.00028038,0.004869461,0,
00:00.3,-0.002305984,0.000274658,0.004863739,0,
00:00.3,-0.002305984,0.000274658,0.004863739,0,
00:00.3,-0.002300262,0.000263214,0.004863739,0,
00:00.3,-0.002300262,0.000257492,0.004863739,0,
00:00.3,-0.002300262,0.000274658,0.004858017,0,
00:00.3,-0.00229454,0.000274658,0.004858017,0,
00:00.3,-0.00229454,0.000274658,0.004863739,0,
00:00.3,-0.002288818,0.000274658,0.004852295,0,
00:00.3,-0.002283096,0.00028038,0.004852295,0,
00:00.3,-0.002288818,0.000297546,0.004863739,0,
00:00.3,-0.002311707,0.000268936,0.004858017,0,
00:00.3,-0.002311707,0.000257492,0.004869461,0,
00:00.3,-0.00229454,0.000263214,0.004880905,0,
00:00.3,-0.002300262,0.000268936,0.004869461,0,
00:00.3,-0.002311707,0.000234604,0.004863739,0,
00:00.3,-0.002317429,0.000217438,0.004863739,0,
00:00.3,-0.002311707,0.000257492,0.004858017,0,
00:00.4,-0.002300262,0.000274658,0.004863739,0,
00:00.4,-0.00229454,0.00028038,0.004863739,0,
00:00.4,-0.002300262,0.000274658,0.004858017,0,
00:00.4,-0.002300262,0.000274658,0.004852295,0,
00:00.4,-0.002300262,0.000268936,0.004858017,0,
00:00.4,-0.002300262,0.000257492,0.004858017,0,
00:00.4,-0.00229454,0.000257492,0.004858017,0,
00:00.4,-0.00229454,0.000274658,0.004863739,0,
00:00.4,-0.002300262,0.000286102,0.004858017,0,
00:00.4,-0.002283096,0.000286102,0.004840851,0,
00:00.4,-0.00229454,0.000263214,0.004846573,0,
00:00.4,-0.002317429,0.000246048,0.004863739,0,
00:00.4,-0.002305984,0.00025177,0.004875183,0,
00:00.4,-0.002305984,0.000240326,0.004863739,0,
00:00.4,-0.002305984,0.00025177,0.004858017,0,
00:00.4,-0.002300262,0.000257492,0.004858017,0,
00:00.4,-0.002300262,0.000268936,0.004858017,0,
00:00.4,-0.002300262,0.000268936,0.004858017,0,
00:00.4,-0.002300262,0.000246048,0.004852295,0,
00:00.4,-0.00229454,0.000240326,0.004846573,0,
00:00.4,-0.002300262,0.000268936,0.004858017,0,
00:00.4,-0.00229454,0.000286102,0.004863739,0,
00:00.4,-0.002288818,0.000286102,0.004863739,0,
00:00.4,-0.00229454,0.000268936,0.004852295,0,
00:00.4,-0.002300262,0.000268936,0.004852295,0,
00:00.5,-0.002305984,0.00025177,0.004858017,0,
00:00.5,-0.00229454,0.000234604,0.004858017,0,
00:00.5,-0.00229454,0.000217438,0.004852295,0,
00:00.5,-0.002311707,0.000240326,0.004829407,0,
00:00.5,-0.00229454,0.00030899,0.004858017,0,
00:00.5,-0.00229454,0.000274658,0.004863739,0,
00:00.5,-0.002305984,0.00025177,0.004863739,0,
00:00.5,-0.002300262,0.000263214,0.004863739,0,
00:00.5,-0.00229454,0.000274658,0.004863739,0,
00:00.5,-0.00229454,0.000263214,0.004858017,0,
00:00.5,-0.002300262,0.000268936,0.004852295,0,
00:00.5,-0.002305984,0.000240326,0.004846573,0,
00:00.5,-0.00229454,0.000246048,0.004840851,0,
00:00.5,-0.002277374,0.000291824,0.004840851,0,
00:00.5,-0.00229454,0.000268936,0.004858017,0,
00:00.5,-0.002311707,0.000246048,0.004869461,0,
00:00.5,-0.002300262,0.00025177,0.004858017,0,
00:00.5,-0.00229454,0.000257492,0.004846573,0,
00:00.5,-0.00229454,0.000263214,0.004846573,0,
00:00.5,-0.002300262,0.000246048,0.004852295,0,
00:00.5,-0.002300262,0.00025177,0.004858017,0,
00:00.5,-0.00229454,0.000257492,0.004858017,0,
00:00.5,-0.002300262,0.000234604,0.004846573,0,
00:00.5,-0.002305984,0.000217438,0.004846573,0,
00:00.5,-0.002300262,0.000263214,0.004858017,0,
00:00.6,-0.00229454,0.00028038,0.004840851,0,
00:00.6,-0.002283096,0.000286102,0.004835129,0,
00:00.6,-0.002283096,0.000286102,0.004840851,0,
00:00.6,-0.002305984,0.000240326,0.004852295,0,
00:00.6,-0.002311707,0.000240326,0.004863739,0,
00:00.6,-0.002300262,0.000257492,0.004852295,0,
00:00.6,-0.002300262,0.000257492,0.004858017,0,
00:00.6,-0.002305984,0.000240326,0.004852295,0,
00:00.6,-0.002305984,0.000240326,0.004852295,0,
00:00.6,-0.002305984,0.000240326,0.004846573,0,
00:00.6,-0.00229454,0.000257492,0.004852295,0,
00:00.6,-0.002283096,0.000268936,0.004835129,0,
00:00.6,-0.002271652,0.000297546,0.004846573,0,
00:00.6,-0.002283096,0.00028038,0.004840851,0,
00:00.6,-0.00229454,0.000263214,0.004840851,0,
00:00.6,-0.002305984,0.000246048,0.004840851,0,
00:00.6,-0.002311707,0.000234604,0.004846573,0,
00:00.6,-0.002305984,0.000240326,0.004846573,0,
00:00.6,-0.002300262,0.000257492,0.004852295,0,
00:00.6,-0.002300262,0.000257492,0.004846573,0,
00:00.6,-0.002300262,0.000257492,0.004846573,0,
00:00.6,-0.00229454,0.000268936,0.004846573,0,
00:00.6,-0.002288818,0.000274658,0.004846573,0,
00:00.6,-0.002305984,0.000240326,0.004852295,0,
00:00.6,-0.002311707,0.000228882,0.004840851,0,
00:00.7,-0.002305984,0.000240326,0.004840851,0,
00:00.7,-0.002305984,0.000246048,0.004852295,0,
00:00.7,-0.002300262,0.000246048,0.004846573,0,
00:00.7,-0.00229454,0.000246048,0.004840851,0,
00:00.7,-0.00229454,0.000240326,0.004823685,0,
00:00.7,-0.002283096,0.000246048,0.004846573,0,
00:00.7,-0.002288818,0.000286102,0.004852295,0,
00:00.7,-0.002300262,0.00028038,0.004846573,0,
00:00.7,-0.002305984,0.000246048,0.004835129,0,
00:00.7,-0.002305984,0.000240326,0.004840851,0,
00:00.7,-0.00229454,0.00025177,0.004846573,0,
00:00.7,-0.00229454,0.000263214,0.004835129,0,
00:00.7,-0.002300262,0.000240326,0.004846573,0,
00:00.7,-0.002300262,0.00022316,0.004852295,0,
00:00.7,-0.00229454,0.000257492,0.004840851,0,
00:00.7,-0.00229454,0.000268936,0.004840851,0,
00:00.7,-0.00229454,0.000286102,0.004840851,0,
00:00.7,-0.002305984,0.000246048,0.004829407,0,
00:00.7,-0.002300262,0.000257492,0.004840851,0,
00:00.7,-0.00229454,0.000257492,0.004835129,0,
00:00.7,-0.00229454,0.00025177,0.004829407,0,
00:00.7,-0.002288818,0.000246048,0.004829407,0,
00:00.7,-0.002288818,0.00025177,0.004840851,0,
00:00.7,-0.002311707,0.000246048,0.004840851,0,
00:00.7,-0.00229454,0.000268936,0.004840851,0,
00:00.8,-0.002288818,0.000274658,0.004846573,0,
00:00.8,-0.002300262,0.00025177,0.004846573,0,
00:00.8,-0.00229454,0.000240326,0.004835129,0,
00:00.8,-0.002300262,0.000228882,0.004835129,0,
00:00.8,-0.002300262,0.000217438,0.004840851,0,
00:00.8,-0.002300262,0.000228882,0.004840851,0,
00:00.8,-0.002288818,0.00028038,0.004840851,0,
00:00.8,-0.002288818,0.00028038,0.004835129,0,
00:00.8,-0.00229454,0.000263214,0.004840851,0,
00:00.8,-0.002288818,0.000268936,0.004835129,0,
00:00.8,-0.002300262,0.00025177,0.004835129,0,
00:00.8,-0.002300262,0.000240326,0.004829407,0,
00:00.8,-0.002283096,0.000246048,0.004840851,0,
00:00.8,-0.002283096,0.000268936,0.004835129,0,
00:00.8,-0.002288818,0.000268936,0.004840851,0,
00:00.8,-0.002300262,0.000234604,0.004835129,0,
00:00.8,-0.002305984,0.000228882,0.004846573,0,
00:00.8,-0.002283096,0.00022316,0.004846573,0,
00:00.8,-0.002300262,0.000240326,0.004840851,0,
00:00.8,-0.002288818,0.000274658,0.004835129,0,
00:00.8,-0.002283096,0.00028038,0.004840851,0,
00:00.8,-0.002300262,0.000246048,0.004829407,0,
00:00.8,-0.002300262,0.000240326,0.004852295,0,
00:00.8,-0.00229454,0.000234604,0.004846573,0,
00:00.8,-0.00229454,0.000234604,0.004829407,0,
00:00.9,-0.00229454,0.000246048,0.004829407,0,
00:00.9,-0.002283096,0.000268936,0.004835129,0,
00:00.9,-0.002271652,0.000274658,0.004840851,0,
00:00.9,-0.002300262,0.000234604,0.004829407,0,
00:00.9,-0.002300262,0.000246048,0.004840851,0,
00:00.9,-0.002300262,0.000246048,0.004840851,0,
00:00.9,-0.002288818,0.000240326,0.004835129,0,
00:00.9,-0.00229454,0.000234604,0.004835129,0,
00:00.9,-0.002288818,0.000257492,0.004840851,0,
00:00.9,-0.002288818,0.000263214,0.004846573,0,
00:00.9,-0.002300262,0.000240326,0.004823685,0,
00:00.9,-0.00229454,0.000228882,0.004829407,0,
00:00.9,-0.002288818,0.000240326,0.004829407,0,
00:00.9,-0.002283096,0.000263214,0.004840851,0,
00:00.9,-0.002288818,0.00025177,0.004840851,0,
00:00.9,-0.002305984,0.000234604,0.004823685,0,
00:00.9,-0.002288818,0.000268936,0.004835129,0,
00:00.9,-0.002277374,0.000257492,0.004840851,0,
00:00.9,-0.002277374,0.000246048,0.004846573,0,
00:00.9,-0.00229454,0.000240326,0.004823685,0,
00:00.9,-0.002311707,0.00022316,0.004829407,0,
00:00.9,-0.002288818,0.00025177,0.004835129,0,
00:00.9,-0.002283096,0.000263214,0.004823685,0,
00:00.9,-0.002288818,0.00025177,0.004835129,0,
00:00.9,-0.002288818,0.000240326,0.004846573,0,
00:01.0,-0.002288818,0.000240326,0.004823685,0,
00:01.0,-0.002288818,0.000246048,0.004829407,0,
00:01.0,-0.002283096,0.000263214,0.004835129,0,
00:01.0,-0.002271652,0.000257492,0.004835129,0,
00:01.0,-0.00229454,0.00022316,0.004835129,0,
00:01.0,-0.002305984,0.000217438,0.004835129,0,
00:01.0,-0.00229454,0.000246048,0.004823685,0,
00:01.0,-0.002288818,0.000240326,0.004829407,0,
00:01.0,-0.002277374,0.000257492,0.004823685,0,
00:01.0,-0.002277374,0.000257492,0.004823685,0,
00:01.0,-0.00229454,0.00025177,0.004840851,0,
00:01.0,-0.002288818,0.000240326,0.004835129,0,
00:00:01,-0.002300262,0.000188828,0.004835129,0,
00:01.0,-0.00229454,0.00019455,0.004823685,0,
00:01.0,-0.002283096,0.000268936,0.004835129,0,
00:01.0,-0.002277374,0.00028038,0.004823685,0,
00:01.0,-0.002277374,0.00028038,0.004835129,0,
00:01.0,-0.002283096,0.000268936,0.004829407,0,
00:01.0,-0.002288818,0.000234604,0.004817963,0,
00:01.0,-0.002300262,0.000217438,0.004817963,0,
00:01.0,-0.002288818,0.000228882,0.004835129,0,
00:01.0,-0.00229454,0.000240326,0.004817963,0,
00:01.0,-0.002277374,0.000268936,0.004829407,0,
00:01.0,-0.002288818,0.000257492,0.004829407,0,
00:01.0,-0.00229454,0.000234604,0.004840851,0,
00:01.1,-0.002277374,0.000234604,0.004835129,0,
00:01.1,-0.002283096,0.000228882,0.004817963,0,
00:01.1,-0.002300262,0.000217438,0.004812241,0,
00:01.1,-0.00229454,0.000228882,0.004812241,0,
00:01.1,-0.002288818,0.000234604,0.004817963,0,
00:01.1,-0.002283096,0.000257492,0.004823685,0,
00:01.1,-0.002277374,0.000263214,0.004817963,0,
00:01.1,-0.002288818,0.000228882,0.004823685,0,
00:01.1,-0.002288818,0.000217438,0.004823685,0,
00:01.1,-0.002277374,0.00025177,0.004823685,0,
00:01.1,-0.002288818,0.000240326,0.004812241,0,
00:01.1,-0.002288818,0.000246048,0.004812241,0,
00:01.1,-0.002277374,0.000263214,0.004835129,0,
00:01.1,-0.002283096,0.000246048,0.004829407,0,
00:01.1,-0.00229454,0.000217438,0.004812241,0,
00:01.1,-0.002283096,0.000234604,0.004817963,0,
00:01.1,-0.002283096,0.000228882,0.004823685,0,
00:01.1,-0.002288818,0.000240326,0.004817963,0,
00:01.1,-0.002283096,0.000240326,0.004812241,0,
00:01.1,-0.002283096,0.000228882,0.004823685,0,
00:01.1,-0.002277374,0.00025177,0.004835129,0,
00:01.1,-0.002283096,0.000268936,0.004795074,0,
00:01.1,-0.002288818,0.000228882,0.004823685,0,
00:01.1,-0.002277374,0.000240326,0.004835129,0,
00:01.1,-0.002283096,0.000257492,0.004823685,0,
00:01.2,-0.002283096,0.000234604,0.004817963,0,
00:01.2,-0.002288818,0.000217438,0.004829407,0,
00:01.2,-0.00229454,0.000205994,0.004829407,0,
00:01.2,-0.002288818,0.000234604,0.004812241,0,
00:01.2,-0.002288818,0.000234604,0.004829407,0,
00:01.2,-0.002271652,0.000246048,0.004812241,0,
00:01.2,-0.002283096,0.00025177,0.004812241,0,
00:01.2,-0.00229454,0.000246048,0.004829407,0,
00:01.2,-0.002271652,0.00025177,0.004823685,0,
00:01.2,-0.002283096,0.00025177,0.004812241,0,
00:01.2,-0.002277374,0.000246048,0.004823685,0,
00:01.2,-0.002283096,0.000240326,0.004817963,0,
00:01.2,-0.002288818,0.000228882,0.004800797,0,
00:01.2,-0.002283096,0.00022316,0.004806519,0,
00:01.2,-0.002283096,0.00022316,0.004817963,0,
00:01.2,-0.002283096,0.000240326,0.004817963,0,
00:01.2,-0.002271652,0.000257492,0.004817963,0,
00:01.2,-0.00226593,0.000268936,0.004829407,0,
00:01.2,-0.002288818,0.000234604,0.004812241,0,
00:01.2,-0.002283096,0.000234604,0.004800797,0,
00:01.2,-0.002288818,0.00022316,0.004835129,0,
00:01.2,-0.002283096,0.000234604,0.004823685,0,
00:01.2,-0.002283096,0.000240326,0.004823685,0,
00:01.2,-0.002277374,0.000228882,0.004806519,0,
00:01.2,-0.002277374,0.000228882,0.004812241,0,
00:01.3,-0.00226593,0.00025177,0.004817963,0,
00:01.3,-0.002277374,0.000240326,0.004817963,0,
00:01.3,-0.00229454,0.000217438,0.004806519,0,
00:01.3,-0.00229454,0.000217438,0.004812241,0,
00:01.3,-0.002277374,0.000228882,0.004806519,0,
00:01.3,-0.002283096,0.000228882,0.004806519,0,
00:01.3,-0.002271652,0.000257492,0.004817963,0,
00:01.3,-0.002277374,0.000257492,0.004817963,0,
00:01.3,-0.002288818,0.000228882,0.004817963,0,
00:01.3,-0.002277374,0.000228882,0.004812241,0,
00:01.3,-0.002277374,0.00022316,0.004806519,0,
00:01.3,-0.002277374,0.000234604,0.004817963,0,
00:01.3,-0.002277374,0.000234604,0.004812241,0,
00:01.3,-0.002283096,0.000228882,0.004812241,0,
00:01.3,-0.002283096,0.000240326,0.004812241,0,
00:01.3,-0.00226593,0.00025177,0.004817963,0,
00:01.3,-0.002260208,0.000257492,0.004806519,0,
00:01.3,-0.002283096,0.000228882,0.004812241,0,
00:01.3,-0.002277374,0.000228882,0.004823685,0,
00:01.3,-0.002277374,0.00022316,0.004800797,0,
00:01.3,-0.002271652,0.000234604,0.004817963,0,
00:01.3,-0.002277374,0.000246048,0.004817963,0,
00:01.3,-0.002277374,0.00022316,0.004817963,0,
00:01.3,-0.002277374,0.000211716,0.004806519,0,
00:01.3,-0.002277374,0.00022316,0.004812241,0,
00:01.4,-0.002254486,0.00025177,0.004817963,0,
00:01.4,-0.00226593,0.000240326,0.004812241,0,
00:01.4,-0.002300262,0.00019455,0.004800797,0,
00:01.4,-0.002288818,0.00022316,0.004806519,0,
00:01.4,-0.002277374,0.000234604,0.004817963,0,
00:01.4,-0.002271652,0.000240326,0.004812241,0,
00:01.4,-0.00226593,0.000257492,0.004812241,0,
00:01.4,-0.002277374,0.000240326,0.004800797,0,
00:01.4,-0.002283096,0.000211716,0.004806519,0,
00:01.4,-0.002277374,0.000217438,0.004806519,0,
00:01.4,-0.002283096,0.000228882,0.004806519,0,
00:01.4,-0.002271652,0.000246048,0.004806519,0,
00:01.4,-0.002271652,0.00025177,0.004806519,0,
00:01.4,-0.002271652,0.000246048,0.004817963,0,
00:01.4,-0.00226593,0.000240326,0.004817963,0,
00:01.4,-0.00226593,0.000246048,0.004817963,0,
00:01.4,-0.002288818,0.000217438,0.004795074,0,
00:01.4,-0.002283096,0.00022316,0.004806519,0,
00:01.4,-0.002277374,0.00022316,0.004812241,0,
00:01.4,-0.002271652,0.000228882,0.004806519,0,
00:01.4,-0.002260208,0.000257492,0.004800797,0,
00:01.4,-0.002260208,0.000263214,0.004812241,0,
00:01.4,-0.002288818,0.000205994,0.004812241,0,
00:01.4,-0.00229454,0.000205994,0.004812241,0,
00:01.4,-0.002277374,0.00022316,0.004800797,0,
00:01.5,-0.002283096,0.000205994,0.004800797,0,
00:01.5,-0.002288818,0.000200272,0.004812241,0,
00:01.5,-0.002271652,0.000228882,0.004812241,0,
00:01.5,-0.00226593,0.00025177,0.004795074,0,
00:01.5,-0.002271652,0.00025177,0.004795074,0,
00:01.5,-0.002283096,0.000246048,0.004817963,0,
00:01.5,-0.002283096,0.000234604,0.004806519,0,
00:01.5,-0.002271652,0.000228882,0.004812241,0,
00:01.5,-0.002277374,0.000211716,0.004806519,0,
00:01.5,-0.002277374,0.000205994,0.004806519,0,
00:01.5,-0.002271652,0.000234604,0.004812241,0,
00:01.5,-0.00226593,0.000268936,0.004806519,0,
00:01.5,-0.002277374,0.000240326,0.004800797,0,
00:01.5,-0.002271652,0.000228882,0.004800797,0,
00:01.5,-0.002271652,0.000228882,0.004806519,0,
00:01.5,-0.002277374,0.000234604,0.004812241,0,
00:01.5,-0.002271652,0.00025177,0.004812241,0,
00:01.5,-0.002283096,0.00022316,0.004800797,0,
00:01.5,-0.002277374,0.000228882,0.004812241,0,
00:01.5,-0.002277374,0.000217438,0.004812241,0,
00:01.5,-0.002277374,0.00022316,0.004795074,0,
00:01.5,-0.002271652,0.000257492,0.004806519,0,
00:01.5,-0.002277374,0.000240326,0.004800797,0,
00:01.5,-0.002283096,0.000205994,0.004812241,0,
00:01.5,-0.002277374,0.000217438,0.004812241,0,
00:01.6,-0.002283096,0.000228882,0.004800797,0,
00:01.6,-0.002277374,0.000246048,0.004806519,0,
00:01.6,-0.00226593,0.000240326,0.004800797,0,
00:01.6,-0.002271652,0.00022316,0.004812241,0,
00:01.6,-0.002271652,0.000234604,0.004806519,0,
00:01.6,-0.002271652,0.000240326,0.004795074,0,
00:01.6,-0.002288818,0.00022316,0.004800797,0,
00:01.6,-0.002283096,0.000228882,0.004812241,0,
00:01.6,-0.002277374,0.00022316,0.004800797,0,
00:01.6,-0.002271652,0.00022316,0.004800797,0,
00:01.6,-0.002277374,0.000234604,0.004800797,0,
00:01.6,-0.00226593,0.000240326,0.004812241,0,
00:01.6,-0.00226593,0.000240326,0.004795074,0,
00:01.6,-0.002277374,0.000228882,0.004806519,0,
00:01.6,-0.002271652,0.000240326,0.004817963,0,
00:01.6,-0.002260208,0.000257492,0.004812241,0,
00:01.6,-0.002283096,0.000228882,0.004806519,0,
00:01.6,-0.002271652,0.000234604,0.004800797,0,
00:01.6,-0.002283096,0.000211716,0.004789352,0,
00:01.6,-0.002288818,0.000211716,0.004806519,0,
00:01.6,-0.002277374,0.000200272,0.004806519,0,
00:01.6,-0.002283096,0.000188828,0.004806519,0,
00:01.6,-0.002283096,0.000240326,0.004812241,0,
00:01.6,-0.002277374,0.00025177,0.004795074,0,
00:01.6,-0.002260208,0.000257492,0.004795074,0,
00:01.7,-0.002243042,0.00028038,0.004823685,0,
00:01.7,-0.002283096,0.00022316,0.004812241,0,
00:01.7,-0.002288818,0.000200272,0.004795074,0,
00:01.7,-0.002277374,0.00022316,0.004806519,0,
00:01.7,-0.002271652,0.00025177,0.004800797,0,
00:01.7,-0.002271652,0.000240326,0.004806519,0,
00:01.7,-0.002271652,0.000217438,0.004806519,0,
00:01.7,-0.002277374,0.000211716,0.004795074,0,
00:01.7,-0.002277374,0.000211716,0.004800797,0,
00:01.7,-0.002277374,0.000211716,0.004806519,0,
00:01.7,-0.002271652,0.000228882,0.004812241,0,
00:01.7,-0.002283096,0.00022316,0.004806519,0,
00:01.7,-0.002277374,0.00022316,0.004800797,0,
00:01.7,-0.002271652,0.00022316,0.004806519,0,
00:01.7,-0.00226593,0.000234604,0.004800797,0,
00:01.7,-0.002271652,0.000228882,0.004800797,0,
00:01.7,-0.002271652,0.000217438,0.004795074,0,
00:01.7,-0.00226593,0.000228882,0.004812241,0,
00:01.7,-0.00226593,0.000228882,0.004806519,0,
00:01.7,-0.002271652,0.00022316,0.004795074,0,
00:01.7,-0.002271652,0.000240326,0.004800797,0,
00:01.7,-0.002271652,0.00022316,0.004800797,0,
00:01.7,-0.00226593,0.000228882,0.004806519,0,
00:01.7,-0.00226593,0.000234604,0.004812241,0,
00:01.7,-0.00226593,0.000246048,0.004806519,0,
00:01.8,-0.00226593,0.000234604,0.004812241,0,
00:01.8,-0.00226593,0.00022316,0.004806519,0,
00:01.8,-0.002271652,0.000211716,0.004800797,0,
00:01.8,-0.002283096,0.000211716,0.004800797,0,
00:01.8,-0.002271652,0.000205994,0.004795074,0,
00:01.8,-0.002260208,0.000234604,0.004806519,0,
00:01.8,-0.00226593,0.000246048,0.004800797,0,
00:01.8,-0.002277374,0.000211716,0.004800797,0,
00:01.8,-0.002277374,0.000205994,0.004800797,0,
00:01.8,-0.002271652,0.000200272,0.004795074,0,
00:01.8,-0.002260208,0.000217438,0.004795074,0,
00:01.8,-0.002260208,0.00025177,0.004795074,0,
00:01.8,-0.002254486,0.000274658,0.004806519,0,
00:01.8,-0.002271652,0.000228882,0.004800797,0,
00:01.8,-0.002277374,0.000217438,0.004800797,0,
00:01.8,-0.00226593,0.000228882,0.004795074,0,
00:01.8,-0.002271652,0.000217438,0.004789352,0,
00:01.8,-0.00226593,0.00022316,0.004812241,0,
00:01.8,-0.002260208,0.000228882,0.004812241,0,
00:01.8,-0.002283096,0.000211716,0.004789352,0,
00:01.8,-0.002271652,0.000211716,0.004806519,0,
00:01.8,-0.00226593,0.000217438,0.004800797,0,
00:01.8,-0.002277374,0.000205994,0.004795074,0,
00:01.8,-0.00226593,0.000263214,0.004800797,0,
00:01.8,-0.002248764,0.000274658,0.004806519,0,
00:01.9,-0.002277374,0.00022316,0.004800797,0,
00:01.9,-0.002283096,0.000211716,0.00478363,0,
00:01.9,-0.00226593,0.000234604,0.004800797,0,
00:01.9,-0.002260208,0.000228882,0.004806519,0,
00:01.9,-0.00226593,0.000211716,0.004800797,0,
00:01.9,-0.002283096,0.000200272,0.004795074,0,
00:01.9,-0.002260208,0.000246048,0.004789352,0,
00:01.9,-0.00226593,0.000234604,0.004789352,0,
00:01.9,-0.002271652,0.000211716,0.004800797,0,
00:01.9,-0.00226593,0.000211716,0.004806519,0,
00:01.9,-0.002271652,0.00022316,0.004806519,0,
00:01.9,-0.002271652,0.000240326,0.004795074,0,
00:01.9,-0.002271652,0.000228882,0.004795074,0,
00:01.9,-0.002271652,0.000217438,0.004789352,0,
00:01.9,-0.00226593,0.000228882,0.004795074,0,
00:01.9,-0.00226593,0.00022316,0.004789352,0,
00:01.9,-0.002271652,0.000234604,0.004806519,0,
00:01.9,-0.00226593,0.000234604,0.004806519,0,
00:01.9,-0.002260208,0.000234604,0.004806519,0,
00:01.9,-0.002271652,0.00022316,0.004795074,0,
00:01.9,-0.002260208,0.000228882,0.004795074,0,
00:01.9,-0.002277374,0.000217438,0.004795074,0,
00:01.9,-0.002283096,0.000211716,0.004800797,0,
00:01.9,-0.002271652,0.000205994,0.00478363,0,
00:01.9,-0.002271652,0.000217438,0.004795074,0,
00:02.0,-0.002254486,0.000257492,0.004812241,0,
00:02.0,-0.002260208,0.000246048,0.004800797,0,
00:02.0,-0.002277374,0.000205994,0.004789352,0,
00:02.0,-0.002277374,0.000200272,0.004795074,0,
00:02.0,-0.00226593,0.000211716,0.004795074,0,
00:02.0,-0.002271652,0.000228882,0.004795074,0,
00:02.0,-0.00226593,0.000228882,0.004789352,0,
00:02.0,-0.002248764,0.000257492,0.004795074,0,
00:02.0,-0.002248764,0.000263214,0.004800797,0,
00:02.0,-0.002271652,0.000228882,0.004800797,0,
00:02.0,-0.002288818,0.00019455,0.004795074,0,
00:02.0,-0.002283096,0.000200272,0.004789352,0,
00:00:02,-0.002271652,0.000217438,0.004795074,0,
00:02.0,-0.002271652,0.00022316,0.004800797,0,
00:02.0,-0.00226593,0.000228882,0.004795074,0,
00:02.0,-0.002260208,0.000217438,0.004789352,0,
00:02.0,-0.002248764,0.000228882,0.004812241,0,
00:02.0,-0.002260208,0.000240326,0.004806519,0,
00:02.0,-0.002271652,0.00022316,0.004789352,0,
00:02.0,-0.002283096,0.00019455,0.004789352,0,
00:02.0,-0.002277374,0.000211716,0.004800797,0,
00:02.0,-0.00226593,0.000234604,0.004800797,0,
00:02.0,-0.00226593,0.000234604,0.004800797,0,
00:02.0,-0.002271652,0.000217438,0.004795074,0,
00:02.0,-0.002277374,0.00022316,0.004795074,0,
00:02.1,-0.002271652,0.00022316,0.00478363,0,
00:02.1,-0.002260208,0.000228882,0.00478363,0,
00:02.1,-0.002248764,0.00025177,0.004789352,0,
00:02.1,-0.00223732,0.00025177,0.004817963,0,
00:02.1,-0.002271652,0.000228882,0.004789352,0,
00:02.1,-0.002277374,0.000211716,0.00478363,0,
00:02.1,-0.002277374,0.000205994,0.004800797,0,
00:02.1,-0.002271652,0.000217438,0.004789352,0,
00:02.1,-0.002271652,0.000205994,0.004795074,0,
00:02.1,-0.002271652,0.000200272,0.004800797,0,
00:02.1,-0.00226593,0.000217438,0.004800797,0,
00:02.1,-0.002260208,0.000246048,0.004795074,0,
00:02.1,-0.002254486,0.000240326,0.004795074,0,
00:02.1,-0.00226593,0.000234604,0.004777908,0,
00:02.1,-0.002260208,0.000240326,0.004800797,0,
00:02.1,-0.002283096,0.000188828,0.004795074,0,
00:02.1,-0.002283096,0.000165939,0.004789352,0,
00:02.1,-0.002271652,0.000211716,0.004789352,0,
00:02.1,-0.002254486,0.000268936,0.004800797,0,
00:02.1,-0.002254486,0.00025177,0.004800797,0,
00:02.1,-0.00226593,0.000217438,0.004800797,0,
00:02.1,-0.002271652,0.000217438,0.004800797,0,
00:02.1,-0.00226593,0.000228882,0.004789352,0,
00:02.1,-0.002260208,0.00022316,0.004789352,0,
00:02.1,-0.002271652,0.000217438,0.004795074,0,
00:02.2,-0.002271652,0.00019455,0.004800797,0,
00:02.2,-0.002271652,0.00019455,0.004800797,0,
00:02.2,-0.00226593,0.000234604,0.004789352,0,
00:02.2,-0.002260208,0.000240326,0.004789352,0,
00:02.2,-0.002271652,0.000205994,0.004795074,0,
00:02.2,-0.002260208,0.000217438,0.004795074,0,
00:02.2,-0.002283096,0.000183105,0.004800797,0,
00:02.2,-0.002283096,0.000165939,0.004795074,0,
00:02.2,-0.00226593,0.000200272,0.004795074,0,
00:02.2,-0.002271652,0.000228882,0.00478363,0,
00:02.2,-0.00226593,0.000234604,0.004789352,0,
00:02.2,-0.002254486,0.000217438,0.004795074,0,
00:02.2,-0.002271652,0.000183105,0.004795074,0,
00:02.2,-0.002283096,0.000177383,0.004795074,0,
00:02.2,-0.00226593,0.000228882,0.004789352,0,
00:02.2,-0.002260208,0.000257492,0.004795074,0,
00:02.2,-0.002254486,0.00025177,0.004800797,0,
00:02.2,-0.002248764,0.00025177,0.004789352,0,
00:02.2,-0.002254486,0.000240326,0.004789352,0,
00:02.2,-0.002271652,0.000211716,0.004789352,0,
00:02.2,-0.002254486,0.00022316,0.004795074,0,
00:02.2,-0.002248764,0.000234604,0.004806519,0,
00:02.2,-0.002271652,0.000211716,0.004795074,0,
00:02.2,-0.00226593,0.000217438,0.004800797,0,
00:02.2,-0.002260208,0.00022316,0.004795074,0,
00:02.3,-0.002271652,0.000188828,0.004789352,0,
00:02.3,-0.002271652,0.000183105,0.00478363,0,
00:02.3,-0.00226593,0.00019455,0.004795074,0,
00:02.3,-0.00226593,0.000211716,0.004795074,0,
00:02.3,-0.00226593,0.00022316,0.004795074,0,
00:02.3,-0.002254486,0.000211716,0.004800797,0,
00:02.3,-0.002260208,0.00022316,0.004789352,0,
00:02.3,-0.002271652,0.000211716,0.004795074,0,
00:02.3,-0.002271652,0.00019455,0.004789352,0,
00:02.3,-0.00226593,0.00019455,0.00478363,0,
00:02.3,-0.002254486,0.00022316,0.004789352,0,
00:02.3,-0.002260208,0.000228882,0.00478363,0,
00:02.3,-0.002260208,0.000234604,0.004789352,0,
00:02.3,-0.00226593,0.000211716,0.004795074,0,
00:02.3,-0.002283096,0.000183105,0.004800797,0,
00:02.3,-0.00226593,0.000200272,0.004789352,0,
00:02.3,-0.00223732,0.000240326,0.004800797,0,
00:02.3,-0.002248764,0.000240326,0.004789352,0,
00:02.3,-0.002243042,0.000257492,0.004800797,0,
00:02.3,-0.002277374,0.000200272,0.004777908,0,
00:02.3,-0.002277374,0.000183105,0.004789352,0,
00:02.3,-0.002271652,0.000183105,0.004800797,0,
00:02.3,-0.00226593,0.00019455,0.004800797,0,
00:02.3,-0.002243042,0.000234604,0.004795074,0,
00:02.3,-0.002248764,0.000246048,0.004789352,0,
00:02.4,-0.002271652,0.000211716,0.004800797,0,
00:02.4,-0.00226593,0.000200272,0.00478363,0,
00:02.4,-0.00226593,0.00019455,0.004789352,0,
00:02.4,-0.002254486,0.000200272,0.004795074,0,
00:02.4,-0.00223732,0.000228882,0.004800797,0,
00:02.4,-0.002271652,0.000183105,0.004789352,0,
00:02.4,-0.002271652,0.000200272,0.004777908,0,
00:02.4,-0.002254486,0.00022316,0.004760742,0,
00:02.4,-0.002260208,0.000211716,0.004789352,0,
00:02.4,-0.002254486,0.000217438,0.004806519,0,
00:02.4,-0.002248764,0.000217438,0.004795074,0,
00:02.4,-0.002260208,0.000200272,0.004789352,0,
00:02.4,-0.002271652,0.000143051,0.004795074,0,
00:02.4,-0.00226593,0.000177383,0.004789352,0,
00:02.4,-0.002260208,0.000240326,0.004800797,0,
00:02.4,-0.00223732,0.00025177,0.004795074,0,
00:02.4,-0.002248764,0.00022316,0.004789352,0,
00:02.4,-0.002283096,0.000171661,0.004777908,0,
00:02.4,-0.00226593,0.000205994,0.00478363,0,
00:02.4,-0.002248764,0.000228882,0.004795074,0,
00:02.4,-0.002248764,0.000217438,0.004789352,0,
00:02.4,-0.002277374,0.000183105,0.004777908,0,
00:02.4,-0.002271652,0.00019455,0.004806519,0,
00:02.4,-0.002254486,0.000211716,0.004795074,0,
00:02.4,-0.002254486,0.00022316,0.004789352,0,
00:02.5,-0.002260208,0.000205994,0.004795074,0,
00:02.5,-0.00226593,0.000188828,0.004777908,0,
00:02.5,-0.002260208,0.000205994,0.004789352,0,
00:02.5,-0.00226593,0.000188828,0.004795074,0,
00:02.5,-0.002254486,0.00022316,0.004800797,0,
00:02.5,-0.002260208,0.000211716,0.004777908,0,
00:02.5,-0.00226593,0.000200272,0.004789352,0,
00:02.5,-0.002260208,0.000200272,0.00478363,0,
00:02.5,-0.002260208,0.000211716,0.004789352,0,
00:02.5,-0.002254486,0.00022316,0.004800797,0,
00:02.5,-0.002254486,0.000217438,0.004795074,0,
00:02.5,-0.002243042,0.000240326,0.004789352,0,
00:02.5,-0.002271652,0.000177383,0.004777908,0,
00:02.5,-0.002271652,0.000171661,0.00478363,0,
00:02.5,-0.002260208,0.000205994,0.004777908,0,
00:02.5,-0.002260208,0.000200272,0.004789352,0,
00:02.5,-0.002254486,0.00019455,0.004795074,0,
00:02.5,-0.00226593,0.000171661,0.004789352,0,
00:02.5,-0.002254486,0.000205994,0.004789352,0,
00:02.5,-0.002248764,0.000234604,0.00478363,0,
00:02.5,-0.002254486,0.000228882,0.004777908,0,
00:02.5,-0.00226593,0.000200272,0.004777908,0,
00:02.5,-0.002271652,0.000188828,0.004795074,0,
00:02.5,-0.002260208,0.000200272,0.004795074,0,
00:02.5,-0.002248764,0.00022316,0.004795074,0,
00:02.6,-0.002260208,0.000205994,0.004772186,0,
00:02.6,-0.002260208,0.000200272,0.004789352,0,
00:02.6,-0.00226593,0.000200272,0.004795074,0,
00:02.6,-0.00226593,0.000188828,0.00478363,0,
00:02.6,-0.002260208,0.000200272,0.00478363,0,
00:02.6,-0.002254486,0.000228882,0.004789352,0,
00:02.6,-0.002254486,0.000217438,0.00478363,0,
00:02.6,-0.002260208,0.000200272,0.00478363,0,
00:02.6,-0.002260208,0.000211716,0.004789352,0,
00:02.6,-0.002260208,0.000211716,0.004789352,0,
00:02.6,-0.002271652,0.000183105,0.00478363,0,
00:02.6,-0.002271652,0.000177383,0.00478363,0,
00:02.6,-0.002260208,0.000205994,0.004789352,0,
00:02.6,-0.002248764,0.00022316,0.004789352,0,
00:02.6,-0.002260208,0.000211716,0.004789352,0,
00:02.6,-0.002260208,0.000205994,0.00478363,0,
00:02.6,-0.00226593,0.000177383,0.004777908,0,
00:02.6,-0.00226593,0.000177383,0.004777908,0,
00:02.6,-0.002260208,0.000217438,0.004789352,0,
00:02.6,-0.00226593,0.000211716,0.004795074,0,
00:02.6,-0.00226593,0.000205994,0.00478363,0,
00:02.6,-0.002260208,0.000205994,0.004789352,0,
00:02.6,-0.002260208,0.000200272,0.00478363,0,
00:02.6,-0.002260208,0.000200272,0.00478363,0,
00:02.6,-0.002260208,0.000205994,0.004777908,0,
00:02.7,-0.002260208,0.000205994,0.004789352,0,
00:02.7,-0.00226593,0.000200272,0.004795074,0,
00:02.7,-0.002271652,0.00019455,0.004777908,0,
00:02.7,-0.00226593,0.000211716,0.004789352,0,
00:02.7,-0.00226593,0.000211716,0.00478363,0,
00:02.7,-0.002254486,0.000217438,0.00478363,0,
00:02.7,-0.002254486,0.000205994,0.004777908,0,
00:02.7,-0.002260208,0.000205994,0.004772186,0,
00:02.7,-0.002243042,0.000228882,0.004795074,0,
00:02.7,-0.002248764,0.000211716,0.004806519,0,
00:02.7,-0.002283096,0.000171661,0.004795074,0,
00:02.7,-0.002277374,0.000200272,0.00478363,0,
00:02.7,-0.00226593,0.000211716,0.004789352,0,
00:02.7,-0.00226593,0.000205994,0.004789352,0,
00:02.7,-0.002260208,0.000211716,0.004795074,0,
00:02.7,-0.00226593,0.000205994,0.004789352,0,
00:02.7,-0.002260208,0.000183105,0.004777908,0,
00:02.7,-0.002243042,0.000217438,0.004795074,0,
00:02.7,-0.00223732,0.000246048,0.004789352,0,
00:02.7,-0.002283096,0.000177383,0.004777908,0,
00:02.7,-0.002277374,0.000188828,0.004789352,0,
00:02.7,-0.002271652,0.000200272,0.00478363,0,
00:02.7,-0.00226593,0.000205994,0.004795074,0,
00:02.7,-0.002260208,0.000205994,0.004789352,0,
00:02.7,-0.00226593,0.000188828,0.00478363,0,
00:02.8,-0.002260208,0.000200272,0.004795074,0,
00:02.8,-0.002248764,0.00022316,0.004789352,0,
00:02.8,-0.002260208,0.000211716,0.004789352,0,
00:02.8,-0.002277374,0.000177383,0.00478363,0,
00:02.8,-0.002271652,0.000183105,0.004789352,0,
00:02.8,-0.002271652,0.000177383,0.004789352,0,
00:02.8,-0.002271652,0.000205994,0.004795074,0,
00:02.8,-0.00226593,0.00022316,0.004789352,0,
00:02.8,-0.002243042,0.000234604,0.004795074,0,
00:02.8,-0.002248764,0.00022316,0.00478363,0,
00:02.8,-0.002260208,0.000211716,0.00478363,0,
00:02.8,-0.00226593,0.000200272,0.004777908,0,
00:02.8,-0.00226593,0.000211716,0.004789352,0,
00:02.8,-0.00226593,0.000205994,0.00478363,0,
00:02.8,-0.002254486,0.000200272,0.004795074,0,
00:02.8,-0.002260208,0.00019455,0.004795074,0,
00:02.8,-0.00226593,0.000205994,0.004789352,0,
00:02.8,-0.002260208,0.000211716,0.004789352,0,
00:02.8,-0.00226593,0.000205994,0.004777908,0,
00:02.8,-0.002260208,0.000205994,0.004777908,0,
00:02.8,-0.002254486,0.000205994,0.00478363,0,
00:02.8,-0.002254486,0.00022316,0.004795074,0,
00:02.8,-0.002260208,0.000205994,0.004789352,0,
00:02.8,-0.00226593,0.000183105,0.004789352,0,
00:02.8,-0.00226593,0.000177383,0.004800797,0,
00:02.9,-0.00226593,0.000188828,0.004789352,0,
00:02.9,-0.002254486,0.000200272,0.004789352,0,
00:02.9,-0.002260208,0.000200272,0.004777908,0,
00:02.9,-0.002254486,0.000188828,0.00478363,0,
00:02.9,-0.002254486,0.000171661,0.004777908,0,
00:02.9,-0.002243042,0.000228882,0.004800797,0,
00:02.9,-0.002254486,0.000240326,0.004789352,0,
00:02.9,-0.002254486,0.000217438,0.00478363,0,
00:02.9,-0.00226593,0.000177383,0.004795074,0,
00:02.9,-0.00226593,0.000171661,0.004795074,0,
00:02.9,-0.002254486,0.000188828,0.004789352,0,
00:02.9,-0.002254486,0.000200272,0.00478363,0,
00:02.9,-0.002254486,0.000205994,0.004795074,0,
00:02.9,-0.002260208,0.000200272,0.004789352,0,
00:02.9,-0.002248764,0.000211716,0.00478363,0,
00:02.9,-0.002243042,0.000228882,0.004800797,0,
00:02.9,-0.00226593,0.000177383,0.004789352,0,
00:02.9,-0.002271652,0.000171661,0.00478363,0,
00:02.9,-0.002271652,0.00019455,0.004789352,0,
00:02.9,-0.002254486,0.000200272,0.004777908,0,
00:02.9,-0.002254486,0.000205994,0.00478363,0,
00:02.9,-0.002248764,0.000217438,0.004800797,0,
00:02.9,-0.002254486,0.000211716,0.004789352,0,
00:02.9,-0.002254486,0.000200272,0.004789352,0,
00:02.9,-0.002260208,0.000177383,0.00478363,0,
00:03.0,-0.002248764,0.000205994,0.004795074,0,
00:03.0,-0.002254486,0.000205994,0.004789352,0,
00:03.0,-0.00226593,0.000183105,0.004777908,0,
00:03.0,-0.002260208,0.000200272,0.004777908,0,
00:03.0,-0.002260208,0.000200272,0.00478363,0,
00:03.0,-0.002248764,0.000200272,0.004789352,0,
00:03.0,-0.00223732,0.000211716,0.004795074,0,
00:03.0,-0.002243042,0.000217438,0.004789352,0,
00:03.0,-0.002254486,0.000200272,0.004789352,0,
00:03.0,-0.00226593,0.000171661,0.004777908,0,
00:03.0,-0.002260208,0.000165939,0.004772186,0,
00:03.0,-0.002254486,0.000200272,0.004777908,0,
00:00:03,-0.002254486,0.000217438,0.004800797,0,
00:03.0,-0.002260208,0.000200272,0.004789352,0,
00:03.0,-0.002254486,0.000188828,0.004777908,0,
00:03.0,-0.002243042,0.000205994,0.004789352,0,
00:03.0,-0.002243042,0.000217438,0.004806519,0,
00:03.0,-0.002260208,0.000183105,0.00478363,0,
00:03.0,-0.002260208,0.000183105,0.004766464,0,
00:03.0,-0.002254486,0.000205994,0.004777908,0,
00:03.0,-0.002248764,0.000217438,0.004795074,0,
00:03.0,-0.002248764,0.00019455,0.004795074,0,
00:03.0,-0.002271652,0.000165939,0.004795074,0,
00:03.0,-0.00226593,0.000177383,0.004789352,0,
00:03.0,-0.002248764,0.000211716,0.004789352,0,
00:03.1,-0.002254486,0.000217438,0.00478363,0,
00:03.1,-0.002254486,0.000200272,0.00478363,0,
00:03.1,-0.002254486,0.000188828,0.004777908,0,
00:03.1,-0.002248764,0.00019455,0.004789352,0,
00:03.1,-0.002260208,0.000177383,0.004789352,0,
00:03.1,-0.002260208,0.000177383,0.00478363,0,
00:03.1,-0.002260208,0.00019455,0.00478363,0,
00:03.1,-0.002254486,0.000205994,0.004777908,0,
00:03.1,-0.002243042,0.000205994,0.00478363,0,
00:03.1,-0.002248764,0.000188828,0.004777908,0,
00:03.1,-0.002260208,0.000171661,0.004777908,0,
00:03.1,-0.002260208,0.000183105,0.004795074,0,
00:03.1,-0.00226593,0.000183105,0.004789352,0,
00:03.1,-0.002254486,0.000211716,0.00478363,0,
00:03.1,-0.002248764,0.000205994,0.004777908,0,
00:03.1,-0.002248764,0.00019455,0.004800797,0,
00:03.1,-0.002248764,0.000188828,0.004789352,0,
00:03.1,-0.002248764,0.00019455,0.00478363,0,
00:03.1,-0.002260208,0.000177383,0.00478363,0,
00:03.1,-0.002254486,0.00019455,0.00478363,0,
00:03.1,-0.002248764,0.000200272,0.004777908,0,
00:03.1,-0.002254486,0.000200272,0.00478363,0,
00:03.1,-0.002254486,0.000200272,0.004789352,0,
00:03.1,-0.00226593,0.000165939,0.004789352,0,
00:03.1,-0.00226593,0.000165939,0.004777908,0,
00:03.2,-0.002248764,0.000205994,0.004777908,0,
00:03.2,-0.002254486,0.000200272,0.00478363,0,
00:03.2,-0.002254486,0.000188828,0.004789352,0,
00:03.2,-0.002248764,0.000200272,0.004789352,0,
00:03.2,-0.002243042,0.000205994,0.00478363,0,
00:03.2,-0.002254486,0.000183105,0.00478363,0,
00:03.2,-0.002260208,0.000171661,0.004777908,0,
00:03.2,-0.002260208,0.000177383,0.00478363,0,
00:03.2,-0.002254486,0.00019455,0.004795074,0,
00:03.2,-0.002260208,0.000200272,0.004789352,0,
00:03.2,-0.002248764,0.000200272,0.00478363,0,
00:03.2,-0.002248764,0.000188828,0.00478363,0,
00:03.2,-0.002260208,0.000183105,0.00478363,0,
00:03.2,-0.002254486,0.000183105,0.00478363,0,
00:03.2,-0.002254486,0.000160217,0.00478363,0,
00:03.2,-0.002260208,0.000177383,0.004800797,0,
00:03.2,-0.002243042,0.000217438,0.004789352,0,
00:03.2,-0.002254486,0.00019455,0.004777908,0,
00:03.2,-0.002248764,0.000205994,0.00478363,0,
00:03.2,-0.002254486,0.000200272,0.00478363,0,
00:03.2,-0.002254486,0.000188828,0.00478363,0,
00:03.2,-0.002254486,0.000171661,0.00478363,0,
00:03.2,-0.002248764,0.000160217,0.00478363,0,
00:03.2,-0.002225876,0.000217438,0.004795074,0,
00:03.2,-0.002260208,0.000200272,0.004772186,0,
00:03.3,-0.002260208,0.000188828,0.00478363,0,
00:03.3,-0.002254486,0.00019455,0.004795074,0,
00:03.3,-0.002248764,0.00019455,0.004795074,0,
00:03.3,-0.002254486,0.000188828,0.004800797,0,
00:03.3,-0.002254486,0.000183105,0.004789352,0,
00:03.3,-0.002254486,0.000171661,0.00478363,0,
00:03.3,-0.002254486,0.000165939,0.004789352,0,
00:03.3,-0.00226593,0.000148773,0.004777908,0,
00:03.3,-0.00223732,0.000205994,0.004766464,0,
00:03.3,-0.002231598,0.000234604,0.004789352,0,
00:03.3,-0.002231598,0.000234604,0.004800797,0,
00:03.3,-0.002260208,0.000188828,0.004795074,0,
00:03.3,-0.00226593,0.000165939,0.004789352,0,
00:03.3,-0.002260208,0.000171661,0.00478363,0,
00:03.3,-0.002254486,0.000171661,0.004795074,0,
00:03.3,-0.002254486,0.000183105,0.004795074,0,
00:03.3,-0.002248764,0.00019455,0.00478363,0,
00:03.3,-0.00223732,0.000211716,0.004795074,0,
00:03.3,-0.002225876,0.000228882,0.004795074,0,
00:03.3,-0.002254486,0.000183105,0.004777908,0,
00:03.3,-0.002260208,0.000177383,0.00478363,0,
00:03.3,-0.002260208,0.000165939,0.004789352,0,
00:03.3,-0.002260208,0.000137329,0.004789352,0,
00:03.3,-0.002248764,0.000160217,0.004789352,0,
00:03.3,-0.002243042,0.000217438,0.00478363,0,
00:03.4,-0.002254486,0.000211716,0.00478363,0,
00:03.4,-0.002248764,0.000200272,0.004789352,0,
00:03.4,-0.002248764,0.000200272,0.004789352,0,
00:03.4,-0.002248764,0.000200272,0.004789352,0,
00:03.4,-0.002254486,0.000183105,0.004772186,0,
00:03.4,-0.002254486,0.000171661,0.004789352,0,
00:03.4,-0.002248764,0.000177383,0.004800797,0,
00:03.4,-0.00223732,0.000200272,0.004800797,0,
00:03.4,-0.002243042,0.000205994,0.00478363,0,
00:03.4,-0.002248764,0.00019455,0.004789352,0,
00:03.4,-0.002260208,0.000177383,0.004789352,0,
00:03.4,-0.002260208,0.000165939,0.004789352,0,
00:03.4,-0.002254486,0.000177383,0.004795074,0,
00:03.4,-0.002248764,0.000188828,0.00478363,0,
00:03.4,-0.002243042,0.00019455,0.004795074,0,
00:03.4,-0.002248764,0.000188828,0.004800797,0,
00:03.4,-0.002254486,0.000183105,0.004789352,0,
00:03.4,-0.002254486,0.000183105,0.004789352,0,
00:03.4,-0.002248764,0.00019455,0.004772186,0,
00:03.4,-0.00223732,0.00019455,0.004777908,0,
00:03.4,-0.002243042,0.000188828,0.004806519,0,
00:03.4,-0.002248764,0.00019455,0.004800797,0,
00:03.4,-0.002271652,0.000171661,0.004789352,0,
00:03.4,-0.002260208,0.000177383,0.004789352,0,
00:03.4,-0.002243042,0.000183105,0.00478363,0,
00:03.5,-0.002248764,0.000188828,0.004789352,0,
00:03.5,-0.002254486,0.000165939,0.004795074,0,
00:03.5,-0.002254486,0.000165939,0.004795074,0,
00:03.5,-0.002254486,0.000177383,0.00478363,0,
00:03.5,-0.002254486,0.000177383,0.004777908,0,
00:03.5,-0.00223732,0.000200272,0.004789352,0,
00:03.5,-0.002248764,0.00019455,0.004795074,0,
00:03.5,-0.002248764,0.000200272,0.004795074,0,
00:03.5,-0.002248764,0.000188828,0.00478363,0,
00:03.5,-0.002248764,0.000171661,0.004772186,0,
00:03.5,-0.002248764,0.000177383,0.004789352,0,
00:03.5,-0.002254486,0.000177383,0.004789352,0,
00:03.5,-0.002248764,0.00019455,0.004795074,0,
00:03.5,-0.002243042,0.000200272,0.004795074,0,
00:03.5,-0.002248764,0.000183105,0.00478363,0,
00:03.5,-0.002243042,0.00019455,0.004795074,0,
00:03.5,-0.00223732,0.000211716,0.004795074,0,
00:03.5,-0.002254486,0.000188828,0.004772186,0,
00:03.5,-0.002248764,0.000177383,0.004795074,0,
00:03.5,-0.002254486,0.000171661,0.00478363,0,
00:03.5,-0.002254486,0.000177383,0.004789352,0,
00:03.5,-0.002243042,0.00019455,0.004795074,0,
00:03.5,-0.002248764,0.000183105,0.004772186,0,
00:03.5,-0.002243042,0.000188828,0.004789352,0,
00:03.5,-0.002248764,0.000188828,0.004789352,0,
00:03.6,-0.002248764,0.000188828,0.004800797,0,
00:03.6,-0.002248764,0.000183105,0.004789352,0,
00:03.6,-0.00226593,0.000154495,0.00478363,0,
00:03.6,-0.002254486,0.000188828,0.00478363,0,
00:03.6,-0.00223732,0.000217438,0.00478363,0,
00:03.6,-0.002243042,0.000211716,0.004777908,0,
00:03.6,-0.002248764,0.000200272,0.004806519,0,
00:03.6,-0.002248764,0.000177383,0.004806519,0,
00:03.6,-0.00226593,0.000148773,0.004789352,0,
00:03.6,-0.00226593,0.000165939,0.004789352,0,
00:03.6,-0.002248764,0.000183105,0.00478363,0,
00:03.6,-0.002243042,0.00019455,0.004777908,0,
00:03.6,-0.002243042,0.000200272,0.004789352,0,
00:03.6,-0.002248764,0.00019455,0.00478363,0,
00:03.6,-0.002254486,0.000171661,0.00478363,0,
00:03.6,-0.002254486,0.000177383,0.004789352,0,
00:03.6,-0.002254486,0.000188828,0.004800797,0,
00:03.6,-0.002248764,0.000188828,0.004777908,0,
00:03.6,-0.002243042,0.00019455,0.004777908,0,
00:03.6,-0.002248764,0.000171661,0.004789352,0,
00:03.6,-0.00226593,0.000120163,0.00478363,0,
00:03.6,-0.00226593,0.000154495,0.00478363,0,
00:03.6,-0.002248764,0.000205994,0.00478363,0,
00:03.6,-0.002243042,0.000211716,0.004795074,0,
00:03.6,-0.002248764,0.000188828,0.00478363,0,
00:03.7,-0.00223732,0.000211716,0.00478363,0,
00:03.7,-0.002248764,0.000188828,0.00478363,0,
00:03.7,-0.002260208,0.000160217,0.004777908,0,
00:03.7,-0.002254486,0.000188828,0.004777908,0,
00:03.7,-0.002248764,0.000188828,0.004766464,0,
00:03.7,-0.002243042,0.000183105,0.004795074,0,
00:03.7,-0.002243042,0.00019455,0.004800797,0,
00:03.7,-0.002254486,0.000183105,0.004795074,0,
00:03.7,-0.002260208,0.000154495,0.004772186,0,
00:03.7,-0.00226593,0.000160217,0.004777908,0,
00:03.7,-0.002243042,0.000205994,0.004795074,0,
00:03.7,-0.002243042,0.00019455,0.004789352,0,
00:03.7,-0.00223732,0.000200272,0.00478363,0,
00:03.7,-0.002254486,0.000177383,0.004777908,0,
00:03.7,-0.002254486,0.000165939,0.00478363,0,
00:03.7,-0.002248764,0.000171661,0.004789352,0,
00:03.7,-0.00223732,0.000171661,0.00478363,0,
00:03.7,-0.002254486,0.000188828,0.00478363,0,
00:03.7,-0.002260208,0.000165939,0.00478363,0,
00:03.7,-0.002243042,0.000177383,0.00478363,0,
00:03.7,-0.002243042,0.000188828,0.004789352,0,
00:03.7,-0.002248764,0.000177383,0.004777908,0,
00:03.7,-0.002243042,0.000183105,0.004772186,0,
00:03.7,-0.002248764,0.000165939,0.004777908,0,
00:03.7,-0.002243042,0.000143051,0.004789352,0,
00:03.8,-0.002248764,0.000143051,0.004789352,0,
00:03.8,-0.00223732,0.000211716,0.00478363,0,
00:03.8,-0.002248764,0.000211716,0.004772186,0,
00:03.8,-0.002248764,0.00019455,0.004789352,0,
00:03.8,-0.00223732,0.00019455,0.004777908,0,
00:03.8,-0.00223732,0.00019455,0.00478363,0,
00:03.8,-0.002248764,0.000171661,0.004777908,0,
00:03.8,-0.002254486,0.000165939,0.004777908,0,
00:03.8,-0.002243042,0.000183105,0.004806519,0,
00:03.8,-0.00223732,0.000188828,0.004800797,0,
00:03.8,-0.00223732,0.000188828,0.004777908,0,
00:03.8,-0.002248764,0.000165939,0.00478363,0,
00:03.8,-0.00223732,0.000177383,0.00478363,0,
00:03.8,-0.002243042,0.000183105,0.004777908,0,
00:03.8,-0.002254486,0.000177383,0.004772186,0,
00:03.8,-0.002254486,0.000160217,0.004789352,0,
00:03.8,-0.002243042,0.000165939,0.00478363,0,
00:03.8,-0.002225876,0.000211716,0.004789352,0,
00:03.8,-0.002248764,0.000183105,0.004777908,0,
00:03.8,-0.002248764,0.000165939,0.004777908,0,
00:03.8,-0.002248764,0.000171661,0.004777908,0,
00:03.8,-0.002254486,0.000154495,0.004772186,0,
00:03.8,-0.002254486,0.000165939,0.004772186,0,
00:03.8,-0.00223732,0.000183105,0.00478363,0,
00:03.8,-0.002231598,0.00019455,0.004772186,0,
00:03.9,-0.002231598,0.000200272,0.00478363,0,
00:03.9,-0.002231598,0.000188828,0.004789352,0,
00:03.9,-0.00223732,0.000165939,0.00478363,0,
00:03.9,-0.002248764,0.000148773,0.00478363,0,
00:03.9,-0.002254486,0.000131607,0.004777908,0,
00:03.9,-0.002248764,0.000171661,0.004777908,0,
00:03.9,-0.00223732,0.000205994,0.004772186,0,
00:03.9,-0.002231598,0.000200272,0.004777908,0,
00:03.9,-0.00223732,0.000183105,0.004777908,0,
00:03.9,-0.002243042,0.000177383,0.00478363,0,
00:03.9,-0.002231598,0.000183105,0.00478363,0,
00:03.9,-0.002225876,0.000200272,0.004777908,0,
00:03.9,-0.002248764,0.000160217,0.00478363,0,
00:03.9,-0.00223732,0.000171661,0.004772186,0,
00:03.9,-0.00223732,0.000183105,0.004772186,0,
00:03.9,-0.002260208,0.000160217,0.004777908,0,
00:03.9,-0.002248764,0.000154495,0.00478363,0,
00:03.9,-0.00223732,0.000183105,0.00478363,0,
00:03.9,-0.002231598,0.00019455,0.004777908,0,
00:03.9,-0.00223732,0.000188828,0.004795074,0,
00:03.9,-0.002248764,0.000177383,0.00478363,0,
00:03.9,-0.002243042,0.000183105,0.004777908,0,
00:03.9,-0.002248764,0.000160217,0.004772186,0,
00:03.9,-0.002254486,0.000143051,0.00475502,0,
00:03.9,-0.002243042,0.000171661,0.00478363,0,
00:04.0,-0.002231598,0.000205994,0.004789352,0,
00:04.0,-0.002243042,0.000200272,0.004777908,0,
00:04.0,-0.00223732,0.000200272,0.004789352,0,
00:04.0,-0.002231598,0.000200272,0.00478363,0,
00:04.0,-0.002243042,0.000171661,0.004772186,0,
00:04.0,-0.002243042,0.000177383,0.004777908,0,
00:04.0,-0.002243042,0.000160217,0.00478363,0,
00:04.0,-0.002248764,0.000148773,0.004772186,0,
00:04.0,-0.002243042,0.000200272,0.004777908,0,
00:04.0,-0.002243042,0.000205994,0.004777908,0,
00:04.0,-0.002243042,0.00019455,0.004777908,0,
00:04.0,-0.00223732,0.000188828,0.00478363,0,
00:00:04,-0.002220154,0.000200272,0.00478363,0,
00:04.0,-0.002243042,0.000205994,0.004777908,0,
00:04.0,-0.002254486,0.000165939,0.004772186,0,
00:04.0,-0.002254486,0.000160217,0.004777908,0,
00:04.0,-0.002248764,0.000177383,0.00478363,0,
00:04.0,-0.002248764,0.000177383,0.00478363,0,
00:04.0,-0.002248764,0.000177383,0.004772186,0,
00:04.0,-0.002243042,0.000188828,0.004766464,0,
00:04.0,-0.002243042,0.000177383,0.004777908,0,
00:04.0,-0.002248764,0.000177383,0.004772186,0,
00:04.0,-0.002248764,0.000188828,0.004777908,0,
00:04.0,-0.002248764,0.000177383,0.00478363,0,
00:04.0,-0.002231598,0.000200272,0.00478363,0,
00:04.1,-0.002231598,0.000200272,0.00478363,0,
00:04.1,-0.00223732,0.000188828,0.004772186,0,
00:04.1,-0.002243042,0.000171661,0.004772186,0,
00:04.1,-0.002248764,0.000154495,0.004766464,0,
00:04.1,-0.002260208,0.000143051,0.004777908,0,
00:04.1,-0.002243042,0.000188828,0.00478363,0,
00:04.1,-0.002225876,0.000217438,0.004789352,0,
00:04.1,-0.002231598,0.000205994,0.004789352,0,
00:04.1,-0.002248764,0.000177383,0.004766464,0,
00:04.1,-0.002248764,0.000171661,0.004766464,0,
00:04.1,-0.002243042,0.000188828,0.004777908,0,
00:04.1,-0.002248764,0.000177383,0.00478363,0,
00:04.1,-0.002248764,0.000160217,0.004777908,0,
00:04.1,-0.002243042,0.000148773,0.004772186,0,
00:04.1,-0.002248764,0.000177383,0.004772186,0,
00:04.1,-0.00223732,0.000217438,0.004789352,0,
00:04.1,-0.002225876,0.000217438,0.004772186,0,
00:04.1,-0.002243042,0.00019455,0.00478363,0,
00:04.1,-0.002254486,0.000171661,0.00478363,0,
00:04.1,-0.002248764,0.000177383,0.004772186,0,
00:04.1,-0.002248764,0.000177383,0.004777908,0,
00:04.1,-0.002243042,0.000183105,0.004777908,0,
00:04.1,-0.002243042,0.000177383,0.004772186,0,
00:04.1,-0.002243042,0.000165939,0.004772186,0,
00:04.1,-0.002243042,0.000165939,0.00478363,0,
00:04.2,-0.00223732,0.000165939,0.004795074,0,
00:04.2,-0.002243042,0.000211716,0.004795074,0,
00:04.2,-0.002248764,0.000188828,0.00478363,0,
00:04.2,-0.002248764,0.000177383,0.004772186,0,
00:04.2,-0.002248764,0.000177383,0.004777908,0,
00:04.2,-0.002243042,0.000188828,0.004777908,0,
00:04.2,-0.002243042,0.000188828,0.004777908,0,
00:04.2,-0.002243042,0.000188828,0.004777908,0,
00:04.2,-0.002243042,0.000183105,0.004777908,0,
00:04.2,-0.00223732,0.000188828,0.004772186,0,
00:04.2,-0.002231598,0.000188828,0.004766464,0,
00:04.2,-0.002225876,0.000160217,0.00475502,0,
00:04.2,-0.002243042,0.000160217,0.004766464,0,
00:04.2,-0.002254486,0.000183105,0.004806519,0,
00:04.2,-0.002248764,0.000188828,0.00478363,0,
00:04.2,-0.002248764,0.000188828,0.004789352,0,
00:04.2,-0.002243042,0.00019455,0.00478363,0,
00:04.2,-0.002243042,0.000188828,0.004777908,0,
00:04.2,-0.002243042,0.000183105,0.004777908,0,
00:04.2,-0.002243042,0.000183105,0.004777908,0,
00:04.2,-0.002248764,0.000165939,0.004777908,0,
00:04.2,-0.002254486,0.000131607,0.004777908,0,
00:04.2,-0.002260208,0.000131607,0.004777908,0,
00:04.2,-0.00223732,0.000200272,0.004777908,0,
00:04.2,-0.002220154,0.000240326,0.004789352,0,
00:04.3,-0.002231598,0.000200272,0.004766464,0,
00:04.3,-0.002243042,0.000200272,0.004766464,0,
00:04.3,-0.00223732,0.00019455,0.00478363,0,
00:04.3,-0.00223732,0.00019455,0.004789352,0,
00:04.3,-0.002248764,0.000177383,0.00478363,0,
00:04.3,-0.002248764,0.000165939,0.004777908,0,
00:04.3,-0.002248764,0.000160217,0.004772186,0,
00:04.3,-0.002254486,0.000160217,0.00478363,0,
00:04.3,-0.00223732,0.000177383,0.00478363,0,
00:04.3,-0.002231598,0.00019455,0.004772186,0,
00:04.3,-0.002248764,0.000183105,0.004777908,0,
00:04.3,-0.002248764,0.000177383,0.004772186,0,
00:04.3,-0.002248764,0.000171661,0.004777908,0,
00:04.3,-0.00223732,0.000177383,0.004777908,0,
00:04.3,-0.002231598,0.00019455,0.004777908,0,
00:04.3,-0.00223732,0.00019455,0.004772186,0,
00:04.3,-0.002248764,0.000171661,0.004772186,0,
00:04.3,-0.002243042,0.000165939,0.004777908,0,
00:04.3,-0.00223732,0.000177383,0.00478363,0,
00:04.3,-0.002231598,0.000188828,0.00478363,0,
00:04.3,-0.002231598,0.000188828,0.004777908,0,
00:04.3,-0.002248764,0.000183105,0.004772186,0,
00:04.3,-0.002248764,0.000177383,0.004777908,0,
00:04.3,-0.002248764,0.000160217,0.004777908,0,
00:04.3,-0.002231598,0.000171661,0.00478363,0,
00:04.4,-0.00223732,0.000183105,0.004777908,0,
00:04.4,-0.002243042,0.000165939,0.004766464,0,
00:04.4,-0.002243042,0.000183105,0.004789352,0,
00:04.4,-0.00223732,0.000205994,0.00478363,0,
00:04.4,-0.00223732,0.00019455,0.004777908,0,
00:04.4,-0.00223732,0.000188828,0.004777908,0,
00:04.4,-0.002231598,0.000205994,0.004760742,0,
00:04.4,-0.00223732,0.00019455,0.00478363,0,
00:04.4,-0.002260208,0.000131607,0.00478363,0,
00:04.4,-0.002254486,0.000154495,0.004766464,0,
00:04.4,-0.002243042,0.000188828,0.004766464,0,
00:04.4,-0.002231598,0.000205994,0.004772186,0,
00:04.4,-0.002243042,0.000183105,0.004777908,0,
00:04.4,-0.002248764,0.000165939,0.004772186,0,
00:04.4,-0.002243042,0.000171661,0.00478363,0,
00:04.4,-0.00223732,0.000183105,0.004772186,0,
00:04.4,-0.002243042,0.000165939,0.004777908,0,
00:04.4,-0.002248764,0.000165939,0.004772186,0,
00:04.4,-0.002231598,0.00019455,0.004766464,0,
00:04.4,-0.00220871,0.000234604,0.004777908,0,
00:04.4,-0.002243042,0.000171661,0.004772186,0,
00:04.4,-0.002260208,0.000148773,0.004777908,0,
00:04.4,-0.002248764,0.000154495,0.004766464,0,
00:04.4,-0.002243042,0.000165939,0.004772186,0,
00:04.4,-0.002243042,0.000171661,0.00478363,0,
00:04.5,-0.00223732,0.00019455,0.00478363,0,
00:04.5,-0.002231598,0.000205994,0.004777908,0,
00:04.5,-0.002243042,0.000188828,0.004772186,0,
00:04.5,-0.002248764,0.000165939,0.004772186,0,
00:04.5,-0.002248764,0.000165939,0.004777908,0,
00:04.5,-0.002243042,0.000177383,0.004772186,0,
00:04.5,-0.002243042,0.000177383,0.004760742,0,
00:04.5,-0.002231598,0.000188828,0.004772186,0,
00:04.5,-0.002243042,0.000188828,0.00478363,0,
00:04.5,-0.002248764,0.000171661,0.00478363,0,
00:04.5,-0.002248764,0.000171661,0.004772186,0,
00:04.5,-0.002243042,0.000160217,0.00475502,0,
00:04.5,-0.002248764,0.000148773,0.004760742,0,
00:04.5,-0.002254486,0.000165939,0.004789352,0,
00:04.5,-0.002243042,0.000200272,0.00478363,0,
00:04.5,-0.002243042,0.000183105,0.004772186,0,
00:04.5,-0.002248764,0.000160217,0.004766464,0,
00:04.5,-0.002248764,0.000160217,0.004772186,0,
00:04.5,-0.002248764,0.000165939,0.004777908,0,
00:04.5,-0.002248764,0.000177383,0.004772186,0,
00:04.5,-0.002243042,0.000183105,0.004766464,0,
00:04.5,-0.002243042,0.000171661,0.004766464,0,
00:04.5,-0.002248764,0.000160217,0.00478363,0,
00:04.5,-0.002231598,0.000200272,0.004772186,0,
00:04.5,-0.00223732,0.000205994,0.004760742,0,
00:04.6,-0.002231598,0.000200272,0.004777908,0,
00:04.6,-0.002248764,0.000183105,0.004766464,0,
00:04.6,-0.002254486,0.000165939,0.004760742,0,
00:04.6,-0.002254486,0.000160217,0.004777908,0,
00:04.6,-0.002248764,0.000165939,0.004777908,0,
00:04.6,-0.00223732,0.000171661,0.004766464,0,
00:04.6,-0.002248764,0.000188828,0.00475502,0,
00:04.6,-0.002254486,0.000160217,0.00478363,0,
00:04.6,-0.002248764,0.000165939,0.004777908,0,
00:04.6,-0.002248764,0.000183105,0.004772186,0,
00:04.6,-0.002248764,0.000177383,0.004777908,0,
00:04.6,-0.002248764,0.000171661,0.004766464,0,
00:04.6,-0.002248764,0.000177383,0.004772186,0,
00:04.6,-0.002254486,0.000171661,0.004766464,0,
00:04.6,-0.002248764,0.000177383,0.004760742,0,
00:04.6,-0.002248764,0.000177383,0.004760742,0,
00:04.6,-0.002254486,0.000171661,0.004772186,0,
00:04.6,-0.002254486,0.000188828,0.004772186,0,
00:04.6,-0.002254486,0.000165939,0.004777908,0,
00:04.6,-0.002254486,0.000137329,0.004772186,0,
00:04.6,-0.002271652,0.000120163,0.004760742,0,
00:04.6,-0.002260208,0.000165939,0.004760742,0,
00:04.6,-0.002248764,0.000200272,0.004772186,0,
00:04.6,-0.002248764,0.000188828,0.004772186,0,
00:04.6,-0.002243042,0.000200272,0.004760742,0,
00:04.7,-0.002254486,0.000183105,0.004766464,0,
00:04.7,-0.002243042,0.000171661,0.004772186,0,
00:04.7,-0.002254486,0.000160217,0.004766464,0,
00:04.7,-0.002254486,0.000188828,0.004772186,0,
00:04.7,-0.002254486,0.000188828,0.004760742,0,
00:04.7,-0.002248764,0.000183105,0.004766464,0,
00:04.7,-0.002248764,0.000171661,0.004772186,0,
00:04.7,-0.002260208,0.000148773,0.004760742,0,
00:04.7,-0.00226593,0.000160217,0.004772186,0,
00:04.7,-0.002248764,0.00019455,0.004772186,0,
00:04.7,-0.002248764,0.00019455,0.004777908,0,
00:04.7,-0.00226593,0.000165939,0.00475502,0,
00:04.7,-0.002260208,0.000183105,0.004772186,0,
00:04.7,-0.002260208,0.000171661,0.004772186,0,
00:04.7,-0.00226593,0.000160217,0.004766464,0,
00:04.7,-0.002260208,0.000165939,0.004772186,0,
00:04.7,-0.002254486,0.000165939,0.004777908,0,
00:04.7,-0.002260208,0.000165939,0.004760742,0,
00:04.7,-0.002260208,0.000183105,0.004760742,0,
00:04.7,-0.002260208,0.000183105,0.00475502,0,
00:04.7,-0.002254486,0.000177383,0.004766464,0,
00:04.7,-0.002260208,0.000177383,0.004766464,0,
00:04.7,-0.00226593,0.000154495,0.004760742,0,
00:04.7,-0.002271652,0.000131607,0.00475502,0,
00:04.7,-0.002254486,0.000177383,0.004772186,0,
00:04.8,-0.002254486,0.00019455,0.004772186,0,
00:04.8,-0.00226593,0.000188828,0.00475502,0,
00:04.8,-0.00226593,0.000160217,0.004772186,0,
00:04.8,-0.002271652,0.000154495,0.004760742,0,
00:04.8,-0.002260208,0.000177383,0.004772186,0,
00:04.8,-0.002260208,0.000183105,0.004772186,0,
00:04.8,-0.00226593,0.000165939,0.004766464,0,
00:04.8,-0.002260208,0.000171661,0.004772186,0,
00:04.8,-0.002260208,0.000183105,0.004772186,0,
00:04.8,-0.002271652,0.000165939,0.004760742,0,
00:04.8,-0.002277374,0.000160217,0.00475502,0,
00:04.8,-0.00226593,0.000171661,0.004760742,0,
00:04.8,-0.002271652,0.000171661,0.004766464,0,
00:04.8,-0.002271652,0.000177383,0.004772186,0,
00:04.8,-0.002254486,0.000183105,0.004766464,0,
00:04.8,-0.002254486,0.000200272,0.004766464,0,
00:04.8,-0.002277374,0.000154495,0.004749298,0,
00:04.8,-0.002271652,0.000165939,0.004766464,0,
00:04.8,-0.00226593,0.000165939,0.004772186,0,
00:04.8,-0.002271652,0.000154495,0.004760742,0,
00:04.8,-0.002271652,0.000165939,0.004760742,0,
00:04.8,-0.002271652,0.000171661,0.004766464,0,
00:04.8,-0.00226593,0.000183105,0.00475502,0,
00:04.8,-0.00226593,0.000183105,0.004766464,0,
00:04.8,-0.00226593,0.000177383,0.004766464,0,
00:04.9,-0.002260208,0.000177383,0.004760742,0,
00:04.9,-0.002277374,0.000154495,0.004760742,0,
00:04.9,-0.002288818,0.000131607,0.004760742,0,
00:04.9,-0.002283096,0.000131607,0.004766464,0,
00:04.9,-0.002283096,0.000165939,0.004766464,0,
00:04.9,-0.002271652,0.00019455,0.004772186,0,
00:04.9,-0.00226593,0.000200272,0.004760742,0,
00:04.9,-0.002271652,0.000188828,0.004760742,0,
00:04.9,-0.002277374,0.000171661,0.004749298,0,
00:04.9,-0.002271652,0.000177383,0.004766464,0,
00:04.9,-0.00226593,0.000183105,0.004772186,0,
00:04.9,-0.002288818,0.000160217,0.004743576,0,
00:04.9,-0.00229454,0.000143051,0.00475502,0,
00:04.9,-0.002271652,0.000177383,0.004772186,0,
00:04.9,-0.002283096,0.000188828,0.004760742,0,
00:04.9,-0.002288818,0.000160217,0.00475502,0,
00:04.9,-0.002283096,0.000160217,0.004772186,0,
00:04.9,-0.002283096,0.000183105,0.004766464,0,
00:04.9,-0.002271652,0.000188828,0.004760742,0,
00:04.9,-0.002271652,0.000165939,0.004772186,0,
00:04.9,-0.002288818,0.000143051,0.004760742,0,
00:04.9,-0.002300262,0.000154495,0.00475502,0,
00:04.9,-0.002283096,0.000177383,0.004760742,0,
00:04.9,-0.002283096,0.000171661,0.004760742,0,
00:04.9,-0.002277374,0.000183105,0.004760742,0,
00:05.0,-0.002288818,0.000183105,0.00475502,0,
00:05.0,-0.00229454,0.000165939,0.004766464,0,
00:05.0,-0.002288818,0.000165939,0.004760742,0,
00:05.0,-0.002288818,0.000160217,0.004766464,0,
00:05.0,-0.00229454,0.000148773,0.00475502,0,
00:05.0,-0.002300262,0.000143051,0.004749298,0,
00:05.0,-0.002283096,0.00019455,0.004749298,0,
00:05.0,-0.002277374,0.000200272,0.004749298,0,
00:05.0,-0.002277374,0.000200272,0.004760742,0,
00:05.0,-0.002283096,0.000183105,0.004760742,0,
00:05.0,-0.002288818,0.000154495,0.00475502,0,
00:05.0,-0.00229454,0.000154495,0.004766464,0,
00:00:05,-0.002311707,0.000131607,0.004760742,0,
00:05.0,-0.002300262,0.000165939,0.004760742,0,
00:05.0,-0.00229454,0.000188828,0.004749298,0,
00:05.0,-0.00229454,0.000188828,0.004743576,0,
00:05.0,-0.002277374,0.000205994,0.004789352,0,
00:05.0,-0.002311707,0.000160217,0.004760742,0,
00:05.0,-0.002305984,0.000154495,0.004749298,0,
00:05.0,-0.00229454,0.000165939,0.004760742,0,
00:05.0,-0.00229454,0.000171661,0.004760742,0,
00:05.0,-0.002300262,0.000171661,0.00475502,0,
00:05.0,-0.002300262,0.000177383,0.004743576,0,
00:05.0,-0.00229454,0.000183105,0.004749298,0,
00:05.0,-0.002300262,0.000171661,0.004766464,0,
00:05.1,-0.002311707,0.000154495,0.00475502,0,
00:05.1,-0.002305984,0.000154495,0.00475502,0,
00:05.1,-0.002300262,0.000177383,0.00475502,0,
00:05.1,-0.002283096,0.000188828,0.004749298,0,
00:05.1,-0.002288818,0.00019455,0.00478363,0,
00:05.1,-0.002305984,0.000160217,0.004760742,0,
00:05.1,-0.002305984,0.000165939,0.004732132,0,
00:05.1,-0.002305984,0.000171661,0.004760742,0,
00:05.1,-0.002305984,0.000160217,0.004766464,0,
00:05.1,-0.002305984,0.000148773,0.004766464,0,
00:05.1,-0.00229454,0.000165939,0.004760742,0,
00:05.1,-0.00229454,0.00019455,0.004766464,0,
00:05.1,-0.002311707,0.000171661,0.00475502,0,
00:05.1,-0.002305984,0.000171661,0.004743576,0,
00:05.1,-0.002305984,0.000171661,0.004749298,0,
00:05.1,-0.002300262,0.000165939,0.00475502,0,
00:05.1,-0.002305984,0.000165939,0.004749298,0,
00:05.1,-0.002305984,0.000177383,0.004749298,0,
00:05.1,-0.002300262,0.000188828,0.00475502,0,
00:05.1,-0.002311707,0.000177383,0.004760742,0,
00:05.1,-0.002288818,0.000200272,0.004760742,0,
00:05.1,-0.00229454,0.00019455,0.00475502,0,
00:05.1,-0.002311707,0.000165939,0.004760742,0,
00:05.1,-0.002317429,0.000154495,0.004749298,0,
00:05.1,-0.002317429,0.000165939,0.00475502,0,
00:05.2,-0.002305984,0.000183105,0.004743576,0,
00:05.2,-0.002300262,0.00019455,0.004760742,0,
00:05.2,-0.002300262,0.000177383,0.004766464,0,
00:05.2,-0.002317429,0.000148773,0.004737854,0,
00:05.2,-0.002317429,0.000160217,0.004749298,0,
00:05.2,-0.002300262,0.000200272,0.00475502,0,
00:05.2,-0.002305984,0.000177383,0.004743576,0,
00:05.2,-0.002305984,0.000177383,0.00475502,0,
00:05.2,-0.002300262,0.000188828,0.004760742,0,
00:05.2,-0.002305984,0.000160217,0.004760742,0,
00:05.2,-0.002317429,0.000143051,0.004749298,0,
00:05.2,-0.002317429,0.000165939,0.004743576,0,
00:05.2,-0.002311707,0.000183105,0.004749298,0,
00:05.2,-0.002305984,0.000188828,0.004760742,0,
00:05.2,-0.002305984,0.00019455,0.004760742,0,
00:05.2,-0.002311707,0.000177383,0.004760742,0,
00:05.2,-0.002311707,0.000165939,0.00475502,0,
00:05.2,-0.002305984,0.000171661,0.00475502,0,
00:05.2,-0.002311707,0.000165939,0.004749298,0,
00:05.2,-0.00229454,0.000200272,0.004772186,0,
00:05.2,-0.002311707,0.000183105,0.004749298,0,
00:05.2,-0.002317429,0.000171661,0.004732132,0,
00:05.2,-0.002317429,0.000171661,0.004732132,0,
00:05.2,-0.002317429,0.000165939,0.004749298,0,
00:05.2,-0.002311707,0.000183105,0.004760742,0,
00:05.3,-0.002300262,0.000211716,0.004760742,0,
00:05.3,-0.002305984,0.00019455,0.004760742,0,
00:05.3,-0.002311707,0.000188828,0.00475502,0,
00:05.3,-0.002311707,0.000171661,0.004749298,0,
00:05.3,-0.002334595,0.000148773,0.004749298,0,
00:05.3,-0.002317429,0.000171661,0.00475502,0,
00:05.3,-0.002317429,0.000171661,0.004749298,0,
00:05.3,-0.002323151,0.000171661,0.004749298,0,
00:05.3,-0.002317429,0.000165939,0.004749298,0,
00:05.3,-0.002311707,0.000165939,0.004766464,0,
00:05.3,-0.002323151,0.000171661,0.004760742,0,
00:05.3,-0.002323151,0.000171661,0.004743576,0,
00:05.3,-0.002305984,0.00019455,0.004749298,0,
00:05.3,-0.002311707,0.00019455,0.004749298,0,
00:05.3,-0.002328873,0.000165939,0.004749298,0,
00:05.3,-0.002323151,0.000148773,0.004749298,0,
00:05.3,-0.002317429,0.000171661,0.004749298,0,
00:05.3,-0.002305984,0.000217438,0.004749298,0,
00:05.3,-0.002311707,0.00019455,0.00475502,0,
00:05.3,-0.002328873,0.000160217,0.004749298,0,
00:05.3,-0.002323151,0.000188828,0.004743576,0,
00:05.3,-0.002317429,0.000188828,0.004743576,0,
00:05.3,-0.002328873,0.000177383,0.004743576,0,
00:05.3,-0.002323151,0.000171661,0.004749298,0,
00:05.3,-0.002311707,0.000188828,0.004760742,0,
00:05.4,-0.002323151,0.000183105,0.004743576,0,
00:05.4,-0.002334595,0.000148773,0.004749298,0,
00:05.4,-0.002328873,0.000160217,0.004749298,0,
00:05.4,-0.002311707,0.000200272,0.004749298,0,
00:05.4,-0.002311707,0.000211716,0.00475502,0,
00:05.4,-0.002328873,0.000177383,0.004749298,0,
00:05.4,-0.002323151,0.000177383,0.004743576,0,
00:05.4,-0.002328873,0.000171661,0.004749298,0,
00:05.4,-0.002328873,0.000165939,0.004743576,0,
00:05.4,-0.002328873,0.000165939,0.004749298,0,
00:05.4,-0.002328873,0.000171661,0.004749298,0,
00:05.4,-0.002323151,0.000183105,0.004743576,0,
00:05.4,-0.002323151,0.000171661,0.004743576,0,
00:05.4,-0.002328873,0.000171661,0.004743576,0,
00:05.4,-0.002323151,0.000183105,0.004743576,0,
00:05.4,-0.002323151,0.000177383,0.004743576,0,
00:05.4,-0.002323151,0.000177383,0.004743576,0,
00:05.4,-0.002323151,0.000171661,0.004743576,0,
00:05.4,-0.002317429,0.000171661,0.00475502,0,
00:05.4,-0.002323151,0.000171661,0.004749298,0,
00:05.4,-0.002334595,0.000160217,0.004749298,0,
00:05.4,-0.002323151,0.00019455,0.004749298,0,
00:05.4,-0.002323151,0.000188828,0.004743576,0,
00:05.4,-0.002328873,0.000171661,0.004737854,0,
00:05.4,-0.002334595,0.000137329,0.004743576,0,
00:05.5,-0.002328873,0.000154495,0.004743576,0,
00:05.5,-0.002317429,0.000200272,0.004749298,0,
00:05.5,-0.002311707,0.000188828,0.004737854,0,
00:05.5,-0.002317429,0.000188828,0.004743576,0,
00:05.5,-0.002323151,0.000188828,0.00475502,0,
00:05.5,-0.002334595,0.000165939,0.004737854,0,
00:05.5,-0.002334595,0.000171661,0.004749298,0,
00:05.5,-0.002328873,0.000165939,0.00475502,0,
00:05.5,-0.002328873,0.000165939,0.004749298,0,
00:05.5,-0.002328873,0.000165939,0.004749298,0,
00:05.5,-0.002328873,0.000165939,0.004749298,0,
00:05.5,-0.002328873,0.000171661,0.004743576,0,
00:05.5,-0.002317429,0.000188828,0.004743576,0,
00:05.5,-0.002300262,0.000205994,0.004760742,0,
00:05.5,-0.002323151,0.000200272,0.00475502,0,
00:05.5,-0.002351761,0.000154495,0.00472641,0,
00:05.5,-0.002334595,0.000160217,0.004743576,0,
00:05.5,-0.002328873,0.000177383,0.004749298,0,
00:05.5,-0.002328873,0.000183105,0.004749298,0,
00:05.5,-0.002328873,0.000171661,0.004743576,0,
00:05.5,-0.002328873,0.000160217,0.004737854,0,
00:05.5,-0.002340317,0.000143051,0.00472641,0,
00:05.5,-0.002340317,0.000143051,0.004749298,0,
00:05.5,-0.002317429,0.000183105,0.004749298,0,
00:05.5,-0.002305984,0.000211716,0.00475502,0,
00:05.6,-0.002305984,0.000205994,0.004760742,0,
00:05.6,-0.002323151,0.000205994,0.004749298,0,
00:05.6,-0.002340317,0.000171661,0.004743576,0,
00:05.6,-0.002334595,0.000171661,0.004743576,0,
00:05.6,-0.002340317,0.000137329,0.004749298,0,
00:05.6,-0.002340317,0.000137329,0.004760742,0,
00:05.6,-0.002328873,0.000183105,0.004749298,0,
00:05.6,-0.002334595,0.000183105,0.004743576,0,
00:05.6,-0.002334595,0.000171661,0.004737854,0,
00:05.6,-0.002328873,0.000171661,0.004749298,0,
00:05.6,-0.002334595,0.000165939,0.004743576,0,
00:05.6,-0.002328873,0.000177383,0.004737854,0,
00:05.6,-0.002323151,0.000188828,0.004737854,0,
00:05.6,-0.002323151,0.000171661,0.004743576,0,
00:05.6,-0.002311707,0.00019455,0.004743576,0,
00:05.6,-0.002317429,0.000200272,0.00475502,0,
00:05.6,-0.002340317,0.000177383,0.004749298,0,
00:05.6,-0.002340317,0.000160217,0.004743576,0,
00:05.6,-0.002340317,0.000154495,0.004749298,0,
00:05.6,-0.002334595,0.000171661,0.004743576,0,
00:05.6,-0.002323151,0.00019455,0.004743576,0,
00:05.6,-0.002323151,0.000183105,0.004749298,0,
00:05.6,-0.002334595,0.000165939,0.004743576,0,
00:05.6,-0.002334595,0.000171661,0.004749298,0,
00:05.6,-0.002323151,0.000183105,0.004743576,0,
00:05.7,-0.002328873,0.000177383,0.004732132,0,
00:05.7,-0.002340317,0.000160217,0.004732132,0,
00:05.7,-0.002328873,0.000183105,0.00475502,0,
00:05.7,-0.002334595,0.000171661,0.004743576,0,
00:05.7,-0.002334595,0.000160217,0.004732132,0,
00:05.7,-0.002334595,0.000177383,0.004732132,0,
00:05.7,-0.002334595,0.000188828,0.00475502,0,
00:05.7,-0.002328873,0.00019455,0.004760742,0,
00:05.7,-0.002323151,0.000177383,0.004749298,0,
00:05.7,-0.002351761,0.000160217,0.004737854,0,
00:05.7,-0.002340317,0.000171661,0.004737854,0,
00:05.7,-0.002334595,0.000183105,0.004743576,0,
00:05.7,-0.002328873,0.000177383,0.004749298,0,
00:05.7,-0.002334595,0.000165939,0.004743576,0,
00:05.7,-0.002328873,0.000177383,0.004743576,0,
00:05.7,-0.002328873,0.000200272,0.004743576,0,
00:05.7,-0.002334595,0.000171661,0.004743576,0,
00:05.7,-0.002346039,0.000148773,0.004732132,0,
00:05.7,-0.002346039,0.000165939,0.004737854,0,
00:05.7,-0.002334595,0.000183105,0.004743576,0,
00:05.7,-0.002323151,0.000188828,0.00475502,0,
00:05.7,-0.002328873,0.000188828,0.004743576,0,
00:05.7,-0.002351761,0.000160217,0.004737854,0,
00:05.7,-0.002346039,0.000154495,0.004749298,0,
00:05.7,-0.002340317,0.000165939,0.004749298,0,
00:05.8,-0.002334595,0.000183105,0.004743576,0,
00:05.8,-0.002328873,0.000188828,0.004743576,0,
00:05.8,-0.002328873,0.000188828,0.004743576,0,
00:05.8,-0.002340317,0.000177383,0.004743576,0,
00:05.8,-0.002340317,0.000160217,0.00472641,0,
00:05.8,-0.002340317,0.000160217,0.004743576,0,
00:05.8,-0.002340317,0.000183105,0.00475502,0,
00:05.8,-0.002340317,0.000160217,0.004749298,0,
00:05.8,-0.002328873,0.000188828,0.004743576,0,
00:05.8,-0.002334595,0.000200272,0.004737854,0,
00:05.8,-0.002340317,0.000171661,0.004743576,0,
00:05.8,-0.002346039,0.000154495,0.004760742,0,
00:05.8,-0.002351761,0.000148773,0.004749298,0,
00:05.8,-0.002357483,0.000143051,0.004737854,0,
00:05.8,-0.002346039,0.000165939,0.004743576,0,
00:05.8,-0.002346039,0.000183105,0.004737854,0,
00:05.8,-0.002340317,0.000183105,0.004732132,0,
00:05.8,-0.002340317,0.000165939,0.004743576,0,
00:05.8,-0.002346039,0.000177383,0.004737854,0,
00:05.8,-0.002340317,0.000177383,0.004743576,0,
00:05.8,-0.002340317,0.000160217,0.004743576,0,
00:05.8,-0.002351761,0.000160217,0.004737854,0,
00:05.8,-0.002340317,0.000177383,0.004737854,0,
00:05.8,-0.002340317,0.000183105,0.00472641,0,
00:05.8,-0.002340317,0.000188828,0.00472641,0,
00:05.9,-0.002334595,0.00019455,0.004766464,0,
00:05.9,-0.002340317,0.000171661,0.004749298,0,
00:05.9,-0.002340317,0.000165939,0.004732132,0,
00:05.9,-0.002346039,0.000160217,0.004743576,0,
00:05.9,-0.002346039,0.000160217,0.004737854,0,
00:05.9,-0.002340317,0.000188828,0.004743576,0,
00:05.9,-0.002340317,0.000183105,0.004743576,0,
00:05.9,-0.002346039,0.000165939,0.004737854,0,
00:05.9,-0.002346039,0.000171661,0.004737854,0,
00:05.9,-0.002351761,0.000165939,0.004743576,0,
00:05.9,-0.002346039,0.000165939,0.004743576,0,
00:05.9,-0.002346039,0.000160217,0.004743576,0,
00:05.9,-0.002351761,0.000165939,0.004743576,0,
00:05.9,-0.002334595,0.000188828,0.004743576,0,
00:05.9,-0.002334595,0.000205994,0.004732132,0,
00:05.9,-0.002351761,0.000165939,0.00472641,0,
00:05.9,-0.002351761,0.000177383,0.004743576,0,
00:05.9,-0.002346039,0.000177383,0.004743576,0,
00:05.9,-0.002346039,0.000171661,0.004737854,0,
00:05.9,-0.002351761,0.000154495,0.004732132,0,
00:05.9,-0.002334595,0.000165939,0.004743576,0,
00:05.9,-0.002334595,0.000183105,0.004743576,0,
00:05.9,-0.002334595,0.000183105,0.004743576,0,
00:05.9,-0.002351761,0.000177383,0.004743576,0,
00:05.9,-0.002357483,0.000165939,0.004737854,0,
00:06.0,-0.002346039,0.000177383,0.004743576,0,
00:06.0,-0.002334595,0.000188828,0.004743576,0,
00:06.0,-0.002351761,0.000160217,0.004732132,0,
00:06.0,-0.002346039,0.000165939,0.004737854,0,
00:06.0,-0.002346039,0.000171661,0.00472641,0,
00:06.0,-0.002340317,0.000177383,0.004732132,0,
00:06.0,-0.002346039,0.000171661,0.004743576,0,
00:06.0,-0.002346039,0.000160217,0.004743576,0,
00:06.0,-0.002346039,0.000183105,0.004743576,0,
00:06.0,-0.002351761,0.000165939,0.00472641,0,
00:06.0,-0.002346039,0.000165939,0.004737854,0,
00:06.0,-0.002334595,0.000188828,0.004749298,0,
00:00:06,-0.002340317,0.000183105,0.004743576,0,
00:06.0,-0.002357483,0.000148773,0.004743576,0,
00:06.0,-0.002357483,0.000148773,0.004720688,0,
00:06.0,-0.002351761,0.000183105,0.00472641,0,
00:06.0,-0.002340317,0.00019455,0.004732132,0,
00:06.0,-0.002334595,0.000183105,0.004749298,0,
00:06.0,-0.002328873,0.000188828,0.004732132,0,
00:06.0,-0.002346039,0.000188828,0.004720688,0,
00:06.0,-0.002357483,0.000160217,0.004732132,0,
00:06.0,-0.002363205,0.000143051,0.004737854,0,
00:06.0,-0.002346039,0.000165939,0.004749298,0,
00:06.0,-0.002340317,0.000183105,0.004743576,0,
00:06.0,-0.002334595,0.000183105,0.00472641,0,
00:06.1,-0.002340317,0.000177383,0.004720688,0,
00:06.1,-0.002340317,0.000183105,0.004732132,0,
00:06.1,-0.002351761,0.000148773,0.004720688,0,
00:06.1,-0.002346039,0.000160217,0.004737854,0,
00:06.1,-0.002340317,0.000177383,0.004737854,0,
00:06.1,-0.002340317,0.000183105,0.004732132,0,
00:06.1,-0.002346039,0.000165939,0.004732132,0,
00:06.1,-0.002346039,0.000171661,0.00472641,0,
00:06.1,-0.002340317,0.000177383,0.00472641,0,
00:06.1,-0.002346039,0.000183105,0.004732132,0,
00:06.1,-0.002357483,0.000143051,0.00472641,0,
00:06.1,-0.002340317,0.000171661,0.00472641,0,
00:06.1,-0.002328873,0.00019455,0.004737854,0,
00:06.1,-0.002317429,0.000211716,0.004743576,0,
00:06.1,-0.002346039,0.000171661,0.004709244,0,
00:06.1,-0.002351761,0.000154495,0.004732132,0,
00:06.1,-0.002340317,0.000171661,0.004749298,0,
00:06.1,-0.002346039,0.000171661,0.004743576,0,
00:06.1,-0.002346039,0.000154495,0.004720688,0,
00:06.1,-0.002328873,0.000183105,0.004743576,0,
00:06.1,-0.002368927,0.000137329,0.004743576,0,
00:06.1,-0.002346039,0.000165939,0.004737854,0,
00:06.1,-0.002323151,0.000234604,0.004743576,0,
00:06.1,-0.002328873,0.000211716,0.004732132,0,
00:06.1,-0.002351761,0.000143051,0.004732132,0,
00:06.2,-0.002346039,0.000171661,0.004749298,0,
00:06.2,-0.002334595,0.000188828,0.004732132,0,
00:06.2,-0.002351761,0.000143051,0.004709244,0,
00:06.2,-0.002351761,0.000154495,0.004720688,0,
00:06.2,-0.002351761,0.000177383,0.004737854,0,
00:06.2,-0.002346039,0.000188828,0.004737854,0,
00:06.2,-0.002334595,0.000188828,0.00472641,0,
00:06.2,-0.002305984,0.00019455,0.004732132,0,
00:06.2,-0.002311707,0.000205994,0.004743576,0,
00:06.2,-0.002363205,0.000171661,0.004737854,0,
00:06.2,-0.002363205,0.000143051,0.004732132,0,
00:06.2,-0.002351761,0.000160217,0.004737854,0,
00:06.2,-0.002340317,0.000171661,0.004732132,0,
00:06.2,-0.002317429,0.000200272,0.004743576,0,
00:06.2,-0.002357483,0.000154495,0.004743576,0,
00:06.2,-0.002363205,0.000154495,0.004737854,0,
00:06.2,-0.002357483,0.000177383,0.004732132,0,
00:06.2,-0.002334595,0.000188828,0.004737854,0,
00:06.2,-0.002334595,0.000183105,0.004732132,0,
00:06.2,-0.002374649,0.000120163,0.004732132,0,
00:06.2,-0.002357483,0.000148773,0.004743576,0,
00:06.2,-0.002363205,0.000154495,0.00472641,0,
00:06.2,-0.002340317,0.000200272,0.004737854,0,
00:06.2,-0.002340317,0.000183105,0.004732132,0,
00:06.2,-0.002351761,0.000165939,0.004732132,0,
00:06.3,-0.002351761,0.000165939,0.004720688,0,
00:06.3,-0.002346039,0.000171661,0.00472641,0,
00:06.3,-0.002351761,0.000165939,0.004737854,0,
00:06.3,-0.002357483,0.000160217,0.004709244,0,
00:06.3,-0.002334595,0.000177383,0.004732132,0,
00:06.3,-0.002317429,0.000228882,0.004743576,0,
00:06.3,-0.002374649,0.000137329,0.004714966,0,
00:06.3,-0.002374649,0.000120163,0.004732132,0,
00:06.3,-0.002363205,0.000137329,0.00472641,0,
00:06.3,-0.002340317,0.000183105,0.004732132,0,
00:06.3,-0.002323151,0.000217438,0.004743576,0,
00:06.3,-0.002328873,0.000211716,0.004749298,0,
00:06.3,-0.002380371,0.000120163,0.004720688,0,
00:06.3,-0.002368927,0.000143051,0.004737854,0,
00:06.3,-0.002346039,0.000171661,0.004732132,0,
00:06.3,-0.002340317,0.000171661,0.00472641,0,
00:06.3,-0.002346039,0.000165939,0.004737854,0,
00:06.3,-0.002363205,0.000154495,0.00472641,0,
00:06.3,-0.002368927,0.000154495,0.004737854,0,
00:06.3,-0.002363205,0.000148773,0.00472641,0,
00:06.3,-0.002357483,0.000148773,0.00472641,0,
00:06.3,-0.002357483,0.000143051,0.004720688,0,
00:06.3,-0.002357483,0.000154495,0.004720688,0,
00:06.3,-0.002346039,0.00019455,0.004732132,0,
00:06.3,-0.002346039,0.000188828,0.004737854,0,
00:06.4,-0.002374649,0.000131607,0.004720688,0,
00:06.4,-0.002368927,0.000160217,0.00472641,0,
00:06.4,-0.002357483,0.000171661,0.004720688,0,
00:06.4,-0.002351761,0.000171661,0.004714966,0,
00:06.4,-0.002346039,0.000183105,0.004714966,0,
00:06.4,-0.002357483,0.000160217,0.00472641,0,
00:06.4,-0.002351761,0.000165939,0.004732132,0,
00:06.4,-0.002346039,0.000171661,0.00472641,0,
00:06.4,-0.002351761,0.000154495,0.004737854,0,
00:06.4,-0.002363205,0.000143051,0.004720688,0,
00:06.4,-0.002374649,0.000148773,0.00472641,0,
00:06.4,-0.002363205,0.000160217,0.004732132,0,
00:06.4,-0.002340317,0.000188828,0.00475502,0,
00:06.4,-0.002323151,0.000217438,0.004743576,0,
00:06.4,-0.002386093,0.000108719,0.004732132,0,
00:06.4,-0.002368927,0.000137329,0.004743576,0,
00:06.4,-0.002363205,0.000143051,0.00472641,0,
00:06.4,-0.002368927,0.000131607,0.00472641,0,
00:06.4,-0.002363205,0.000148773,0.004743576,0,
00:06.4,-0.002357483,0.000177383,0.004743576,0,
00:06.4,-0.002351761,0.000183105,0.004737854,0,
00:06.4,-0.002328873,0.000200272,0.004732132,0,
00:06.4,-0.002328873,0.000205994,0.004749298,0,
00:06.4,-0.002391815,0.000131607,0.004737854,0,
00:06.4,-0.002386093,0.000114441,0.004732132,0,
00:06.5,-0.002374649,0.000137329,0.004732132,0,
00:06.5,-0.002374649,0.000148773,0.004737854,0,
00:06.5,-0.002357483,0.000177383,0.004737854,0,
00:06.5,-0.002351761,0.000177383,0.004720688,0,
00:06.5,-0.002363205,0.000165939,0.00472641,0,
00:06.5,-0.002368927,0.000137329,0.004743576,0,
00:06.5,-0.002363205,0.000148773,0.004749298,0,
00:06.5,-0.002351761,0.000183105,0.004737854,0,
00:06.5,-0.002328873,0.000205994,0.004743576,0,
00:06.5,-0.002363205,0.000160217,0.004737854,0,
00:06.5,-0.002391815,0.000120163,0.004720688,0,
00:06.5,-0.002368927,0.000143051,0.00472641,0,
00:06.5,-0.002374649,0.000137329,0.004720688,0,
00:06.5,-0.002363205,0.000148773,0.004743576,0,
00:06.5,-0.002334595,0.000188828,0.004749298,0,
00:06.5,-0.002346039,0.000200272,0.004737854,0,
00:06.5,-0.002391815,0.000114441,0.004720688,0,
00:06.5,-0.002380371,0.000120163,0.00472641,0,
00:06.5,-0.002368927,0.000148773,0.004732132,0,
00:06.5,-0.002346039,0.000177383,0.004732132,0,
00:06.5,-0.002351761,0.000177383,0.00472641,0,
00:06.5,-0.002368927,0.000148773,0.004737854,0,
00:06.5,-0.002391815,9.73E-05,0.004720688,0,
00:06.5,-0.002380371,0.000148773,0.004720688,0,
00:06.5,-0.002357483,0.000188828,0.004732132,0,
00:06.6,-0.002351761,0.000165939,0.004720688,0,
00:06.6,-0.002363205,0.000171661,0.004720688,0,
00:06.6,-0.002391815,0.000114441,0.004732132,0,
00:06.6,-0.002374649,0.000108719,0.00472641,0,
00:06.6,-0.002340317,0.000160217,0.004737854,0,
00:06.6,-0.002357483,0.000188828,0.004737854,0,
00:06.6,-0.002397537,0.000143051,0.004709244,0,
00:06.6,-0.002380371,0.000160217,0.004720688,0,
00:06.6,-0.002380371,0.000143051,0.00472641,0,
00:06.6,-0.002368927,0.000143051,0.004720688,0,
00:06.6,-0.002346039,0.000183105,0.004720688,0,
00:06.6,-0.002363205,0.000171661,0.004737854,0,
00:06.6,-0.002397537,0.000108719,0.004720688,0,
00:06.6,-0.002380371,0.000131607,0.004714966,0,
00:06.6,-0.002368927,0.000148773,0.004732132,0,
00:06.6,-0.002368927,0.000154495,0.004720688,0,
00:06.6,-0.002368927,0.000154495,0.00472641,0,
00:06.6,-0.002374649,0.000143051,0.004703522,0,
00:06.6,-0.002391815,0.000125885,0.004714966,0,
00:06.6,-0.002380371,0.000137329,0.00472641,0,
00:06.6,-0.002368927,0.000154495,0.004732132,0,
00:06.6,-0.002368927,0.000148773,0.004714966,0,
00:06.6,-0.002386093,0.000125885,0.004714966,0,
00:06.6,-0.002380371,0.000143051,0.004720688,0,
00:06.6,-0.002374649,0.000148773,0.00472641,0,
00:06.7,-0.002368927,0.000154495,0.004720688,0,
00:06.7,-0.002374649,0.000165939,0.00472641,0,
00:06.7,-0.002391815,0.000131607,0.004714966,0,
00:06.7,-0.002391815,0.000125885,0.004720688,0,
00:06.7,-0.002380371,0.000137329,0.004709244,0,
00:06.7,-0.002380371,0.000137329,0.004703522,0,
00:06.7,-0.002380371,0.000131607,0.004720688,0,
00:06.7,-0.002363205,0.000171661,0.004737854,0,
00:06.7,-0.002386093,0.000160217,0.004714966,0,
00:06.7,-0.002386093,0.000143051,0.004709244,0,
00:06.7,-0.002391815,0.000131607,0.004720688,0,
00:06.7,-0.002374649,0.000165939,0.004714966,0,
00:06.7,-0.002386093,0.000131607,0.004720688,0,
00:06.7,-0.002397537,0.000120163,0.004720688,0,
00:06.7,-0.002380371,0.000148773,0.004720688,0,
00:06.7,-0.002397537,0.000131607,0.00472641,0,
00:06.7,-0.002403259,0.000114441,0.004714966,0,
00:06.7,-0.002397537,0.000114441,0.004714966,0,
00:06.7,-0.002386093,0.000148773,0.004709244,0,
00:06.7,-0.002368927,0.000188828,0.00472641,0,
00:06.7,-0.002374649,0.000171661,0.004720688,0,
00:06.7,-0.002420425,9.73E-05,0.0046978,0,
00:06.7,-0.002397537,0.000120163,0.004720688,0,
00:06.7,-0.002397537,0.000120163,0.004720688,0,
00:06.7,-0.002403259,0.000114441,0.004714966,0,
00:06.8,-0.002397537,0.000131607,0.004709244,0,
00:06.8,-0.002391815,0.000143051,0.004714966,0,
00:06.8,-0.002374649,0.000171661,0.004720688,0,
00:06.8,-0.002386093,0.000160217,0.004709244,0,
00:06.8,-0.002397537,0.000143051,0.004703522,0,
00:06.8,-0.002408981,0.000125885,0.004714966,0,
00:06.8,-0.002408981,0.000108719,0.004714966,0,
00:06.8,-0.002386093,0.000148773,0.004714966,0,
00:06.8,-0.002403259,0.000148773,0.004709244,0,
00:06.8,-0.002420425,0.000114441,0.004714966,0,
00:06.8,-0.002408981,0.000125885,0.004714966,0,
00:06.8,-0.002403259,0.000114441,0.004709244,0,
00:06.8,-0.002386093,0.000143051,0.00472641,0,
00:06.8,-0.002414703,0.000137329,0.004714966,0,
00:06.8,-0.002420425,0.000125885,0.004714966,0,
00:06.8,-0.002408981,0.000137329,0.004703522,0,
00:06.8,-0.002408981,0.000131607,0.004709244,0,
00:06.8,-0.002414703,0.000131607,0.004703522,0,
00:06.8,-0.002397537,0.000137329,0.004714966,0,
00:06.8,-0.002380371,0.000154495,0.004709244,0,
00:06.8,-0.002414703,0.000125885,0.004709244,0,
00:06.8,-0.002437592,0.000102997,0.004709244,0,
00:06.8,-0.002408981,0.000131607,0.004703522,0,
00:06.8,-0.002408981,0.000125885,0.0046978,0,
00:06.8,-0.002414703,0.000131607,0.0046978,0,
00:06.9,-0.002397537,0.000154495,0.0046978,0,
00:06.9,-0.002414703,0.000125885,0.004709244,0,
00:06.9,-0.002420425,0.000120163,0.004709244,0,
00:06.9,-0.002420425,0.000108719,0.004709244,0,
00:06.9,-0.002414703,0.000114441,0.004703522,0,
00:06.9,-0.002403259,0.000137329,0.004703522,0,
00:06.9,-0.002403259,0.000143051,0.004692078,0,
00:06.9,-0.002414703,0.000131607,0.004703522,0,
00:06.9,-0.002420425,0.000120163,0.004714966,0,
00:06.9,-0.00243187,8.58E-05,0.004709244,0,
00:06.9,-0.00243187,0.000102997,0.0046978,0,
00:06.9,-0.002420425,0.000131607,0.0046978,0,
00:06.9,-0.002414703,0.000137329,0.0046978,0,
00:06.9,-0.002420425,0.000143051,0.004709244,0,
00:06.9,-0.002420425,0.000131607,0.004709244,0,
00:06.9,-0.002426147,0.000125885,0.0046978,0,
00:06.9,-0.002420425,0.000125885,0.0046978,0,
00:06.9,-0.002420425,0.000125885,0.004703522,0,
00:06.9,-0.002437592,0.000114441,0.004703522,0,
00:06.9,-0.002437592,0.000120163,0.004703522,0,
00:06.9,-0.002443314,0.000102997,0.004703522,0,
00:06.9,-0.002420425,0.000137329,0.0046978,0,
00:06.9,-0.002420425,0.000143051,0.0046978,0,
00:06.9,-0.002420425,0.000120163,0.004686356,0,
00:06.9,-0.002420425,0.000125885,0.004709244,0,
00:07.0,-0.002426147,0.000137329,0.004709244,0,
00:07.0,-0.002420425,0.000154495,0.004703522,0,
00:07.0,-0.002443314,9.73E-05,0.004692078,0,
00:07.0,-0.002426147,0.000102997,0.004692078,0,
00:07.0,-0.002426147,0.000125885,0.004692078,0,
00:07.0,-0.002426147,0.000154495,0.0046978,0,
00:07.0,-0.002437592,0.000108719,0.004692078,0,
00:07.0,-0.002437592,0.000108719,0.004692078,0,
00:07.0,-0.002408981,0.000143051,0.004709244,0,
00:07.0,-0.00243187,0.000143051,0.004692078,0,
00:07.0,-0.00246048,9.73E-05,0.004692078,0,
00:07.0,-0.002443314,0.000120163,0.004686356,0,
00:00:07,-0.002437592,0.000114441,0.0046978,0,
00:07.0,-0.002443314,0.000102997,0.004703522,0,
00:07.0,-0.002437592,0.000120163,0.0046978,0,
00:07.0,-0.002420425,0.000165939,0.004703522,0,
00:07.0,-0.002437592,0.000125885,0.004686356,0,
00:07.0,-0.002454758,9.73E-05,0.004674911,0,
00:07.0,-0.002443314,0.000120163,0.004686356,0,
00:07.0,-0.00243187,0.000120163,0.004674911,0,
00:07.0,-0.002426147,0.000125885,0.004692078,0,
00:07.0,-0.002420425,0.000154495,0.004692078,0,
00:07.0,-0.002449036,0.000114441,0.004686356,0,
00:07.0,-0.002449036,0.000102997,0.004686356,0,
00:07.0,-0.002437592,0.000120163,0.004680634,0,
00:07.1,-0.002449036,0.000102997,0.004669189,0,
00:07.1,-0.002437592,0.000108719,0.004692078,0,
00:07.1,-0.002420425,0.000154495,0.004692078,0,
00:07.1,-0.002454758,0.000120163,0.004686356,0,
00:07.1,-0.002437592,0.000114441,0.004680634,0,
00:07.1,-0.00243187,0.000125885,0.004680634,0,
00:07.1,-0.002454758,9.73E-05,0.004669189,0,
00:07.1,-0.002449036,0.000102997,0.004680634,0,
00:07.1,-0.002449036,0.000108719,0.004686356,0,
00:07.1,-0.002443314,0.000102997,0.004686356,0,
00:07.1,-0.002437592,0.000102997,0.004680634,0,
00:07.1,-0.002420425,0.000160217,0.004686356,0,
00:07.1,-0.002420425,0.000171661,0.004674911,0,
00:07.1,-0.00246048,0.000102997,0.004680634,0,
00:07.1,-0.002466202,9.73E-05,0.004669189,0,
00:07.1,-0.002449036,0.000114441,0.004674911,0,
00:07.1,-0.002449036,0.000114441,0.004674911,0,
00:07.1,-0.002443314,0.000120163,0.004680634,0,
00:07.1,-0.002449036,0.000114441,0.004669189,0,
00:07.1,-0.002443314,0.000114441,0.004680634,0,
00:07.1,-0.002449036,9.73E-05,0.004674911,0,
00:07.1,-0.002420425,0.000131607,0.004674911,0,
00:07.1,-0.00243187,0.000154495,0.004669189,0,
00:07.1,-0.002483368,7.44E-05,0.004663467,0,
00:07.1,-0.00246048,9.73E-05,0.004680634,0,
00:07.2,-0.00246048,9.73E-05,0.004674911,0,
00:07.2,-0.002449036,0.000102997,0.004674911,0,
00:07.2,-0.002449036,0.000114441,0.004669189,0,
00:07.2,-0.002437592,0.000137329,0.004674911,0,
00:07.2,-0.002449036,0.000114441,0.004674911,0,
00:07.2,-0.002466202,5.72E-05,0.004663467,0,
00:07.2,-0.00246048,9.16E-05,0.004663467,0,
00:07.2,-0.002443314,0.000131607,0.004657745,0,
00:07.2,-0.00243187,0.000154495,0.004680634,0,
00:07.2,-0.002454758,0.000114441,0.004669189,0,
00:07.2,-0.002466202,8.01E-05,0.004663467,0,
00:07.2,-0.002454758,9.16E-05,0.004657745,0,
00:07.2,-0.002449036,9.73E-05,0.004669189,0,
00:07.2,-0.002443314,0.000125885,0.004674911,0,
00:07.2,-0.00246048,0.000120163,0.004663467,0,
00:07.2,-0.002471924,9.16E-05,0.004663467,0,
00:07.2,-0.00246048,0.000102997,0.004663467,0,
00:07.2,-0.002466202,9.16E-05,0.004657745,0,
00:07.2,-0.002466202,0.000102997,0.004663467,0,
00:07.2,-0.002454758,0.000108719,0.004652023,0,
00:07.2,-0.002454758,0.000108719,0.004652023,0,
00:07.2,-0.002449036,0.000120163,0.004680634,0,
00:07.2,-0.00246048,9.73E-05,0.004663467,0,
00:07.2,-0.00246048,0.000108719,0.004663467,0,
00:07.2,-0.002466202,8.01E-05,0.004657745,0,
00:07.3,-0.002466202,9.16E-05,0.004663467,0,
00:07.3,-0.00246048,0.000137329,0.004663467,0,
00:07.3,-0.002466202,0.000102997,0.004657745,0,
00:07.3,-0.002466202,0.000102997,0.004669189,0,
00:07.3,-0.002466202,8.58E-05,0.004652023,0,
00:07.3,-0.002471924,8.01E-05,0.004657745,0,
00:07.3,-0.002471924,9.73E-05,0.004657745,0,
00:07.3,-0.002466202,0.000120163,0.004646301,0,
00:07.3,-0.002454758,0.000120163,0.004646301,0,
00:07.3,-0.002466202,8.58E-05,0.004669189,0,
00:07.3,-0.002494812,5.72E-05,0.004652023,0,
00:07.3,-0.002477646,9.16E-05,0.004652023,0,
00:07.3,-0.00246048,0.000131607,0.004646301,0,
00:07.3,-0.002466202,0.000108719,0.004657745,0,
00:07.3,-0.002477646,0.000102997,0.004652023,0,
00:07.3,-0.002466202,0.000102997,0.004646301,0,
00:07.3,-0.002466202,9.73E-05,0.004646301,0,
00:07.3,-0.002483368,8.58E-05,0.004657745,0,
00:07.3,-0.002477646,8.58E-05,0.004657745,0,
00:07.3,-0.00246048,0.000102997,0.004646301,0,
00:07.3,-0.002471924,0.000102997,0.004640579,0,
00:07.3,-0.002483368,9.73E-05,0.004640579,0,
00:07.3,-0.002477646,0.000102997,0.004652023,0,
00:07.3,-0.002466202,9.73E-05,0.004657745,0,
00:07.3,-0.002477646,6.29E-05,0.004657745,0,
00:07.4,-0.002483368,8.01E-05,0.004652023,0,
00:07.4,-0.002477646,9.73E-05,0.004640579,0,
00:07.4,-0.002466202,0.000108719,0.004634857,0,
00:07.4,-0.00246048,0.000125885,0.004652023,0,
00:07.4,-0.002483368,9.16E-05,0.004657745,0,
00:07.4,-0.00248909,7.44E-05,0.004646301,0,
00:07.4,-0.002466202,8.58E-05,0.004646301,0,
00:07.4,-0.002454758,0.000108719,0.004652023,0,
00:07.4,-0.002466202,9.16E-05,0.004652023,0,
00:07.4,-0.002466202,7.44E-05,0.004640579,0,
00:07.4,-0.002471924,9.16E-05,0.004646301,0,
00:07.4,-0.002466202,9.73E-05,0.004634857,0,
00:07.4,-0.00246048,0.000102997,0.004646301,0,
00:07.4,-0.00246048,9.16E-05,0.004646301,0,
00:07.4,-0.002466202,8.01E-05,0.004640579,0,
00:07.4,-0.002454758,8.01E-05,0.004646301,0,
00:07.4,-0.002466202,9.16E-05,0.004629135,0,
00:07.4,-0.002471924,0.000114441,0.004629135,0,
00:07.4,-0.002477646,8.58E-05,0.004652023,0,
00:07.4,-0.002466202,8.58E-05,0.004640579,0,
00:07.4,-0.002454758,9.16E-05,0.004629135,0,
00:07.4,-0.002471924,8.58E-05,0.004640579,0,
00:07.4,-0.002443314,9.73E-05,0.004652023,0,
00:07.4,-0.002443314,0.000125885,0.004646301,0,
00:07.4,-0.00248909,6.29E-05,0.004640579,0,
00:07.5,-0.002477646,6.87E-05,0.004611969,0,
00:07.5,-0.002471924,8.01E-05,0.004623413,0,
00:07.5,-0.002471924,9.73E-05,0.004657745,0,
00:07.5,-0.002454758,0.000114441,0.004646301,0,
00:07.5,-0.002454758,0.000102997,0.004640579,0,
00:07.5,-0.002483368,6.87E-05,0.004634857,0,
00:07.5,-0.00248909,6.29E-05,0.004634857,0,
00:07.5,-0.002477646,6.87E-05,0.004634857,0,
00:07.5,-0.002471924,8.01E-05,0.004634857,0,
00:07.5,-0.002471924,9.73E-05,0.004634857,0,
00:07.5,-0.002483368,8.01E-05,0.004640579,0,
00:07.5,-0.002471924,8.58E-05,0.004646301,0,
00:07.5,-0.002466202,8.58E-05,0.004634857,0,
00:07.5,-0.002477646,6.29E-05,0.004606247,0,
00:07.5,-0.002471924,9.16E-05,0.004629135,0,
00:07.5,-0.002466202,9.73E-05,0.004652023,0,
00:07.5,-0.002477646,6.87E-05,0.004634857,0,
00:07.5,-0.002477646,6.87E-05,0.004634857,0,
00:07.5,-0.002483368,7.44E-05,0.004640579,0,
00:07.5,-0.002471924,8.58E-05,0.004629135,0,
00:07.5,-0.002477646,9.16E-05,0.004640579,0,
00:07.5,-0.002454758,0.000108719,0.004646301,0,
00:07.5,-0.002471924,0.000102997,0.004629135,0,
00:07.5,-0.002477646,9.16E-05,0.004617691,0,
00:07.5,-0.002466202,0.000102997,0.004629135,0,
00:07.6,-0.002483368,6.87E-05,0.004634857,0,
00:07.6,-0.002471924,8.58E-05,0.004640579,0,
00:07.6,-0.00246048,0.000108719,0.004623413,0,
00:07.6,-0.002471924,8.01E-05,0.004640579,0,
00:07.6,-0.002471924,7.44E-05,0.004640579,0,
00:07.6,-0.002466202,8.58E-05,0.004634857,0,
00:07.6,-0.00248909,5.72E-05,0.004629135,0,
00:07.6,-0.002477646,7.44E-05,0.004640579,0,
00:07.6,-0.002477646,8.58E-05,0.004629135,0,
00:07.6,-0.002471924,8.58E-05,0.004623413,0,
00:07.6,-0.002477646,8.01E-05,0.004634857,0,
00:07.6,-0.002477646,8.01E-05,0.004646301,0,
00:07.6,-0.002477646,6.87E-05,0.004629135,0,
00:07.6,-0.002477646,8.01E-05,0.004617691,0,
00:07.6,-0.002466202,8.58E-05,0.004634857,0,
00:07.6,-0.002466202,9.73E-05,0.004629135,0,
00:07.6,-0.002471924,7.44E-05,0.004634857,0,
00:07.6,-0.002471924,8.01E-05,0.004646301,0,
00:07.6,-0.002483368,7.44E-05,0.004640579,0,
00:07.6,-0.002483368,6.87E-05,0.004617691,0,
00:07.6,-0.00248909,6.87E-05,0.004623413,0,
00:07.6,-0.002483368,8.01E-05,0.004629135,0,
00:07.6,-0.002466202,9.73E-05,0.004623413,0,
00:07.6,-0.002466202,0.000108719,0.004629135,0,
00:07.6,-0.002477646,6.29E-05,0.004634857,0,
00:07.7,-0.002494812,4.58E-05,0.004629135,0,
00:07.7,-0.002483368,8.58E-05,0.004623413,0,
00:07.7,-0.002483368,9.16E-05,0.004629135,0,
00:07.7,-0.002483368,7.44E-05,0.004629135,0,
00:07.7,-0.002483368,6.29E-05,0.004629135,0,
00:07.7,-0.002477646,6.87E-05,0.004634857,0,
00:07.7,-0.002477646,8.01E-05,0.004640579,0,
00:07.7,-0.002483368,6.29E-05,0.004623413,0,
00:07.7,-0.002483368,9.73E-05,0.004623413,0,
00:07.7,-0.002477646,9.16E-05,0.004623413,0,
00:07.7,-0.002477646,8.58E-05,0.004611969,0,
00:07.7,-0.002471924,9.16E-05,0.004629135,0,
00:07.7,-0.002483368,7.44E-05,0.004634857,0,
00:07.7,-0.00248909,6.87E-05,0.004611969,0,
00:07.7,-0.002466202,9.16E-05,0.004629135,0,
00:07.7,-0.002471924,8.58E-05,0.004623413,0,
00:07.7,-0.00248909,7.44E-05,0.004629135,0,
00:07.7,-0.002483368,9.16E-05,0.004611969,0,
00:07.7,-0.00248909,7.44E-05,0.004623413,0,
00:07.7,-0.002494812,6.29E-05,0.004623413,0,
00:07.7,-0.002466202,8.01E-05,0.004617691,0,
00:07.7,-0.002477646,8.01E-05,0.004623413,0,
00:07.7,-0.002500534,6.87E-05,0.004623413,0,
00:07.7,-0.00248909,6.29E-05,0.004606247,0,
00:07.7,-0.002500534,4.58E-05,0.004617691,0,
00:07.8,-0.002494812,6.87E-05,0.004629135,0,
00:07.8,-0.002483368,8.01E-05,0.004617691,0,
00:07.8,-0.002483368,6.87E-05,0.004611969,0,
00:07.8,-0.00248909,6.87E-05,0.004629135,0,
00:07.8,-0.00248909,8.01E-05,0.004617691,0,
00:07.8,-0.002494812,6.29E-05,0.004611969,0,
00:07.8,-0.00248909,6.87E-05,0.004611969,0,
00:07.8,-0.002483368,7.44E-05,0.004611969,0,
00:07.8,-0.002477646,6.87E-05,0.004600525,0,
00:07.8,-0.002500534,6.29E-05,0.004617691,0,
00:07.8,-0.002494812,8.01E-05,0.004617691,0,
00:07.8,-0.002494812,7.44E-05,0.004606247,0,
00:07.8,-0.002483368,8.58E-05,0.004611969,0,
00:07.8,-0.002471924,9.73E-05,0.004611969,0,
00:07.8,-0.002477646,9.73E-05,0.004629135,0,
00:07.8,-0.002511978,5.15E-05,0.004611969,0,
00:07.8,-0.002494812,6.29E-05,0.004611969,0,
00:07.8,-0.002483368,6.87E-05,0.004594803,0,
00:07.8,-0.00248909,5.72E-05,0.004606247,0,
00:07.8,-0.002483368,6.87E-05,0.004617691,0,
00:07.8,-0.002500534,6.29E-05,0.004606247,0,
00:07.8,-0.002500534,5.72E-05,0.004594803,0,
00:07.8,-0.002500534,6.29E-05,0.004617691,0,
00:07.8,-0.00248909,6.87E-05,0.004611969,0,
00:07.8,-0.002500534,4.58E-05,0.004600525,0,
00:07.9,-0.00248909,5.72E-05,0.004606247,0,
00:07.9,-0.002483368,6.87E-05,0.004611969,0,
00:07.9,-0.00248909,6.29E-05,0.004617691,0,
00:07.9,-0.00248909,6.87E-05,0.004606247,0,
00:07.9,-0.002506256,5.72E-05,0.004594803,0,
00:07.9,-0.002506256,5.15E-05,0.004617691,0,
00:07.9,-0.002494812,8.58E-05,0.004617691,0,
00:07.9,-0.00248909,6.87E-05,0.004594803,0,
00:07.9,-0.00248909,8.58E-05,0.004611969,0,
00:07.9,-0.00248909,8.01E-05,0.004611969,0,
00:07.9,-0.002494812,5.72E-05,0.004589081,0,
00:07.9,-0.002494812,6.29E-05,0.004611969,0,
00:07.9,-0.00248909,9.16E-05,0.004617691,0,
00:07.9,-0.002506256,4.58E-05,0.004583359,0,
00:07.9,-0.00248909,6.87E-05,0.004611969,0,
00:07.9,-0.002494812,7.44E-05,0.004611969,0,
00:07.9,-0.002494812,5.72E-05,0.004600525,0,
00:07.9,-0.00248909,6.87E-05,0.004606247,0,
00:07.9,-0.002494812,6.87E-05,0.004600525,0,
00:07.9,-0.002500534,5.72E-05,0.004594803,0,
00:07.9,-0.00248909,6.87E-05,0.004606247,0,
00:07.9,-0.00248909,7.44E-05,0.004583359,0,
00:07.9,-0.002494812,7.44E-05,0.004611969,0,
00:07.9,-0.002506256,5.72E-05,0.004600525,0,
00:07.9,-0.002506256,5.15E-05,0.004606247,0,
00:08.0,-0.002494812,6.29E-05,0.004583359,0,
00:08.0,-0.002483368,8.58E-05,0.004594803,0,
00:08.0,-0.002494812,7.44E-05,0.004617691,0,
00:08.0,-0.002500534,6.29E-05,0.004611969,0,
00:08.0,-0.00248909,5.72E-05,0.004611969,0,
00:08.0,-0.00248909,6.29E-05,0.004606247,0,
00:08.0,-0.002529144,-5.72E-06,0.004594803,0,
00:08.0,-0.0025177,2.29E-05,0.004600525,0,
00:08.0,-0.002500534,7.44E-05,0.004594803,0,
00:08.0,-0.002477646,0.000108719,0.004594803,0,
00:08.0,-0.002477646,0.000102997,0.004594803,0,
00:08.0,-0.002500534,6.29E-05,0.004606247,0,
00:00:08,-0.002500534,4.58E-05,0.004594803,0,
00:08.0,-0.002506256,5.15E-05,0.004594803,0,
00:08.0,-0.002500534,6.87E-05,0.004606247,0,
00:08.0,-0.002494812,6.87E-05,0.004600525,0,
00:08.0,-0.002506256,6.29E-05,0.004594803,0,
00:08.0,-0.002494812,6.29E-05,0.004600525,0,
00:08.0,-0.002500534,6.29E-05,0.004589081,0,
00:08.0,-0.002500534,6.87E-05,0.004577637,0,
00:08.0,-0.00248909,6.87E-05,0.004594803,0,
00:08.0,-0.002494812,6.87E-05,0.004600525,0,
00:08.0,-0.0025177,4.01E-05,0.004594803,0,
00:08.0,-0.002494812,5.15E-05,0.004583359,0,
00:08.0,-0.002494812,6.87E-05,0.004577637,0,
00:08.1,-0.002500534,6.87E-05,0.004600525,0,
00:08.1,-0.002511978,5.15E-05,0.004589081,0,
00:08.1,-0.002506256,4.58E-05,0.004594803,0,
00:08.1,-0.002500534,6.87E-05,0.004594803,0,
00:08.1,-0.00248909,8.58E-05,0.004577637,0,
00:08.1,-0.002500534,6.87E-05,0.004589081,0,
00:08.1,-0.0025177,4.01E-05,0.004589081,0,
00:08.1,-0.0025177,2.86E-05,0.004594803,0,
00:08.1,-0.002506256,4.58E-05,0.004594803,0,
00:08.1,-0.002500534,6.29E-05,0.004589081,0,
00:08.1,-0.002494812,6.87E-05,0.004589081,0,
00:08.1,-0.0025177,2.29E-05,0.004577637,0,
00:08.1,-0.002500534,5.15E-05,0.004583359,0,
00:08.1,-0.002506256,7.44E-05,0.004577637,0,
00:08.1,-0.002506256,6.87E-05,0.004594803,0,
00:08.1,-0.002506256,5.72E-05,0.004589081,0,
00:08.1,-0.002500534,5.72E-05,0.004583359,0,
00:08.1,-0.002494812,5.15E-05,0.004583359,0,
00:08.1,-0.002529144,1.14E-05,0.004577637,0,
00:08.1,-0.0025177,5.72E-05,0.004577637,0,
00:08.1,-0.002500534,8.58E-05,0.004577637,0,
00:08.1,-0.002500534,8.58E-05,0.004594803,0,
00:08.1,-0.002500534,8.58E-05,0.004589081,0,
00:08.1,-0.002506256,7.44E-05,0.004577637,0,
00:08.1,-0.002511978,5.15E-05,0.004583359,0,
00:08.2,-0.002500534,5.72E-05,0.004577637,0,
00:08.2,-0.002506256,5.72E-05,0.004577637,0,
00:08.2,-0.002506256,5.15E-05,0.004577637,0,
00:08.2,-0.002511978,5.72E-05,0.004577637,0,
00:08.2,-0.002506256,5.72E-05,0.004583359,0,
00:08.2,-0.002506256,6.29E-05,0.004583359,0,
00:08.2,-0.002511978,6.29E-05,0.004577637,0,
00:08.2,-0.002506256,6.29E-05,0.004577637,0,
00:08.2,-0.002506256,6.29E-05,0.004571915,0,
00:08.2,-0.002506256,5.15E-05,0.004571915,0,
00:08.2,-0.002500534,6.29E-05,0.004577637,0,
00:08.2,-0.002494812,7.44E-05,0.004589081,0,
00:08.2,-0.002500534,4.58E-05,0.004571915,0,
00:08.2,-0.002511978,4.58E-05,0.004577637,0,
00:08.2,-0.002523422,6.29E-05,0.004560471,0,
00:08.2,-0.0025177,6.29E-05,0.004583359,0,
00:08.2,-0.002511978,5.72E-05,0.004589081,0,
00:08.2,-0.002506256,6.29E-05,0.004583359,0,
00:08.2,-0.002511978,6.29E-05,0.004577637,0,
00:08.2,-0.002506256,5.72E-05,0.004577637,0,
00:08.2,-0.002506256,5.15E-05,0.004566193,0,
00:08.2,-0.002511978,5.15E-05,0.004566193,0,
00:08.2,-0.002511978,5.15E-05,0.004583359,0,
00:08.2,-0.002506256,7.44E-05,0.004566193,0,
00:08.2,-0.002511978,8.58E-05,0.004583359,0,
00:08.3,-0.002506256,6.87E-05,0.004577637,0,
00:08.3,-0.002506256,6.29E-05,0.004566193,0,
00:08.3,-0.0025177,4.58E-05,0.004571915,0,
00:08.3,-0.0025177,3.43E-05,0.004577637,0,
00:08.3,-0.002511978,4.58E-05,0.004571915,0,
00:08.3,-0.002511978,5.72E-05,0.004566193,0,
00:08.3,-0.002511978,6.87E-05,0.004566193,0,
00:08.3,-0.002500534,7.44E-05,0.004560471,0,
00:08.3,-0.00248909,8.01E-05,0.004554749,0,
00:08.3,-0.002506256,6.87E-05,0.004571915,0,
00:08.3,-0.002529144,4.58E-05,0.004589081,0,
00:08.3,-0.002529144,4.01E-05,0.004577637,0,
00:08.3,-0.002511978,6.29E-05,0.004577637,0,
00:08.3,-0.002511978,5.72E-05,0.004577637,0,
00:08.3,-0.002523422,5.15E-05,0.004566193,0,
00:08.3,-0.0025177,6.29E-05,0.004566193,0,
00:08.3,-0.0025177,4.58E-05,0.004571915,0,
00:08.3,-0.002523422,2.29E-05,0.004566193,0,
00:08.3,-0.002523422,5.72E-05,0.004571915,0,
00:08.3,-0.0025177,8.01E-05,0.004560471,0,
00:08.3,-0.002511978,7.44E-05,0.004566193,0,
00:08.3,-0.002511978,6.87E-05,0.004566193,0,
00:08.3,-0.0025177,6.87E-05,0.004560471,0,
00:08.3,-0.0025177,6.29E-05,0.004566193,0,
00:08.3,-0.002500534,8.58E-05,0.004566193,0,
00:08.4,-0.002511978,6.29E-05,0.004554749,0,
00:08.4,-0.002523422,5.15E-05,0.004560471,0,
00:08.4,-0.0025177,5.15E-05,0.004571915,0,
00:08.4,-0.0025177,4.58E-05,0.004566193,0,
00:08.4,-0.002523422,4.58E-05,0.004577637,0,
00:08.4,-0.002534866,4.58E-05,0.004560471,0,
00:08.4,-0.0025177,4.58E-05,0.004554749,0,
00:08.4,-0.002523422,3.43E-05,0.004566193,0,
00:08.4,-0.002511978,7.44E-05,0.004566193,0,
00:08.4,-0.002511978,7.44E-05,0.004560471,0,
00:08.4,-0.002534866,3.43E-05,0.004560471,0,
00:08.4,-0.002540588,2.86E-05,0.004554749,0,
00:08.4,-0.002529144,5.15E-05,0.004566193,0,
00:08.4,-0.002511978,7.44E-05,0.004566193,0,
00:08.4,-0.0025177,6.29E-05,0.004566193,0,
00:08.4,-0.00254631,2.86E-05,0.004554749,0,
00:08.4,-0.002534866,2.86E-05,0.004549026,0,
00:08.4,-0.002523422,4.58E-05,0.004549026,0,
00:08.4,-0.0025177,6.87E-05,0.004560471,0,
00:08.4,-0.002529144,6.87E-05,0.004566193,0,
00:08.4,-0.002506256,8.01E-05,0.004560471,0,
00:08.4,-0.002523422,6.87E-05,0.004554749,0,
00:08.4,-0.002563477,5.72E-06,0.004560471,0,
00:08.4,-0.002540588,4.01E-05,0.004554749,0,
00:08.4,-0.002523422,6.29E-05,0.004566193,0,
00:08.5,-0.002529144,5.72E-05,0.004549026,0,
00:08.5,-0.002523422,6.29E-05,0.004560471,0,
00:08.5,-0.002529144,5.15E-05,0.004566193,0,
00:08.5,-0.002534866,4.01E-05,0.004554749,0,
00:08.5,-0.002534866,4.01E-05,0.004554749,0,
00:08.5,-0.002529144,4.58E-05,0.004554749,0,
00:08.5,-0.002534866,3.43E-05,0.004554749,0,
00:08.5,-0.002523422,5.72E-05,0.004560471,0,
00:08.5,-0.002552032,3.43E-05,0.004537582,0,
00:08.5,-0.002540588,3.43E-05,0.004549026,0,
00:08.5,-0.002540588,4.58E-05,0.004554749,0,
00:08.5,-0.002529144,5.72E-05,0.004560471,0,
00:08.5,-0.002529144,5.15E-05,0.004571915,0,
00:08.5,-0.00254631,1.72E-05,0.004549026,0,
00:08.5,-0.002534866,5.15E-05,0.004549026,0,
00:08.5,-0.00254631,4.01E-05,0.00453186,0,
00:08.5,-0.00254631,2.86E-05,0.004566193,0,
00:08.5,-0.00254631,3.43E-05,0.004560471,0,
00:08.5,-0.00254631,4.01E-05,0.004554749,0,
00:08.5,-0.00254631,2.86E-05,0.004554749,0,
00:08.5,-0.00254631,3.43E-05,0.004549026,0,
00:08.5,-0.002540588,4.58E-05,0.004549026,0,
00:08.5,-0.002523422,8.01E-05,0.004560471,0,
00:08.5,-0.002552032,5.15E-05,0.004543304,0,
00:08.5,-0.002557755,2.86E-05,0.004543304,0,
00:08.6,-0.002540588,5.15E-05,0.004549026,0,
00:08.6,-0.002540588,5.72E-05,0.004526138,0,
00:08.6,-0.002540588,4.01E-05,0.004560471,0,
00:08.6,-0.002540588,3.43E-05,0.004554749,0,
00:08.6,-0.0025177,8.01E-05,0.004571915,0,
00:08.6,-0.00254631,3.43E-05,0.004543304,0,
00:08.6,-0.002569199,5.72E-06,0.004537582,0,
00:08.6,-0.002557755,2.86E-05,0.004549026,0,
00:08.6,-0.002552032,3.43E-05,0.004554749,0,
00:08.6,-0.002552032,3.43E-05,0.004554749,0,
00:08.6,-0.002540588,5.15E-05,0.004554749,0,
00:08.6,-0.002534866,5.72E-05,0.004560471,0,
00:08.6,-0.00254631,4.01E-05,0.004566193,0,
00:08.6,-0.002574921,-1.72E-05,0.004554749,0,
00:08.6,-0.002574921,-1.14E-05,0.004543304,0,
00:08.6,-0.002563477,4.01E-05,0.004543304,0,
00:08.6,-0.002540588,6.29E-05,0.004560471,0,
00:08.6,-0.002540588,5.72E-05,0.004566193,0,
00:08.6,-0.002552032,4.58E-05,0.004560471,0,
00:08.6,-0.002569199,2.29E-05,0.004554749,0,
00:08.6,-0.002563477,5.72E-06,0.004554749,0,
00:08.6,-0.002563477,1.14E-05,0.004554749,0,
00:08.6,-0.002569199,1.72E-05,0.004554749,0,
00:08.6,-0.002563477,2.29E-05,0.004554749,0,
00:08.6,-0.002557755,5.15E-05,0.004549026,0,
00:08.7,-0.002540588,6.87E-05,0.004560471,0,
00:08.7,-0.002534866,8.58E-05,0.004554749,0,
00:08.7,-0.002580643,5.72E-06,0.004549026,0,
00:08.7,-0.002580643,-1.14E-05,0.004554749,0,
00:08.7,-0.002580643,-1.72E-05,0.004543304,0,
00:08.7,-0.002557755,1.72E-05,0.004549026,0,
00:08.7,-0.002569199,4.58E-05,0.004543304,0,
00:08.7,-0.002569199,4.01E-05,0.004549026,0,
00:08.7,-0.002557755,5.72E-05,0.004554749,0,
00:08.7,-0.002557755,5.15E-05,0.004560471,0,
00:08.7,-0.002563477,3.43E-05,0.004549026,0,
00:08.7,-0.002563477,3.43E-05,0.004554749,0,
00:08.7,-0.002580643,1.72E-05,0.004560471,0,
00:08.7,-0.002569199,2.86E-05,0.004543304,0,
00:08.7,-0.002574921,2.29E-05,0.00453186,0,
00:08.7,-0.002586365,0,0.004549026,0,
00:08.7,-0.002580643,1.14E-05,0.004554749,0,
00:08.7,-0.002569199,3.43E-05,0.004543304,0,
00:08.7,-0.002580643,1.14E-05,0.004543304,0,
00:08.7,-0.002574921,4.58E-05,0.004560471,0,
00:08.7,-0.002563477,5.15E-05,0.004560471,0,
00:08.7,-0.002569199,2.29E-05,0.004543304,0,
00:08.7,-0.002586365,1.14E-05,0.004549026,0,
00:08.7,-0.002580643,1.72E-05,0.004554749,0,
00:08.7,-0.002586365,1.72E-05,0.004543304,0,
00:08.8,-0.002574921,2.29E-05,0.004543304,0,
00:08.8,-0.002563477,4.01E-05,0.004543304,0,
00:08.8,-0.002574921,3.43E-05,0.004549026,0,
00:08.8,-0.002597809,5.72E-06,0.004537582,0,
00:08.8,-0.002597809,0,0.004549026,0,
00:08.8,-0.002586365,0,0.004549026,0,
00:08.8,-0.002574921,2.86E-05,0.004554749,0,
00:08.8,-0.002592087,2.29E-05,0.004537582,0,
00:08.8,-0.002586365,2.29E-05,0.004543304,0,
00:08.8,-0.002586365,2.29E-05,0.004537582,0,
00:08.8,-0.002592087,1.14E-05,0.004549026,0,
00:08.8,-0.002580643,3.43E-05,0.004537582,0,
00:08.8,-0.002574921,4.58E-05,0.00453186,0,
00:08.8,-0.002609253,0,0.004549026,0,
00:08.8,-0.002603531,5.72E-06,0.004560471,0,
00:08.8,-0.002597809,4.58E-05,0.004549026,0,
00:08.8,-0.002592087,1.14E-05,0.004543304,0,
00:08.8,-0.002597809,0,0.004549026,0,
00:08.8,-0.002597809,1.14E-05,0.004526138,0,
00:08.8,-0.002580643,5.15E-05,0.004543304,0,
00:08.8,-0.002592087,3.43E-05,0.004537582,0,
00:08.8,-0.002597809,5.72E-06,0.00453186,0,
00:08.8,-0.002609253,0,0.004543304,0,
00:08.8,-0.002592087,1.72E-05,0.004549026,0,
00:08.8,-0.002609253,-5.72E-06,0.004537582,0,
00:08.9,-0.002609253,-1.72E-05,0.00453186,0,
00:08.9,-0.002609253,-1.14E-05,0.004537582,0,
00:08.9,-0.002603531,2.29E-05,0.00453186,0,
00:08.9,-0.002597809,3.43E-05,0.004537582,0,
00:08.9,-0.002597809,2.86E-05,0.004526138,0,
00:08.9,-0.002597809,2.29E-05,0.00453186,0,
00:08.9,-0.002603531,1.72E-05,0.004537582,0,
00:08.9,-0.002609253,5.72E-06,0.004537582,0,
00:08.9,-0.002614975,-5.72E-06,0.004526138,0,
00:08.9,-0.002597809,-5.72E-06,0.00453186,0,
00:08.9,-0.002603531,1.72E-05,0.004537582,0,
00:08.9,-0.002609253,2.29E-05,0.004543304,0,
00:08.9,-0.002609253,1.72E-05,0.004526138,0,
00:08.9,-0.002603531,1.14E-05,0.004537582,0,
00:08.9,-0.002620697,5.72E-06,0.00453186,0,
00:08.9,-0.002614975,0,0.004526138,0,
00:08.9,-0.002609253,0,0.00453186,0,
00:08.9,-0.002626419,-1.72E-05,0.004526138,0,
00:08.9,-0.002614975,0,0.00453186,0,
00:08.9,-0.002597809,3.43E-05,0.00453186,0,
00:08.9,-0.002609253,3.43E-05,0.004520416,0,
00:08.9,-0.002614975,1.72E-05,0.00453186,0,
00:08.9,-0.002620697,-5.72E-06,0.00453186,0,
00:08.9,-0.002626419,-2.29E-05,0.004526138,0,
00:08.9,-0.002620697,-1.72E-05,0.004526138,0,
00:09.0,-0.002620697,0,0.004520416,0,
00:09.0,-0.002620697,5.72E-06,0.004514694,0,
00:09.0,-0.002614975,5.72E-06,0.004520416,0,
00:09.0,-0.002609253,1.72E-05,0.004543304,0,
00:09.0,-0.002632141,-5.72E-06,0.004537582,0,
00:09.0,-0.002620697,5.72E-06,0.00453186,0,
00:09.0,-0.002626419,1.14E-05,0.004520416,0,
00:09.0,-0.002626419,1.72E-05,0.004526138,0,
00:09.0,-0.002620697,1.72E-05,0.004526138,0,
00:09.0,-0.002620697,1.14E-05,0.00453186,0,
00:09.0,-0.002620697,5.72E-06,0.004526138,0,
00:09.0,-0.002626419,-1.14E-05,0.004526138,0,
00:00:09,-0.002620697,5.72E-06,0.004520416,0,
00:09.0,-0.002614975,2.86E-05,0.00453186,0,
00:09.0,-0.002637863,-1.14E-05,0.004526138,0,
00:09.0,-0.002632141,-1.72E-05,0.004520416,0,
00:09.0,-0.002632141,-1.14E-05,0.004526138,0,
00:09.0,-0.002632141,0,0.004520416,0,
00:09.0,-0.002632141,-1.14E-05,0.004520416,0,
00:09.0,-0.002620697,-5.72E-06,0.004537582,0,
00:09.0,-0.002620697,5.72E-06,0.004526138,0,
00:09.0,-0.002620697,2.29E-05,0.004526138,0,
00:09.0,-0.002632141,5.72E-06,0.004526138,0,
00:09.0,-0.002632141,-1.72E-05,0.004514694,0,
00:09.0,-0.002632141,5.72E-06,0.004520416,0,
00:09.1,-0.002609253,2.29E-05,0.004520416,0,
00:09.1,-0.002637863,-1.14E-05,0.004526138,0,
00:09.1,-0.002643585,-2.86E-05,0.004526138,0,
00:09.1,-0.002632141,-5.72E-06,0.004520416,0,
00:09.1,-0.002632141,1.14E-05,0.004520416,0,
00:09.1,-0.002637863,0,0.004514694,0,
00:09.1,-0.002637863,-5.72E-06,0.004537582,0,
00:09.1,-0.002620697,1.72E-05,0.00453186,0,
00:09.1,-0.002626419,2.29E-05,0.004520416,0,
00:09.1,-0.002660751,-3.43E-05,0.00450325,0,
00:09.1,-0.002649307,-3.43E-05,0.004526138,0,
00:09.1,-0.002637863,-1.14E-05,0.004514694,0,
00:09.1,-0.002637863,1.14E-05,0.004520416,0,
00:09.1,-0.002637863,0,0.004514694,0,
00:09.1,-0.002632141,5.72E-06,0.004520416,0,
00:09.1,-0.002632141,5.72E-06,0.004520416,0,
00:09.1,-0.002643585,-2.29E-05,0.004520416,0,
00:09.1,-0.002655029,-4.01E-05,0.004520416,0,
00:09.1,-0.002649307,-1.14E-05,0.004508972,0,
00:09.1,-0.002620697,1.14E-05,0.004520416,0,
00:09.1,-0.002620697,5.72E-06,0.004514694,0,
00:09.1,-0.002637863,5.72E-06,0.004508972,0,
00:09.1,-0.002660751,-2.29E-05,0.004520416,0,
00:09.1,-0.002655029,-1.72E-05,0.004526138,0,
00:09.1,-0.002649307,-2.29E-05,0.004520416,0,
00:09.2,-0.002637863,-1.14E-05,0.004526138,0,
00:09.2,-0.002643585,-5.72E-06,0.004520416,0,
00:09.2,-0.002643585,0,0.004520416,0,
00:09.2,-0.002649307,-1.14E-05,0.004508972,0,
00:09.2,-0.002649307,-4.01E-05,0.004508972,0,
00:09.2,-0.002649307,-1.72E-05,0.004520416,0,
00:09.2,-0.002649307,5.72E-06,0.004526138,0,
00:09.2,-0.002643585,-1.14E-05,0.004514694,0,
00:09.2,-0.002649307,-1.72E-05,0.004508972,0,
00:09.2,-0.002632141,1.72E-05,0.004526138,0,
00:09.2,-0.002643585,1.14E-05,0.004520416,0,
00:09.2,-0.002655029,-2.29E-05,0.004508972,0,
00:09.2,-0.002655029,-2.29E-05,0.004508972,0,
00:09.2,-0.002655029,-2.29E-05,0.004514694,0,
00:09.2,-0.002655029,-1.72E-05,0.004520416,0,
00:09.2,-0.002655029,-2.86E-05,0.00450325,0,
00:09.2,-0.002649307,-1.72E-05,0.004520416,0,
00:09.2,-0.002643585,-1.14E-05,0.004526138,0,
00:09.2,-0.002649307,-2.29E-05,0.004520416,0,
00:09.2,-0.002660751,-2.29E-05,0.004508972,0,
00:09.2,-0.002660751,-1.72E-05,0.004508972,0,
00:09.2,-0.002660751,-1.72E-05,0.004514694,0,
00:09.2,-0.002649307,-1.72E-05,0.004508972,0,
00:09.2,-0.002649307,-1.14E-05,0.004514694,0,
00:09.2,-0.002649307,-5.72E-06,0.004520416,0,
00:09.3,-0.002649307,-2.29E-05,0.004514694,0,
00:09.3,-0.002677917,-5.15E-05,0.004508972,0,
00:09.3,-0.002666473,-4.58E-05,0.004514694,0,
00:09.3,-0.002660751,-1.14E-05,0.004514694,0,
00:09.3,-0.002660751,-1.14E-05,0.004514694,0,
00:09.3,-0.002660751,-1.72E-05,0.004508972,0,
00:09.3,-0.002660751,-1.72E-05,0.004508972,0,
00:09.3,-0.002666473,-2.86E-05,0.004514694,0,
00:09.3,-0.002666473,-4.58E-05,0.004514694,0,
00:09.3,-0.002649307,-2.86E-05,0.004514694,0,
00:09.3,-0.002649307,0,0.004514694,0,
00:09.3,-0.002672195,-3.43E-05,0.004520416,0,
00:09.3,-0.002677917,-4.58E-05,0.004508972,0,
00:09.3,-0.002666473,-1.72E-05,0.004508972,0,
00:09.3,-0.002660751,-1.72E-05,0.00450325,0,
00:09.3,-0.002649307,-5.72E-06,0.004508972,0,
00:09.3,-0.002666473,-2.29E-05,0.004508972,0,
00:09.3,-0.002666473,-4.01E-05,0.004514694,0,
00:09.3,-0.002660751,-1.72E-05,0.00450325,0,
00:09.3,-0.002666473,-2.29E-05,0.004508972,0,
00:09.3,-0.002666473,-4.01E-05,0.004508972,0,
00:09.3,-0.002655029,-1.14E-05,0.004508972,0,
00:09.3,-0.002660751,-2.29E-05,0.004520416,0,
00:09.3,-0.002672195,-4.58E-05,0.004514694,0,
00:09.3,-0.002666473,-4.01E-05,0.004514694,0,
00:09.4,-0.002672195,-4.58E-05,0.004491806,0,
00:09.4,-0.002666473,-4.01E-05,0.004497528,0,
00:09.4,-0.002666473,-2.86E-05,0.004508972,0,
00:09.4,-0.002672195,-3.43E-05,0.00450325,0,
00:09.4,-0.002672195,-3.43E-05,0.004514694,0,
00:09.4,-0.002672195,-2.29E-05,0.004514694,0,
00:09.4,-0.002672195,-2.86E-05,0.004491806,0,
00:09.4,-0.002672195,-4.01E-05,0.00450325,0,
00:09.4,-0.002666473,-4.01E-05,0.004508972,0,
00:09.4,-0.002672195,-3.43E-05,0.00450325,0,
00:09.4,-0.002666473,-1.72E-05,0.004514694,0,
00:09.4,-0.002677917,-5.72E-05,0.00450325,0,
00:09.4,-0.00268364,-6.29E-05,0.004497528,0,
00:09.4,-0.002666473,-5.72E-06,0.004508972,0,
00:09.4,-0.002666473,5.72E-06,0.00450325,0,
00:09.4,-0.002672195,-2.86E-05,0.004497528,0,
00:09.4,-0.002677917,-5.72E-05,0.004497528,0,
00:09.4,-0.002677917,-4.58E-05,0.004497528,0,
00:09.4,-0.002672195,-2.29E-05,0.00450325,0,
00:09.4,-0.002677917,-3.43E-05,0.00450325,0,
00:09.4,-0.002677917,-4.01E-05,0.004508972,0,
00:09.4,-0.002666473,-3.43E-05,0.00450325,0,
00:09.4,-0.002649307,5.72E-06,0.004508972,0,
00:09.4,-0.002677917,-1.72E-05,0.004508972,0,
00:09.4,-0.002677917,-3.43E-05,0.004497528,0,
00:09.5,-0.002695084,-5.72E-05,0.004491806,0,
00:09.5,-0.00268364,-3.43E-05,0.004497528,0,
00:09.5,-0.002677917,-1.72E-05,0.004486084,0,
00:09.5,-0.002672195,-2.29E-05,0.004508972,0,
00:09.5,-0.002672195,-2.86E-05,0.004497528,0,
00:09.5,-0.002660751,-1.72E-05,0.00450325,0,
00:09.5,-0.002677917,-3.43E-05,0.00450325,0,
00:09.5,-0.002689362,-6.29E-05,0.004491806,0,
00:09.5,-0.00268364,-4.01E-05,0.004497528,0,
00:09.5,-0.002677917,-2.86E-05,0.00450325,0,
00:09.5,-0.002672195,-2.86E-05,0.00450325,0,
00:09.5,-0.002677917,-2.29E-05,0.00450325,0,
00:09.5,-0.002677917,-3.43E-05,0.004497528,0,
00:09.5,-0.002689362,-5.15E-05,0.004491806,0,
00:09.5,-0.002689362,-5.15E-05,0.004486084,0,
00:09.5,-0.002689362,-4.01E-05,0.004508972,0,
00:09.5,-0.002677917,-3.43E-05,0.00450325,0,
00:09.5,-0.002677917,-2.29E-05,0.004491806,0,
00:09.5,-0.002672195,-1.14E-05,0.00450325,0,
00:09.5,-0.002660751,0,0.00450325,0,
00:09.5,-0.002689362,-4.58E-05,0.004491806,0,
00:09.5,-0.002700806,-8.58E-05,0.004491806,0,
00:09.5,-0.00268364,-6.29E-05,0.00450325,0,
00:09.5,-0.002689362,-3.43E-05,0.004491806,0,
00:09.5,-0.00268364,-2.29E-05,0.004486084,0,
00:09.6,-0.002660751,-1.14E-05,0.004491806,0,
00:09.6,-0.002677917,-1.14E-05,0.004491806,0,
00:09.6,-0.002695084,-4.58E-05,0.004497528,0,
00:09.6,-0.002689362,-5.72E-05,0.004491806,0,
00:09.6,-0.002689362,-6.87E-05,0.004491806,0,
00:09.6,-0.002689362,-6.29E-05,0.004491806,0,
00:09.6,-0.00268364,-3.43E-05,0.004491806,0,
00:09.6,-0.002677917,-1.72E-05,0.004491806,0,
00:09.6,-0.002677917,-3.43E-05,0.004486084,0,
00:09.6,-0.00268364,-5.15E-05,0.004497528,0,
00:09.6,-0.002689362,-4.58E-05,0.004497528,0,
00:09.6,-0.002666473,-1.72E-05,0.004486084,0,
00:09.6,-0.002677917,-2.29E-05,0.004486084,0,
00:09.6,-0.002700806,-5.15E-05,0.004491806,0,
00:09.6,-0.002689362,-4.01E-05,0.004491806,0,
00:09.6,-0.002677917,-1.72E-05,0.004480362,0,
00:09.6,-0.00268364,-2.86E-05,0.004497528,0,
00:09.6,-0.002689362,-5.15E-05,0.004491806,0,
00:09.6,-0.002677917,-4.58E-05,0.004497528,0,
00:09.6,-0.002706528,-9.73E-05,0.004486084,0,
00:09.6,-0.002695084,-8.01E-05,0.004480362,0,
00:09.6,-0.00268364,-2.86E-05,0.004497528,0,
00:09.6,-0.002689362,-2.86E-05,0.004486084,0,
00:09.6,-0.002695084,-4.58E-05,0.004486084,0,
00:09.6,-0.00268364,-3.43E-05,0.004491806,0,
00:09.7,-0.00268364,-4.58E-05,0.004491806,0,
00:09.7,-0.002700806,-6.29E-05,0.004486084,0,
00:09.7,-0.002700806,-7.44E-05,0.004486084,0,
00:09.7,-0.002689362,-5.15E-05,0.004486084,0,
00:09.7,-0.002689362,-2.86E-05,0.004486084,0,
00:09.7,-0.002689362,-4.01E-05,0.004480362,0,
00:09.7,-0.002689362,-4.01E-05,0.004491806,0,
00:09.7,-0.00268364,-5.15E-05,0.004486084,0,
00:09.7,-0.002695084,-6.87E-05,0.004480362,0,
00:09.7,-0.00268364,-4.58E-05,0.004480362,0,
00:09.7,-0.002689362,-2.86E-05,0.004497528,0,
00:09.7,-0.002695084,-4.58E-05,0.004480362,0,
00:09.7,-0.002700806,-5.15E-05,0.004480362,0,
00:09.7,-0.002695084,-5.15E-05,0.004480362,0,
00:09.7,-0.002700806,-6.29E-05,0.004486084,0,
00:09.7,-0.002695084,-7.44E-05,0.004480362,0,
00:09.7,-0.002677917,-4.01E-05,0.004480362,0,
00:09.7,-0.002689362,-2.29E-05,0.004486084,0,
00:09.7,-0.002695084,-4.01E-05,0.004468918,0,
00:09.7,-0.002689362,-4.58E-05,0.004480362,0,
00:09.7,-0.00268364,-4.01E-05,0.00447464,0,
00:09.7,-0.00271225,-6.87E-05,0.00447464,0,
00:09.7,-0.002689362,-4.58E-05,0.004480362,0,
00:09.7,-0.002672195,-2.86E-05,0.00447464,0,
00:09.7,-0.002695084,-4.58E-05,0.00447464,0,
00:09.8,-0.002700806,-6.87E-05,0.004468918,0,
00:09.8,-0.002695084,-5.72E-05,0.004480362,0,
00:09.8,-0.002689362,-5.15E-05,0.004480362,0,
00:09.8,-0.002706528,-6.29E-05,0.00447464,0,
00:09.8,-0.002700806,-6.29E-05,0.004463196,0,
00:09.8,-0.002695084,-4.58E-05,0.00447464,0,
00:09.8,-0.00268364,-3.43E-05,0.00447464,0,
00:09.8,-0.00268364,-4.58E-05,0.00447464,0,
00:09.8,-0.002700806,-5.72E-05,0.004480362,0,
00:09.8,-0.002700806,-6.29E-05,0.004468918,0,
00:09.8,-0.002700806,-6.87E-05,0.004468918,0,
00:09.8,-0.002700806,-5.72E-05,0.004468918,0,
00:09.8,-0.002700806,-6.87E-05,0.004468918,0,
00:09.8,-0.002695084,-6.29E-05,0.004468918,0,
00:09.8,-0.002700806,-5.15E-05,0.00447464,0,
00:09.8,-0.002700806,-5.15E-05,0.00447464,0,
00:09.8,-0.002695084,-5.72E-05,0.004480362,0,
00:09.8,-0.002695084,-6.29E-05,0.00447464,0,
00:09.8,-0.002706528,-8.58E-05,0.004463196,0,
00:09.8,-0.002706528,-8.01E-05,0.004451752,0,
00:09.8,-0.002689362,-4.01E-05,0.004480362,0,
00:09.8,-0.002689362,-2.29E-05,0.00447464,0,
00:09.8,-0.002706528,-5.15E-05,0.004468918,0,
00:09.8,-0.002706528,-6.29E-05,0.004468918,0,
00:09.8,-0.002706528,-6.87E-05,0.004463196,0,
00:09.9,-0.002695084,-5.15E-05,0.004468918,0,
00:09.9,-0.002672195,-4.01E-05,0.004480362,0,
00:09.9,-0.00271225,-8.58E-05,0.004463196,0,
00:09.9,-0.002717972,-7.44E-05,0.004463196,0,
00:09.9,-0.002700806,-4.58E-05,0.00447464,0,
00:09.9,-0.002706528,-6.29E-05,0.004468918,0,
00:09.9,-0.002700806,-6.29E-05,0.004463196,0,
00:09.9,-0.002689362,-4.01E-05,0.004468918,0,
00:09.9,-0.00268364,-4.01E-05,0.004463196,0,
00:09.9,-0.002717972,-6.87E-05,0.004451752,0,
00:09.9,-0.002717972,-8.01E-05,0.004468918,0,
00:09.9,-0.00271225,-7.44E-05,0.004463196,0,
00:09.9,-0.002706528,-6.87E-05,0.004468918,0,
00:09.9,-0.002706528,-6.29E-05,0.004463196,0,
00:09.9,-0.002700806,-6.29E-05,0.004457474,0,
00:09.9,-0.002695084,-5.72E-05,0.004463196,0,
00:09.9,-0.00268364,-4.58E-05,0.004468918,0,
00:09.9,-0.002706528,-6.87E-05,0.004468918,0,
00:09.9,-0.002717972,-8.01E-05,0.004457474,0,
00:09.9,-0.00271225,-9.16E-05,0.004457474,0,
00:09.9,-0.002706528,-8.01E-05,0.004457474,0,
00:09.9,-0.002706528,-5.15E-05,0.004457474,0,
00:09.9,-0.002700806,-5.72E-05,0.004463196,0,
00:09.9,-0.002700806,-6.29E-05,0.004457474,0,
00:09.9,-0.002689362,-4.01E-05,0.004457474,0,
00:10.0,-0.002695084,-4.58E-05,0.004463196,0,
00:10.0,-0.002706528,-6.29E-05,0.004451752,0,
00:10.0,-0.00271225,-7.44E-05,0.004451752,0,
00:10.0,-0.00271225,-6.29E-05,0.004457474,0,
00:10.0,-0.002706528,-6.29E-05,0.004451752,0,
00:10.0,-0.002700806,-5.72E-05,0.004457474,0,
00:10.0,-0.002706528,-5.72E-05,0.004457474,0,
00:10.0,-0.002706528,-7.44E-05,0.004468918,0,
00:10.0,-0.002706528,-6.87E-05,0.004463196,0,
00:10.0,-0.00271225,-6.29E-05,0.00444603,0,
00:10.0,-0.002706528,-5.72E-05,0.004457474,0,
00:10.0,-0.002717972,-8.01E-05,0.004451752,0,
00:00:10,-0.00271225,-6.87E-05,0.00444603,0,
00:10.0,-0.002706528,-6.29E-05,0.004440308,0,
00:10.0,-0.002706528,-6.87E-05,0.004468918,0,
00:10.0,-0.002700806,-7.44E-05,0.004463196,0,
00:10.0,-0.00271225,-7.44E-05,0.004451752,0,
00:10.0,-0.002706528,-5.72E-05,0.00444603,0,
00:10.0,-0.002706528,-6.29E-05,0.004457474,0,
00:10.0,-0.00271225,-9.16E-05,0.004451752,0,
00:10.0,-0.002706528,-6.29E-05,0.004451752,0,
00:10.0,-0.002706528,-5.72E-05,0.004451752,0,
00:10.0,-0.002706528,-6.29E-05,0.00444603,0,
00:10.0,-0.002706528,-6.87E-05,0.004440308,0,
00:10.0,-0.002706528,-7.44E-05,0.004457474,0,
00:10.1,-0.00271225,-8.01E-05,0.004451752,0,
00:10.1,-0.002695084,-5.72E-05,0.004457474,0,
00:10.1,-0.002706528,-7.44E-05,0.00444603,0,
00:10.1,-0.002706528,-5.72E-05,0.004457474,0,
00:10.1,-0.00271225,-8.58E-05,0.004440308,0,
00:10.1,-0.00271225,-8.58E-05,0.004457474,0,
00:10.1,-0.002706528,-6.87E-05,0.004451752,0,
00:10.1,-0.00271225,-7.44E-05,0.00444603,0,
00:10.1,-0.00271225,-8.01E-05,0.004440308,0,
00:10.1,-0.00271225,-8.01E-05,0.004457474,0,
00:10.1,-0.00271225,-9.16E-05,0.004451752,0,
00:10.1,-0.002706528,-6.87E-05,0.00444603,0,
00:10.1,-0.002700806,-4.01E-05,0.004440308,0,
00:10.1,-0.002695084,-3.43E-05,0.004451752,0,
00:10.1,-0.002706528,-5.15E-05,0.004440308,0,
00:10.1,-0.002729416,-8.01E-05,0.004434586,0,
00:10.1,-0.002717972,-8.01E-05,0.004451752,0,
00:10.1,-0.002717972,-8.58E-05,0.00444603,0,
00:10.1,-0.002717972,-7.44E-05,0.00444603,0,
00:10.1,-0.00271225,-5.72E-05,0.004434586,0,
00:10.1,-0.00271225,-5.72E-05,0.004440308,0,
00:10.1,-0.00271225,-6.87E-05,0.004451752,0,
00:10.1,-0.002706528,-7.44E-05,0.004451752,0,
00:10.1,-0.00271225,-7.44E-05,0.00444603,0,
00:10.1,-0.002717972,-8.01E-05,0.004440308,0,
00:10.2,-0.002723694,-8.58E-05,0.00444603,0,
00:10.2,-0.002723694,-7.44E-05,0.004434586,0,
00:10.2,-0.002706528,-5.15E-05,0.004440308,0,
00:10.2,-0.00271225,-6.29E-05,0.00444603,0,
00:10.2,-0.002723694,-8.58E-05,0.004440308,0,
00:10.2,-0.002717972,-8.01E-05,0.00444603,0,
00:10.2,-0.002706528,-6.29E-05,0.00444603,0,
00:10.2,-0.00271225,-5.15E-05,0.00444603,0,
00:10.2,-0.002717972,-6.87E-05,0.004440308,0,
00:10.2,-0.002717972,-8.01E-05,0.004440308,0,
00:10.2,-0.002717972,-8.58E-05,0.004434586,0,
00:10.2,-0.002717972,-0.000102997,0.004428864,0,
00:10.2,-0.002717972,-9.16E-05,0.00444603,0,
00:10.2,-0.00271225,-5.72E-05,0.004440308,0,
00:10.2,-0.002723694,-6.87E-05,0.004434586,0,
00:10.2,-0.002723694,-6.29E-05,0.00444603,0,
00:10.2,-0.00271225,-6.29E-05,0.00444603,0,
00:10.2,-0.00271225,-7.44E-05,0.004440308,0,
00:10.2,-0.00271225,-6.29E-05,0.00444603,0,
00:10.2,-0.002717972,-5.72E-05,0.004434586,0,
00:10.2,-0.002717972,-8.01E-05,0.004440308,0,
00:10.2,-0.002717972,-9.73E-05,0.004451752,0,
